3.991989e+002,4.835596e-002
4.011274e+002,5.009828e-002
4.030559e+002,5.009828e-002
4.049844e+002,4.922125e-002
4.069129e+002,4.910163e-002
4.088414e+002,4.844334e-002
4.107699e+002,4.962853e-002
4.126984e+002,5.130642e-002
4.146269e+002,5.115542e-002
4.165554e+002,5.055316e-002
4.184839e+002,5.116011e-002
4.204124e+002,5.216847e-002
4.223409e+002,5.191743e-002
4.242694e+002,5.185878e-002
4.261979e+002,5.367773e-002
4.281264e+002,5.486243e-002
4.300549e+002,5.455556e-002
4.319834e+002,5.397264e-002
4.339119e+002,5.400028e-002
4.358404e+002,5.412624e-002
4.377689e+002,5.469400e-002
4.396974e+002,5.484594e-002
4.416259e+002,5.445825e-002
4.435544e+002,5.410101e-002
4.454829e+002,5.427969e-002
4.474114e+002,5.446070e-002
4.493399e+002,5.461818e-002
4.512684e+002,5.484402e-002
4.531969e+002,5.456665e-002
4.551254e+002,5.423043e-002
4.570539e+002,5.469074e-002
4.589824e+002,5.470020e-002
4.609109e+002,5.443233e-002
4.628394e+002,5.427819e-002
4.647679e+002,5.330364e-002
4.666964e+002,5.290022e-002
4.686249e+002,5.263419e-002
4.705533e+002,5.223912e-002
4.724819e+002,5.163972e-002
4.744103e+002,5.127453e-002
4.763389e+002,5.036971e-002
4.782673e+002,4.982163e-002
4.801959e+002,4.947541e-002
4.821243e+002,4.895335e-002
4.840529e+002,4.861792e-002
4.859813e+002,4.831086e-002
4.879099e+002,4.777200e-002
4.898383e+002,4.766180e-002
4.917668e+002,4.724207e-002
4.936953e+002,4.693326e-002
4.956238e+002,4.603404e-002
4.975523e+002,4.497462e-002
4.994808e+002,4.471308e-002
5.014093e+002,4.488251e-002
5.033378e+002,4.491796e-002
5.052663e+002,4.475635e-002
5.071948e+002,4.486246e-002
5.091233e+002,4.476129e-002
5.110518e+002,4.487138e-002
5.129803e+002,4.485885e-002
5.149088e+002,4.489700e-002
5.168373e+002,4.538196e-002
5.187658e+002,4.574189e-002
5.206943e+002,4.590892e-002
5.226228e+002,4.497902e-002
5.245513e+002,4.505758e-002
5.264798e+002,4.552170e-002
5.284083e+002,4.546917e-002
5.303368e+002,4.558364e-002
5.322653e+002,4.554897e-002
5.341938e+002,4.516903e-002
5.361223e+002,4.499590e-002
5.380508e+002,4.499140e-002
5.399792e+002,4.448548e-002
5.419078e+002,4.396982e-002
5.438363e+002,4.428169e-002
5.457648e+002,4.464677e-002
5.476932e+002,4.466462e-002
5.496218e+002,4.480825e-002
5.515503e+002,4.553438e-002
5.534788e+002,4.536057e-002
5.554072e+002,4.540044e-002
5.573358e+002,4.577788e-002
5.592643e+002,4.564629e-002
5.611927e+002,4.541648e-002
5.631212e+002,4.528252e-002
5.650497e+002,4.487953e-002
5.669783e+002,4.460572e-002
5.689067e+002,4.412757e-002
5.708352e+002,4.406269e-002
5.727637e+002,4.382792e-002
5.746923e+002,4.387161e-002
5.766207e+002,4.371450e-002
5.785492e+002,4.342387e-002
5.804777e+002,4.363395e-002
5.824063e+002,4.356135e-002
5.843347e+002,4.313403e-002
5.862632e+002,4.312931e-002
5.881917e+002,4.298973e-002
5.901202e+002,4.305209e-002
5.920487e+002,4.285214e-002
5.939772e+002,4.241882e-002
5.959057e+002,4.230274e-002
5.978342e+002,4.220620e-002
5.997627e+002,4.192806e-002
6.016912e+002,4.177805e-002
6.036197e+002,4.180132e-002
6.055482e+002,4.178403e-002
6.074767e+002,4.167971e-002
6.094052e+002,4.127571e-002
6.113337e+002,4.092145e-002
6.132622e+002,4.060676e-002
6.151907e+002,4.019801e-002
6.171192e+002,4.009382e-002
6.190477e+002,3.984301e-002
6.209762e+002,3.941388e-002
6.229047e+002,3.888265e-002
6.248332e+002,3.842386e-002
6.267617e+002,3.803134e-002
6.286902e+002,3.746335e-002
6.306187e+002,3.712350e-002
6.325472e+002,3.704177e-002
6.344756e+002,3.669190e-002
6.364042e+002,3.645707e-002
6.383326e+002,3.622873e-002
6.402612e+002,3.605982e-002
6.421896e+002,3.603518e-002
6.441182e+002,3.584472e-002
6.460466e+002,3.539184e-002
6.479752e+002,3.517310e-002
6.499036e+002,3.523011e-002
6.518322e+002,3.523817e-002
6.537606e+002,3.510023e-002
6.556891e+002,3.492908e-002
6.576177e+002,3.491218e-002
6.595461e+002,3.485874e-002
6.614746e+002,3.498333e-002
6.634031e+002,3.534794e-002
6.653317e+002,3.535239e-002
6.672601e+002,3.496547e-002
6.691886e+002,3.467323e-002
6.711171e+002,3.427093e-002
6.730457e+002,3.377838e-002
6.749741e+002,3.310068e-002
6.769026e+002,3.228550e-002
6.788311e+002,3.160315e-002
6.807596e+002,3.087289e-002
6.826881e+002,3.045040e-002
6.846166e+002,3.006388e-002
6.865451e+002,3.004929e-002
6.884736e+002,2.981204e-002
6.904021e+002,2.952157e-002
6.923306e+002,2.929757e-002
6.942591e+002,2.933337e-002
6.961876e+002,2.924552e-002
6.981161e+002,2.909878e-002
7.000446e+002,2.885584e-002
7.019731e+002,2.866023e-002
7.039016e+002,2.851373e-002
7.058301e+002,2.850406e-002
7.077585e+002,2.834674e-002
7.096871e+002,2.818202e-002
7.116156e+002,2.798225e-002
7.135441e+002,2.792572e-002
7.154725e+002,2.779360e-002
7.174011e+002,2.781905e-002
7.193296e+002,2.790807e-002
7.212581e+002,2.783253e-002
7.231865e+002,2.739775e-002
7.251151e+002,2.705171e-002
7.270436e+002,2.682438e-002
7.289720e+002,2.681642e-002
7.309005e+002,2.653169e-002
7.328290e+002,2.620675e-002
7.347576e+002,2.604426e-002
7.366860e+002,2.595699e-002
7.386145e+002,2.585976e-002
7.405430e+002,2.566357e-002
7.424716e+002,2.541226e-002
7.444000e+002,2.519631e-002
7.463285e+002,2.498151e-002
7.482570e+002,2.487016e-002
7.501855e+002,2.462628e-002
7.521140e+002,2.444203e-002
7.540425e+002,2.443563e-002
7.559710e+002,2.428424e-002
7.578995e+002,2.414526e-002
7.598280e+002,2.415055e-002
7.617565e+002,2.400230e-002
7.636850e+002,2.385589e-002
7.656135e+002,2.371074e-002
7.675420e+002,2.371935e-002
7.694705e+002,2.369549e-002
7.713990e+002,2.366305e-002
7.733275e+002,2.360224e-002
7.752560e+002,2.361484e-002
7.771844e+002,2.366015e-002
7.791130e+002,2.365045e-002
7.810415e+002,2.370438e-002
7.829700e+002,2.368258e-002
7.848984e+002,2.355103e-002
7.868270e+002,2.348618e-002
7.887555e+002,2.336127e-002
7.906840e+002,2.326051e-002
7.926124e+002,2.321251e-002
7.945410e+002,2.327491e-002
7.964695e+002,2.326222e-002
7.983979e+002,2.322632e-002
8.003264e+002,2.307985e-002
8.022549e+002,2.305864e-002
8.041835e+002,2.302350e-002
8.061119e+002,2.298325e-002
8.080404e+002,2.294150e-002
8.099689e+002,2.292027e-002
8.118975e+002,2.278064e-002
8.138259e+002,2.259345e-002
8.157545e+002,2.255516e-002
8.176830e+002,2.239768e-002
8.196115e+002,2.219022e-002
8.215399e+002,2.204894e-002
8.234684e+002,2.197111e-002
8.253970e+002,2.192486e-002
8.273254e+002,2.181360e-002
8.292539e+002,2.163024e-002
8.311824e+002,2.161478e-002
8.331110e+002,2.162999e-002
8.350394e+002,2.147867e-002
8.369679e+002,2.138370e-002
8.388964e+002,2.127070e-002
8.408250e+002,2.126329e-002
8.427534e+002,2.123893e-002
8.446819e+002,2.111707e-002
8.466104e+002,2.103731e-002
8.485389e+002,2.103349e-002
8.504674e+002,2.106552e-002
8.523959e+002,2.110945e-002
8.543244e+002,2.111164e-002
8.562529e+002,2.116946e-002
8.581814e+002,2.116612e-002
8.601099e+002,2.126830e-002
8.620384e+002,2.136836e-002
8.639669e+002,2.140358e-002
8.658954e+002,2.141388e-002
8.678239e+002,2.160680e-002
8.697524e+002,2.179984e-002
8.716809e+002,2.193549e-002
8.736094e+002,2.213426e-002
8.755378e+002,2.234385e-002
8.774664e+002,2.254916e-002
8.793949e+002,2.279185e-002
8.813234e+002,2.306514e-002
8.832518e+002,2.346219e-002
8.851804e+002,2.393007e-002
8.871089e+002,2.454659e-002
8.890374e+002,2.516157e-002
8.909658e+002,2.578572e-002
8.928943e+002,2.637412e-002
8.948229e+002,2.678928e-002
8.967513e+002,2.704345e-002
8.986798e+002,2.710866e-002
9.006083e+002,2.693535e-002
9.025369e+002,2.661198e-002
9.044653e+002,2.624619e-002
9.063938e+002,2.594493e-002
9.083223e+002,2.569150e-002
9.102509e+002,2.552410e-002
9.121793e+002,2.544300e-002
9.141078e+002,2.531623e-002
9.160364e+002,2.529080e-002
9.179648e+002,2.542681e-002
9.198933e+002,2.558166e-002
9.218218e+002,2.561347e-002
9.237504e+002,2.576899e-002
9.256788e+002,2.603480e-002
9.276073e+002,2.636887e-002
9.295358e+002,2.669816e-002
9.314644e+002,2.701190e-002
9.333928e+002,2.741465e-002
9.353213e+002,2.776882e-002
9.372498e+002,2.814099e-002
9.391783e+002,2.860445e-002
9.411068e+002,2.931208e-002
9.430353e+002,3.006404e-002
9.449637e+002,3.085128e-002
9.468923e+002,3.162929e-002
9.488208e+002,3.232053e-002
9.507493e+002,3.309735e-002
9.526777e+002,3.397423e-002
9.546063e+002,3.482815e-002
9.565348e+002,3.561728e-002
9.584633e+002,3.646601e-002
9.603917e+002,3.736081e-002
9.623203e+002,3.819953e-002
9.642488e+002,3.900037e-002
9.661772e+002,3.971851e-002
9.681057e+002,4.046356e-002
9.700343e+002,4.128709e-002
9.719628e+002,4.219481e-002
9.738912e+002,4.319673e-002
9.758197e+002,4.421717e-002
9.777483e+002,4.541311e-002
9.796768e+002,4.676693e-002
9.816052e+002,4.818829e-002
9.835337e+002,4.977221e-002
9.854623e+002,5.135365e-002
9.873907e+002,5.279787e-002
9.893192e+002,5.400656e-002
9.912477e+002,5.478756e-002
9.931763e+002,5.526814e-002
9.951047e+002,5.550501e-002
9.970332e+002,5.585852e-002
9.989617e+002,5.650234e-002
1.000890e+003,5.743626e-002
1.002819e+003,5.850918e-002
1.004747e+003,5.947164e-002
1.006676e+003,6.040759e-002
1.008604e+003,6.138198e-002
1.010533e+003,6.221131e-002
1.012461e+003,6.305090e-002
1.014390e+003,6.395160e-002
1.016318e+003,6.501972e-002
1.018247e+003,6.627221e-002
1.020175e+003,6.754142e-002
1.022104e+003,6.876830e-002
1.024032e+003,7.003085e-002
1.025961e+003,7.130017e-002
1.027889e+003,7.262044e-002
1.029818e+003,7.386005e-002
1.031746e+003,7.485729e-002
1.033675e+003,7.568857e-002
1.035603e+003,7.612273e-002
1.037532e+003,7.604342e-002
1.039460e+003,7.566419e-002
1.041389e+003,7.505590e-002
1.043317e+003,7.430819e-002
1.045246e+003,7.358202e-002
1.047174e+003,7.281176e-002
1.049103e+003,7.209153e-002
1.051031e+003,7.140565e-002
1.052960e+003,7.065920e-002
1.054888e+003,6.973320e-002
1.056817e+003,6.864619e-002
1.058745e+003,6.754134e-002
1.060674e+003,6.650814e-002
1.062602e+003,6.553607e-002
1.064531e+003,6.458759e-002
1.066459e+003,6.351321e-002
1.068388e+003,6.243946e-002
1.070316e+003,6.139736e-002
1.072245e+003,6.031427e-002
1.074173e+003,5.925743e-002
1.076102e+003,5.818337e-002
1.078030e+003,5.704160e-002
1.079959e+003,5.594120e-002
1.081887e+003,5.482068e-002
1.083816e+003,5.380486e-002
1.085744e+003,5.305602e-002
1.087673e+003,5.251367e-002
1.089601e+003,5.210232e-002
1.091530e+003,5.172753e-002
1.093458e+003,5.137185e-002
1.095387e+003,5.096937e-002
1.097315e+003,5.063285e-002
1.099244e+003,5.036465e-002
1.101172e+003,5.014101e-002
1.103101e+003,4.980045e-002
1.105029e+003,4.924668e-002
1.106958e+003,4.852147e-002
1.108886e+003,4.752303e-002
1.110815e+003,4.632965e-002
1.112743e+003,4.499152e-002
1.114672e+003,4.357778e-002
1.116600e+003,4.226547e-002
1.118529e+003,4.107004e-002
1.120457e+003,3.997855e-002
1.122386e+003,3.889559e-002
1.124314e+003,3.779110e-002
1.126243e+003,3.672966e-002
1.128171e+003,3.562606e-002
1.130100e+003,3.452540e-002
1.132028e+003,3.354037e-002
1.133957e+003,3.268033e-002
1.135885e+003,3.190343e-002
1.137814e+003,3.130540e-002
1.139742e+003,3.097545e-002
1.141671e+003,3.084915e-002
1.143599e+003,3.088700e-002
1.145528e+003,3.108467e-002
1.147456e+003,3.140502e-002
1.149385e+003,3.174035e-002
1.151313e+003,3.210149e-002
1.153242e+003,3.245248e-002
1.155170e+003,3.282400e-002
1.157099e+003,3.319953e-002
1.159027e+003,3.341514e-002
1.160956e+003,3.338755e-002
1.162884e+003,3.312346e-002
1.164813e+003,3.264900e-002
1.166741e+003,3.194066e-002
1.168670e+003,3.102257e-002
1.170598e+003,2.988739e-002
1.172526e+003,2.862686e-002
1.174455e+003,2.739234e-002
1.176384e+003,2.621419e-002
1.178312e+003,2.516961e-002
1.180240e+003,2.428747e-002
1.182169e+003,2.347670e-002
1.184098e+003,2.281140e-002
1.186026e+003,2.230768e-002
1.187954e+003,2.196557e-002
1.189883e+003,2.177127e-002
1.191812e+003,2.170647e-002
1.193740e+003,2.177173e-002
1.195668e+003,2.192905e-002
1.197597e+003,2.212397e-002
1.199526e+003,2.231010e-002
1.201454e+003,2.239068e-002
1.203382e+003,2.234843e-002
1.205311e+003,2.218313e-002
1.207240e+003,2.198946e-002
1.209168e+003,2.186443e-002
1.211096e+003,2.183293e-002
1.213025e+003,2.188490e-002
1.214953e+003,2.201346e-002
1.216882e+003,2.222605e-002
1.218810e+003,2.249561e-002
1.220739e+003,2.279074e-002
1.222667e+003,2.310563e-002
1.224596e+003,2.343942e-002
1.226524e+003,2.382701e-002
1.228453e+003,2.418523e-002
1.230381e+003,2.456232e-002
1.232310e+003,2.485841e-002
1.234238e+003,2.506585e-002
1.236167e+003,2.520746e-002
1.238095e+003,2.520453e-002
1.240024e+003,2.524481e-002
1.241952e+003,2.524706e-002
1.243881e+003,2.515272e-002
1.245809e+003,2.503167e-002
1.247738e+003,2.481179e-002
1.249666e+003,2.448995e-002
1.251595e+003,2.415814e-002
1.253523e+003,2.381050e-002
1.255452e+003,2.340651e-002
1.257380e+003,2.299399e-002
1.259309e+003,2.259501e-002
1.261237e+003,2.213160e-002
1.263166e+003,2.172999e-002
1.265094e+003,2.128950e-002
1.267023e+003,2.091487e-002
1.268951e+003,2.053570e-002
1.270880e+003,2.015745e-002
1.272808e+003,1.976159e-002
1.274737e+003,1.940309e-002
1.276665e+003,1.914870e-002
1.278594e+003,1.890552e-002
1.280522e+003,1.869458e-002
1.282451e+003,1.850898e-002
1.284379e+003,1.833859e-002
1.286308e+003,1.818904e-002
1.288236e+003,1.803732e-002
1.290165e+003,1.796554e-002
1.292093e+003,1.800325e-002
1.294022e+003,1.809953e-002
1.295950e+003,1.821235e-002
1.297879e+003,1.836736e-002
1.299807e+003,1.852816e-002
1.301736e+003,1.877598e-002
1.303664e+003,1.907550e-002
1.305593e+003,1.936335e-002
1.307521e+003,1.963039e-002
1.309450e+003,1.986653e-002
1.311378e+003,2.010590e-002
1.313307e+003,2.032330e-002
1.315235e+003,2.048738e-002
1.317164e+003,2.049987e-002
1.319092e+003,2.044668e-002
1.321021e+003,2.033136e-002
1.322949e+003,2.016931e-002
1.324878e+003,2.001750e-002
1.326806e+003,1.988428e-002
1.328735e+003,1.975904e-002
1.330663e+003,1.969129e-002
1.332592e+003,1.961519e-002
1.334520e+003,1.956298e-002
1.336449e+003,1.950781e-002
1.338377e+003,1.940384e-002
1.340306e+003,1.930691e-002
1.342234e+003,1.919820e-002
1.344163e+003,1.913684e-002
1.346091e+003,1.915862e-002
1.348020e+003,1.923510e-002
1.349948e+003,1.933701e-002
1.351877e+003,1.950756e-002
1.353805e+003,1.969027e-002
1.355734e+003,1.983746e-002
1.357662e+003,2.008110e-002
1.359591e+003,2.033682e-002
1.361519e+003,2.056684e-002
1.363448e+003,2.081423e-002
1.365376e+003,2.099906e-002
1.367305e+003,2.111458e-002
1.369233e+003,2.113629e-002
1.371162e+003,2.110040e-002
1.373090e+003,2.098696e-002
1.375019e+003,2.077872e-002
1.376947e+003,2.052221e-002
1.378876e+003,2.019126e-002
1.380804e+003,1.983033e-002
1.382733e+003,1.944804e-002
1.384661e+003,1.911573e-002
1.386590e+003,1.879977e-002
1.388518e+003,1.853790e-002
1.390447e+003,1.833469e-002
1.392375e+003,1.817406e-002
1.394304e+003,1.803041e-002
1.396232e+003,1.797115e-002
1.398161e+003,1.794371e-002
1.400089e+003,1.793124e-002
1.402018e+003,1.794163e-002
1.403946e+003,1.797609e-002
1.405875e+003,1.807512e-002
1.407803e+003,1.815181e-002
1.409732e+003,1.822906e-002
1.411660e+003,1.834784e-002
1.413589e+003,1.845270e-002
1.415517e+003,1.854033e-002
1.417446e+003,1.860268e-002
1.419374e+003,1.861041e-002
1.421303e+003,1.862944e-002
1.423231e+003,1.862896e-002
1.425160e+003,1.861314e-002
1.427088e+003,1.859306e-002
1.429017e+003,1.852985e-002
1.430945e+003,1.840079e-002
1.432874e+003,1.824332e-002
1.434802e+003,1.808781e-002
1.436731e+003,1.791885e-002
1.438659e+003,1.772177e-002
1.440588e+003,1.751365e-002
1.442516e+003,1.730845e-002
1.444445e+003,1.717130e-002
1.446373e+003,1.707884e-002
1.448302e+003,1.696743e-002
1.450230e+003,1.686732e-002
1.452159e+003,1.677346e-002
1.454087e+003,1.668067e-002
1.456016e+003,1.658896e-002
1.457944e+003,1.644218e-002
1.459873e+003,1.631967e-002
1.461801e+003,1.625859e-002
1.463730e+003,1.619230e-002
1.465658e+003,1.600268e-002
1.467587e+003,1.558127e-002
1.469515e+003,1.500587e-002
1.471444e+003,1.444358e-002
1.473372e+003,1.399046e-002
1.475301e+003,1.356255e-002
1.477229e+003,1.318837e-002
1.479158e+003,1.294720e-002
1.481086e+003,1.277667e-002
1.483015e+003,1.263707e-002
1.484943e+003,1.256030e-002
1.486872e+003,1.255191e-002
1.488800e+003,1.258047e-002
1.490729e+003,1.262570e-002
1.492657e+003,1.270444e-002
1.494586e+003,1.281043e-002
1.496514e+003,1.291444e-002
1.498443e+003,1.304121e-002
1.500371e+003,1.314599e-002
1.502300e+003,1.322522e-002
1.504228e+003,1.335907e-002
1.506157e+003,1.350877e-002
1.508085e+003,1.365619e-002
1.510014e+003,1.381339e-002
1.511942e+003,1.399701e-002
1.513871e+003,1.415478e-002
1.515799e+003,1.420370e-002
1.517728e+003,1.411611e-002
1.519656e+003,1.400360e-002
1.521585e+003,1.385640e-002
1.523513e+003,1.374449e-002
1.525442e+003,1.364652e-002
1.527370e+003,1.359075e-002
1.529299e+003,1.356922e-002
1.531227e+003,1.355849e-002
1.533156e+003,1.355403e-002
1.535084e+003,1.355806e-002
1.537013e+003,1.356149e-002
1.538941e+003,1.355776e-002
1.540870e+003,1.356306e-002
1.542798e+003,1.354975e-002
1.544727e+003,1.349269e-002
1.546655e+003,1.348727e-002
1.548584e+003,1.352691e-002
1.550512e+003,1.352813e-002
1.552441e+003,1.352394e-002
1.554369e+003,1.348651e-002
1.556298e+003,1.344810e-002
1.558226e+003,1.345865e-002
1.560155e+003,1.349990e-002
1.562083e+003,1.356735e-002
1.564012e+003,1.366465e-002
1.565940e+003,1.374335e-002
1.567869e+003,1.381965e-002
1.569797e+003,1.394673e-002
1.571726e+003,1.407583e-002
1.573654e+003,1.424706e-002
1.575583e+003,1.443034e-002
1.577511e+003,1.467788e-002
1.579440e+003,1.491928e-002
1.581368e+003,1.517296e-002
1.583297e+003,1.544745e-002
1.585225e+003,1.574901e-002
1.587154e+003,1.610299e-002
1.589082e+003,1.641842e-002
1.591010e+003,1.664595e-002
1.592939e+003,1.685430e-002
1.594868e+003,1.704132e-002
1.596796e+003,1.723719e-002
1.598724e+003,1.738513e-002
1.600653e+003,1.751506e-002
1.602582e+003,1.761324e-002
1.604510e+003,1.768586e-002
1.606438e+003,1.771966e-002
1.608367e+003,1.768721e-002
1.610296e+003,1.771264e-002
1.612224e+003,1.778030e-002
1.614152e+003,1.781075e-002
1.616081e+003,1.792144e-002
1.618010e+003,1.801149e-002
1.619938e+003,1.802792e-002
1.621866e+003,1.809272e-002
1.623795e+003,1.816466e-002
1.625724e+003,1.819883e-002
1.627652e+003,1.815821e-002
1.629580e+003,1.807263e-002
1.631509e+003,1.795260e-002
1.633438e+003,1.786852e-002
1.635366e+003,1.775968e-002
1.637294e+003,1.760647e-002
1.639223e+003,1.745833e-002
1.641151e+003,1.727051e-002
1.643080e+003,1.717528e-002
1.645008e+003,1.712469e-002
1.646937e+003,1.700179e-002
1.648865e+003,1.691740e-002
1.650794e+003,1.681930e-002
1.652722e+003,1.671542e-002
1.654651e+003,1.661292e-002
1.656579e+003,1.645199e-002
1.658508e+003,1.624781e-002
1.660436e+003,1.601810e-002
1.662365e+003,1.579103e-002
1.664293e+003,1.552758e-002
1.666222e+003,1.528961e-002
1.668150e+003,1.505554e-002
1.670079e+003,1.485815e-002
1.672007e+003,1.467212e-002
1.673936e+003,1.450302e-002
1.675864e+003,1.436887e-002
1.677793e+003,1.422686e-002
1.679721e+003,1.414100e-002
1.681650e+003,1.400082e-002
1.683578e+003,1.388216e-002
1.685507e+003,1.382823e-002
1.687435e+003,1.374110e-002
1.689364e+003,1.369070e-002
1.691292e+003,1.366138e-002
1.693221e+003,1.365259e-002
1.695149e+003,1.359281e-002
1.697078e+003,1.351926e-002
1.699006e+003,1.344601e-002
1.700935e+003,1.339937e-002
1.702863e+003,1.345672e-002
1.704792e+003,1.351040e-002
1.706720e+003,1.359215e-002
1.708649e+003,1.367744e-002
1.710577e+003,1.383592e-002
1.712506e+003,1.404998e-002
1.714434e+003,1.424175e-002
1.716363e+003,1.446359e-002
1.718291e+003,1.472856e-002
1.720220e+003,1.501570e-002
1.722148e+003,1.538840e-002
1.724077e+003,1.581304e-002
1.726005e+003,1.622354e-002
1.727934e+003,1.658801e-002
1.729862e+003,1.684069e-002
1.731791e+003,1.688071e-002
1.733719e+003,1.676270e-002
1.735648e+003,1.648763e-002
1.737576e+003,1.593990e-002
1.739505e+003,1.515177e-002
1.741433e+003,1.428910e-002
1.743362e+003,1.349812e-002
1.745290e+003,1.280779e-002
1.747219e+003,1.223495e-002
1.749147e+003,1.173250e-002
1.751076e+003,1.134461e-002
1.753004e+003,1.102562e-002
1.754933e+003,1.083646e-002
1.756861e+003,1.062858e-002
1.758790e+003,1.039294e-002
1.760718e+003,1.014528e-002
1.762647e+003,1.000164e-002
1.764575e+003,9.853602e-003
1.766504e+003,9.772425e-003
1.768432e+003,9.681460e-003
1.770361e+003,9.609775e-003
1.772289e+003,9.565330e-003
1.774218e+003,9.484157e-003
1.776146e+003,9.421606e-003
1.778075e+003,9.372017e-003
1.780003e+003,9.344801e-003
1.781932e+003,9.371049e-003
1.783860e+003,9.410157e-003
1.785789e+003,9.426837e-003
1.787717e+003,9.385897e-003
1.789646e+003,9.335075e-003
1.791574e+003,9.345282e-003
1.793503e+003,9.394729e-003
1.795431e+003,9.414664e-003
1.797360e+003,9.359743e-003
1.799288e+003,9.362760e-003
1.801217e+003,9.345737e-003
1.803145e+003,9.318977e-003
1.805074e+003,9.334396e-003
1.807002e+003,9.353031e-003
1.808931e+003,9.390555e-003
1.810859e+003,9.371113e-003
1.812788e+003,9.335167e-003
1.814716e+003,9.325383e-003
1.816645e+003,9.381959e-003
1.818573e+003,9.409698e-003
1.820502e+003,9.311376e-003
1.822430e+003,9.294212e-003
1.824359e+003,9.272311e-003
1.826287e+003,9.230139e-003
1.828216e+003,9.400773e-003
1.830144e+003,9.430404e-003
1.832073e+003,9.329569e-003
1.834001e+003,9.249325e-003
1.835930e+003,9.269197e-003
1.837858e+003,9.351619e-003
1.839787e+003,9.242228e-003
1.841715e+003,9.210309e-003
1.843644e+003,9.199047e-003
1.845572e+003,9.323344e-003
1.847501e+003,9.406884e-003
1.849429e+003,9.410709e-003
1.851358e+003,9.490499e-003
1.853286e+003,9.439354e-003
1.855215e+003,9.370712e-003
1.857143e+003,9.421377e-003
1.859072e+003,9.444612e-003
1.861000e+003,9.410433e-003
1.862929e+003,9.330668e-003
1.864857e+003,9.311571e-003
1.866786e+003,9.349779e-003
1.868714e+003,9.301472e-003
1.870643e+003,9.367127e-003
1.872571e+003,9.347573e-003
1.874500e+003,9.411127e-003
1.876428e+003,9.460432e-003
1.878357e+003,9.444783e-003
1.880285e+003,9.496977e-003
1.882214e+003,9.569024e-003
1.884142e+003,9.478717e-003
1.886071e+003,9.452963e-003
1.887999e+003,9.554417e-003
1.889928e+003,9.496189e-003
1.891856e+003,9.379943e-003
1.893785e+003,9.437991e-003
1.895713e+003,9.348804e-003
1.897642e+003,9.325959e-003
1.899570e+003,9.425238e-003
1.901499e+003,9.380043e-003
1.903427e+003,9.285535e-003
1.905356e+003,9.398723e-003
1.907284e+003,9.421247e-003
1.909213e+003,9.378169e-003
1.911141e+003,9.405022e-003
1.913070e+003,9.446301e-003
1.914998e+003,9.421129e-003
1.916927e+003,9.378617e-003
1.918855e+003,9.210477e-003
1.920784e+003,9.251592e-003
1.922712e+003,9.407436e-003
1.924641e+003,9.427125e-003
1.926569e+003,9.249272e-003
1.928498e+003,9.075832e-003
1.930426e+003,9.035959e-003
1.932355e+003,8.996957e-003
1.934283e+003,9.153944e-003
1.936212e+003,8.878081e-003
1.938140e+003,8.614240e-003
1.940069e+003,8.271050e-003
1.941997e+003,8.160552e-003
1.943926e+003,8.634018e-003
1.945854e+003,8.686251e-003
1.947783e+003,8.339237e-003
1.949711e+003,8.566754e-003
1.951640e+003,8.659295e-003
1.953568e+003,8.253825e-003
1.955497e+003,7.514306e-003
1.957425e+003,7.291593e-003
1.959354e+003,7.696270e-003
1.961282e+003,7.388081e-003
1.963211e+003,7.889540e-003
1.965139e+003,7.795816e-003
1.967068e+003,7.003838e-003
1.968996e+003,6.751903e-003
1.970925e+003,6.919671e-003
1.972853e+003,6.714774e-003
1.974782e+003,5.650511e-003
1.976710e+003,5.975408e-003
1.978639e+003,7.316451e-003
1.980567e+003,6.871904e-003
1.982496e+003,6.781146e-003
1.984424e+003,6.828324e-003
1.986353e+003,7.007855e-003
1.988281e+003,6.785113e-003
1.990210e+003,6.511661e-003
1.992138e+003,7.165385e-003
1.994067e+003,6.897063e-003
1.995995e+003,6.807597e-003
1.997924e+003,6.504272e-003
1.999852e+003,6.299432e-003
2.001781e+003,6.099088e-003
2.003709e+003,5.338909e-003
2.005638e+003,5.187619e-003
2.007566e+003,5.065111e-003
2.009495e+003,4.182371e-003
2.011423e+003,3.632165e-003
2.013352e+003,3.965133e-003
2.015280e+003,4.304259e-003
2.017208e+003,5.237843e-003
2.019137e+003,5.234935e-003
2.021066e+003,3.532688e-003
2.022994e+003,2.945351e-003
2.024922e+003,3.726476e-003
2.026851e+003,4.387577e-003
2.028780e+003,4.578163e-003
2.030708e+003,4.033540e-003
2.032636e+003,3.327672e-003
2.034565e+003,2.684172e-003
2.036494e+003,3.716229e-003
2.038422e+003,4.358714e-003
2.040350e+003,4.406882e-003
2.042279e+003,4.659471e-003
2.044208e+003,4.776256e-003
2.046136e+003,4.651738e-003
2.048064e+003,4.989529e-003
2.049993e+003,5.711462e-003
2.051921e+003,5.665389e-003
2.053850e+003,5.605260e-003
2.055778e+003,5.732988e-003
2.057707e+003,6.325917e-003
2.059635e+003,6.665415e-003
2.061564e+003,6.224355e-003
2.063492e+003,6.120748e-003
2.065421e+003,6.677394e-003
2.067349e+003,6.527154e-003
2.069278e+003,6.711415e-003
2.071206e+003,6.722647e-003
2.073135e+003,6.681561e-003
2.075063e+003,6.878369e-003
2.076992e+003,7.115280e-003
2.078920e+003,7.331954e-003
2.080849e+003,7.422719e-003
2.082777e+003,7.276686e-003
2.084706e+003,7.185519e-003
2.086634e+003,7.379440e-003
2.088563e+003,7.588614e-003
2.090491e+003,7.422274e-003
2.092420e+003,7.303526e-003
2.094348e+003,7.347153e-003
2.096277e+003,7.191376e-003
2.098205e+003,7.347415e-003
2.100134e+003,7.637832e-003
2.102062e+003,7.745115e-003
2.103991e+003,7.616453e-003
2.105919e+003,7.676445e-003
2.107848e+003,7.685012e-003
2.109776e+003,7.900166e-003
2.111705e+003,7.788393e-003
2.113633e+003,7.680020e-003
2.115562e+003,7.818181e-003
2.117490e+003,7.868382e-003
2.119419e+003,7.907523e-003
2.121347e+003,7.699817e-003
2.123276e+003,7.425335e-003
2.125204e+003,7.680492e-003
2.127133e+003,7.430188e-003
2.129061e+003,7.106262e-003
2.130990e+003,7.024560e-003
2.132918e+003,6.856928e-003
2.134847e+003,6.048395e-003
2.136775e+003,5.593002e-003
2.138704e+003,5.974485e-003
2.140632e+003,5.763269e-003
2.142561e+003,5.565447e-003
2.144489e+003,5.417165e-003
2.146418e+003,4.691617e-003
2.148346e+003,4.093960e-003
2.150275e+003,4.330267e-003
2.152203e+003,4.420735e-003
2.154132e+003,3.283039e-003
2.156060e+003,1.663462e-003
2.157989e+003,-2.318764e-004
2.159917e+003,4.508900e-004
2.161846e+003,2.376802e-003
2.163774e+003,2.295285e-003
2.165703e+003,2.921258e-003
2.167631e+003,3.072695e-003
2.169560e+003,3.851698e-003
2.171488e+003,4.459198e-003
2.173417e+003,4.434426e-003
2.175345e+003,5.164473e-003
2.177274e+003,5.095842e-003
2.179202e+003,4.597978e-003
2.181131e+003,4.390912e-003
2.183059e+003,4.359116e-003
2.184988e+003,5.121690e-003
2.186916e+003,5.720159e-003
2.188845e+003,6.445142e-003
2.190773e+003,6.357244e-003
2.192702e+003,5.957990e-003
2.194630e+003,5.788452e-003
2.196559e+003,5.842417e-003
2.198487e+003,5.894910e-003
2.200416e+003,6.113179e-003
2.202344e+003,6.380915e-003
2.204273e+003,7.123810e-003
2.206201e+003,6.781298e-003
2.208130e+003,6.212623e-003
2.210058e+003,6.586678e-003
2.211987e+003,6.797284e-003
2.213915e+003,6.586342e-003
2.215844e+003,6.883488e-003
2.217772e+003,7.764712e-003
2.219701e+003,7.754391e-003
2.221629e+003,7.577508e-003
2.223558e+003,7.671792e-003
2.225486e+003,7.756921e-003
2.227415e+003,7.391260e-003
2.229343e+003,7.321636e-003
2.231272e+003,7.440300e-003
2.233200e+003,7.617522e-003
2.235129e+003,7.739866e-003
2.237057e+003,7.842859e-003
2.238986e+003,8.165976e-003
2.240914e+003,8.361339e-003
2.242843e+003,8.237336e-003
2.244771e+003,8.115530e-003
2.246700e+003,8.335023e-003
2.248628e+003,8.425631e-003
2.250557e+003,8.145789e-003
2.252485e+003,8.650001e-003
2.254414e+003,8.865768e-003
2.256342e+003,8.687280e-003
2.258271e+003,8.498314e-003
2.260199e+003,8.653209e-003
2.262128e+003,8.466040e-003
2.264056e+003,8.627431e-003
2.265985e+003,9.035033e-003
2.267913e+003,8.893420e-003
2.269842e+003,8.930732e-003
2.271770e+003,9.294539e-003
2.273699e+003,9.546746e-003
2.275627e+003,9.703177e-003
2.277556e+003,9.746848e-003
2.279484e+003,9.661358e-003
2.281413e+003,9.676700e-003
2.283341e+003,9.753769e-003
2.285270e+003,9.779726e-003
2.287198e+003,9.765474e-003
2.289127e+003,9.723821e-003
2.291055e+003,9.827818e-003
2.292984e+003,9.920413e-003
2.294912e+003,1.005407e-002
2.296841e+003,1.011616e-002
2.298769e+003,1.010649e-002
2.300698e+003,1.019164e-002
2.302626e+003,1.025186e-002
2.304555e+003,1.020764e-002
2.306483e+003,1.025894e-002
2.308412e+003,1.024390e-002
2.310340e+003,1.009927e-002
2.312269e+003,1.020655e-002
2.314197e+003,1.027888e-002
2.316125e+003,1.035633e-002
2.318054e+003,1.041973e-002
2.319983e+003,1.031740e-002
2.321911e+003,1.031017e-002
2.323840e+003,1.049650e-002
2.325768e+003,1.072211e-002
2.327697e+003,1.082842e-002
2.329625e+003,1.082932e-002
2.331553e+003,1.085457e-002
2.333482e+003,1.078559e-002
2.335411e+003,1.097340e-002
2.337339e+003,1.096724e-002
2.339268e+003,1.100757e-002
2.341196e+003,1.085796e-002
2.343125e+003,1.060054e-002
2.345053e+003,1.067085e-002
2.346981e+003,1.069793e-002
2.348910e+003,1.053654e-002
2.350839e+003,1.067648e-002
2.352767e+003,1.063917e-002
2.354696e+003,1.023310e-002
2.356624e+003,1.019376e-002
2.358552e+003,1.027388e-002
2.360481e+003,1.032389e-002
2.362409e+003,1.057064e-002
2.364338e+003,1.057085e-002
2.366267e+003,1.038328e-002
2.368195e+003,1.023794e-002
2.370124e+003,1.023271e-002
2.372052e+003,1.028894e-002
2.373980e+003,1.054155e-002
2.375909e+003,1.051475e-002
2.377838e+003,1.044575e-002
2.379766e+003,1.048967e-002
2.381695e+003,1.041122e-002
2.383623e+003,1.029365e-002
2.385552e+003,1.019401e-002
2.387480e+003,1.013091e-002
2.389408e+003,1.006252e-002
2.391337e+003,1.009069e-002
2.393266e+003,1.022237e-002
2.395194e+003,1.030238e-002
2.397123e+003,1.019275e-002
2.399051e+003,1.004857e-002
2.400979e+003,9.978935e-003
2.402908e+003,1.004448e-002
2.404836e+003,1.002379e-002
2.406765e+003,9.923335e-003
2.408694e+003,1.002776e-002
2.410622e+003,1.007249e-002
2.412551e+003,9.962153e-003
2.414479e+003,9.929811e-003
2.416407e+003,9.974697e-003
2.418336e+003,9.970086e-003
2.420264e+003,9.966390e-003
2.422193e+003,1.003854e-002
2.424122e+003,1.009304e-002
2.426050e+003,9.945439e-003
2.427979e+003,9.979409e-003
2.429907e+003,1.005482e-002
2.431835e+003,1.001315e-002
2.433764e+003,1.015280e-002
2.435692e+003,1.010382e-002
2.437621e+003,9.956050e-003
2.439550e+003,9.823343e-003
2.441478e+003,9.892386e-003
2.443406e+003,9.943846e-003
2.445335e+003,1.000640e-002
2.447263e+003,1.005597e-002
2.449192e+003,1.005258e-002
2.451121e+003,1.010555e-002
2.453049e+003,1.008609e-002
2.454978e+003,9.973171e-003
2.456906e+003,1.001148e-002
2.458834e+003,1.007700e-002
2.460763e+003,1.019055e-002
2.462691e+003,1.014584e-002
2.464620e+003,1.003959e-002
2.466549e+003,1.017786e-002
2.468477e+003,1.012549e-002
2.470406e+003,1.003017e-002
2.472334e+003,9.954220e-003
2.474262e+003,1.005272e-002
2.476191e+003,1.005567e-002
2.478119e+003,1.010918e-002
2.480048e+003,1.015171e-002
2.481977e+003,1.002183e-002
2.483905e+003,9.964594e-003
2.485833e+003,9.906488e-003
2.487762e+003,1.002250e-002
2.489690e+003,1.008364e-002
2.491619e+003,1.011135e-002
2.493547e+003,1.023790e-002
2.495476e+003,1.028730e-002
2.497405e+003,1.023991e-002
2.499333e+003,1.028720e-002
2.501261e+003,1.029955e-002
2.503190e+003,1.035021e-002
2.505118e+003,1.043950e-002
2.507047e+003,1.037641e-002
2.508975e+003,1.034726e-002
2.510904e+003,1.024842e-002
2.512833e+003,1.019872e-002
2.514761e+003,1.021402e-002
2.516689e+003,1.032920e-002
2.518618e+003,1.042633e-002
2.520546e+003,1.047894e-002
2.522475e+003,1.052890e-002
2.524403e+003,1.057620e-002
2.526332e+003,1.042490e-002
2.528260e+003,1.029558e-002
2.530189e+003,1.039544e-002
2.532117e+003,1.047239e-002
2.534046e+003,1.058607e-002
2.535974e+003,1.063385e-002
2.537903e+003,1.064930e-002
2.539831e+003,1.073739e-002
2.541760e+003,1.080498e-002
2.543688e+003,1.072530e-002
2.545617e+003,1.066295e-002
2.547545e+003,1.076351e-002
2.549474e+003,1.070506e-002
2.551402e+003,1.069721e-002
2.553331e+003,1.084048e-002
2.555259e+003,1.096585e-002
2.557188e+003,1.095097e-002
2.559116e+003,1.089137e-002
2.561045e+003,1.074700e-002
2.562973e+003,1.068597e-002
2.564902e+003,1.086491e-002
2.566830e+003,1.102872e-002
2.568759e+003,1.109956e-002
2.570687e+003,1.099168e-002
2.572616e+003,1.092182e-002
2.574544e+003,1.092623e-002
2.576473e+003,1.102138e-002
2.578401e+003,1.102434e-002
2.580330e+003,1.098434e-002
2.582258e+003,1.095760e-002
2.584187e+003,1.096721e-002
2.586115e+003,1.105160e-002
2.588044e+003,1.106523e-002
2.589972e+003,1.104130e-002
2.591901e+003,1.102859e-002
2.593829e+003,1.097775e-002
2.595758e+003,1.107563e-002
2.597686e+003,1.108820e-002
2.599615e+003,1.104460e-002
2.601543e+003,1.099358e-002
2.603472e+003,1.105704e-002
2.605400e+003,1.103032e-002
2.607329e+003,1.105486e-002
2.609257e+003,1.107658e-002
2.611186e+003,1.113634e-002
2.613114e+003,1.115333e-002
2.615043e+003,1.111278e-002
2.616971e+003,1.113372e-002
2.618900e+003,1.118716e-002
2.620828e+003,1.128376e-002
2.622757e+003,1.132185e-002
2.624685e+003,1.132729e-002
2.626614e+003,1.132209e-002
2.628542e+003,1.134726e-002
2.630471e+003,1.144134e-002
2.632399e+003,1.146920e-002
2.634328e+003,1.149421e-002
2.636256e+003,1.144645e-002
2.638185e+003,1.146002e-002
2.640113e+003,1.152163e-002
2.642042e+003,1.151973e-002
2.643970e+003,1.159714e-002
2.645899e+003,1.168052e-002
2.647827e+003,1.168281e-002
2.649756e+003,1.169206e-002
2.651684e+003,1.174146e-002
2.653613e+003,1.180481e-002
2.655541e+003,1.183113e-002
2.657470e+003,1.183212e-002
2.659398e+003,1.185868e-002
2.661327e+003,1.185360e-002
2.663255e+003,1.186310e-002
2.665184e+003,1.183495e-002
2.667112e+003,1.186171e-002
2.669041e+003,1.191701e-002
2.670969e+003,1.194521e-002
2.672898e+003,1.191596e-002
2.674826e+003,1.191940e-002
2.676755e+003,1.196098e-002
2.678683e+003,1.194279e-002
2.680612e+003,1.196200e-002
2.682540e+003,1.198683e-002
2.684469e+003,1.202716e-002
2.686397e+003,1.204900e-002
2.688326e+003,1.200090e-002
2.690254e+003,1.203050e-002
2.692183e+003,1.205970e-002
2.694111e+003,1.201940e-002
2.696040e+003,1.203050e-002
2.697968e+003,1.205206e-002
2.699897e+003,1.206910e-002
2.701825e+003,1.209932e-002
2.703754e+003,1.210954e-002
2.705682e+003,1.213359e-002
2.707611e+003,1.216266e-002
2.709539e+003,1.215584e-002
2.711468e+003,1.218154e-002
2.713396e+003,1.223535e-002
2.715325e+003,1.225931e-002
2.717253e+003,1.223944e-002
2.719182e+003,1.225208e-002
2.721110e+003,1.224588e-002
2.723039e+003,1.223909e-002
2.724967e+003,1.221994e-002
2.726896e+003,1.225917e-002
2.728824e+003,1.226271e-002
2.730753e+003,1.225351e-002
2.732681e+003,1.224077e-002
2.734610e+003,1.227198e-002
2.736538e+003,1.237626e-002
2.738467e+003,1.238509e-002
2.740395e+003,1.236429e-002
2.742324e+003,1.239624e-002
2.744252e+003,1.240964e-002
2.746181e+003,1.238461e-002
2.748109e+003,1.235597e-002
2.750038e+003,1.235816e-002
2.751966e+003,1.241768e-002
2.753895e+003,1.254464e-002
2.755823e+003,1.259102e-002
2.757752e+003,1.257550e-002
2.759680e+003,1.256722e-002
2.761609e+003,1.261135e-002
2.763537e+003,1.261057e-002
2.765466e+003,1.260187e-002
2.767394e+003,1.266402e-002
2.769323e+003,1.268650e-002
2.771251e+003,1.268364e-002
2.773180e+003,1.273393e-002
2.775108e+003,1.276778e-002
2.777037e+003,1.275689e-002
2.778965e+003,1.278859e-002
2.780894e+003,1.282432e-002
2.782822e+003,1.279733e-002
2.784750e+003,1.283674e-002
2.786679e+003,1.293556e-002
2.788608e+003,1.296993e-002
2.790536e+003,1.295969e-002
2.792465e+003,1.297447e-002
2.794393e+003,1.301500e-002
2.796322e+003,1.301100e-002
2.798250e+003,1.305187e-002
2.800178e+003,1.314984e-002
2.802107e+003,1.320514e-002
2.804036e+003,1.318410e-002
2.805964e+003,1.318697e-002
2.807893e+003,1.325488e-002
2.809821e+003,1.333198e-002
2.811750e+003,1.339253e-002
2.813678e+003,1.345934e-002
2.815606e+003,1.348682e-002
2.817535e+003,1.352459e-002
2.819464e+003,1.358247e-002
2.821392e+003,1.362992e-002
2.823321e+003,1.369314e-002
2.825249e+003,1.376616e-002
2.827177e+003,1.384359e-002
2.829106e+003,1.388957e-002
2.831034e+003,1.396597e-002
2.832963e+003,1.411138e-002
2.834892e+003,1.423829e-002
2.836820e+003,1.437982e-002
2.838749e+003,1.457995e-002
2.840677e+003,1.482944e-002
2.842605e+003,1.513104e-002
2.844534e+003,1.541635e-002
2.846462e+003,1.576478e-002
2.848391e+003,1.607470e-002
2.850320e+003,1.628084e-002
2.852248e+003,1.635653e-002
2.854177e+003,1.633320e-002
2.856105e+003,1.623372e-002
2.858033e+003,1.617023e-002
2.859962e+003,1.609629e-002
2.861890e+003,1.599979e-002
2.863819e+003,1.582501e-002
2.865748e+003,1.578539e-002
2.867676e+003,1.580209e-002
2.869604e+003,1.577062e-002
2.871533e+003,1.573416e-002
2.873461e+003,1.575323e-002
2.875390e+003,1.576045e-002
2.877319e+003,1.579979e-002
2.879247e+003,1.583862e-002
2.881176e+003,1.584034e-002
2.883104e+003,1.589340e-002
2.885032e+003,1.596596e-002
2.886961e+003,1.606831e-002
2.888889e+003,1.615702e-002
2.890818e+003,1.620555e-002
2.892747e+003,1.630954e-002
2.894675e+003,1.641313e-002
2.896604e+003,1.645498e-002
2.898532e+003,1.651238e-002
2.900460e+003,1.657200e-002
2.902389e+003,1.662281e-002
2.904317e+003,1.665669e-002
2.906246e+003,1.675527e-002
2.908175e+003,1.684712e-002
2.910103e+003,1.698703e-002
2.912031e+003,1.721339e-002
2.913960e+003,1.741856e-002
2.915888e+003,1.756941e-002
2.917817e+003,1.759842e-002
2.919745e+003,1.754943e-002
2.921674e+003,1.757286e-002
2.923603e+003,1.752401e-002
2.925531e+003,1.738424e-002
2.927459e+003,1.727983e-002
2.929388e+003,1.716534e-002
2.931316e+003,1.693731e-002
2.933245e+003,1.671546e-002
2.935173e+003,1.650845e-002
2.937102e+003,1.627875e-002
2.939031e+003,1.602919e-002
2.940959e+003,1.583286e-002
2.942887e+003,1.560321e-002
2.944816e+003,1.535457e-002
2.946744e+003,1.514706e-002
2.948673e+003,1.491747e-002
2.950601e+003,1.469532e-002
2.952530e+003,1.448124e-002
2.954458e+003,1.424652e-002
2.956387e+003,1.404585e-002
2.958315e+003,1.395651e-002
2.960244e+003,1.378932e-002
2.962172e+003,1.370765e-002
2.964101e+003,1.362697e-002
2.966029e+003,1.358489e-002
2.967958e+003,1.348933e-002
2.969886e+003,1.342182e-002
2.971815e+003,1.333771e-002
2.973743e+003,1.324681e-002
2.975672e+003,1.318429e-002
2.977600e+003,1.312038e-002
2.979529e+003,1.309154e-002
2.981457e+003,1.302217e-002
2.983386e+003,1.302628e-002
2.985314e+003,1.295036e-002
2.987243e+003,1.282985e-002
2.989171e+003,1.287897e-002
2.991100e+003,1.291241e-002
2.993028e+003,1.289272e-002
2.994957e+003,1.288550e-002
2.996885e+003,1.289244e-002
2.998814e+003,1.284697e-002
3.000742e+003,1.286832e-002
3.002671e+003,1.284726e-002
3.004599e+003,1.288318e-002
3.006528e+003,1.297898e-002
3.008456e+003,1.290745e-002
3.010385e+003,1.287370e-002
3.012313e+003,1.288767e-002
3.014242e+003,1.292256e-002
3.016170e+003,1.292520e-002
3.018099e+003,1.291967e-002
3.020027e+003,1.299448e-002
3.021956e+003,1.299423e-002
3.023884e+003,1.300675e-002
3.025813e+003,1.301921e-002
3.027741e+003,1.306330e-002
3.029670e+003,1.311782e-002
3.031598e+003,1.309688e-002
3.033527e+003,1.307816e-002
3.035455e+003,1.316336e-002
3.037384e+003,1.323514e-002
3.039312e+003,1.324672e-002
3.041241e+003,1.325386e-002
3.043169e+003,1.336716e-002
3.045098e+003,1.341655e-002
3.047026e+003,1.334483e-002
3.048955e+003,1.332605e-002
3.050883e+003,1.343149e-002
3.052812e+003,1.348998e-002
3.054740e+003,1.351443e-002
3.056669e+003,1.353576e-002
3.058597e+003,1.362737e-002
3.060526e+003,1.365708e-002
3.062454e+003,1.365090e-002
3.064383e+003,1.366824e-002
3.066311e+003,1.367500e-002
3.068240e+003,1.365767e-002
3.070168e+003,1.377682e-002
3.072097e+003,1.383957e-002
3.074025e+003,1.381640e-002
3.075954e+003,1.385004e-002
3.077882e+003,1.389826e-002
3.079811e+003,1.390170e-002
3.081739e+003,1.394811e-002
3.083668e+003,1.412167e-002
3.085596e+003,1.413873e-002
3.087525e+003,1.410487e-002
3.089453e+003,1.410836e-002
3.091382e+003,1.423623e-002
3.093310e+003,1.442782e-002
3.095239e+003,1.441562e-002
3.097167e+003,1.428843e-002
3.099096e+003,1.433716e-002
3.101024e+003,1.442299e-002
3.102953e+003,1.442301e-002
3.104881e+003,1.440444e-002
3.106810e+003,1.455656e-002
3.108738e+003,1.462836e-002
3.110667e+003,1.459698e-002
3.112595e+003,1.465507e-002
3.114524e+003,1.474455e-002
3.116452e+003,1.480672e-002
3.118381e+003,1.482842e-002
3.120309e+003,1.493587e-002
3.122238e+003,1.493612e-002
3.124166e+003,1.495252e-002
3.126095e+003,1.500990e-002
3.128023e+003,1.500107e-002
3.129952e+003,1.504085e-002
3.131880e+003,1.513115e-002
3.133809e+003,1.516407e-002
3.135737e+003,1.529803e-002
3.137666e+003,1.538177e-002
3.139594e+003,1.540495e-002
3.141523e+003,1.544775e-002
3.143451e+003,1.550845e-002
3.145380e+003,1.559669e-002
3.147308e+003,1.566748e-002
3.149237e+003,1.570400e-002
3.151165e+003,1.574682e-002
3.153094e+003,1.583757e-002
3.155022e+003,1.590848e-002
3.156951e+003,1.591904e-002
3.158879e+003,1.593130e-002
3.160808e+003,1.602455e-002
3.162736e+003,1.614892e-002
3.164665e+003,1.622359e-002
3.166593e+003,1.628186e-002
3.168522e+003,1.628997e-002
3.170450e+003,1.629712e-002
3.172379e+003,1.641759e-002
3.174307e+003,1.648723e-002
3.176236e+003,1.662221e-002
3.178164e+003,1.669199e-002
3.180093e+003,1.672027e-002
3.182021e+003,1.676243e-002
3.183950e+003,1.687024e-002
3.185878e+003,1.689571e-002
3.187807e+003,1.694437e-002
3.189735e+003,1.704816e-002
3.191664e+003,1.709704e-002
3.193592e+003,1.716438e-002
3.195521e+003,1.722682e-002
3.197449e+003,1.735385e-002
3.199378e+003,1.750615e-002
3.201306e+003,1.755512e-002
3.203235e+003,1.759229e-002
3.205163e+003,1.764963e-002
3.207092e+003,1.769391e-002
3.209020e+003,1.787421e-002
3.210948e+003,1.796291e-002
3.212877e+003,1.798298e-002
3.214806e+003,1.804566e-002
3.216734e+003,1.811462e-002
3.218663e+003,1.823523e-002
3.220591e+003,1.831206e-002
3.222520e+003,1.838855e-002
3.224448e+003,1.841475e-002
3.226376e+003,1.851414e-002
3.228305e+003,1.863686e-002
3.230234e+003,1.867909e-002
3.232162e+003,1.874975e-002
3.234091e+003,1.880599e-002
3.236019e+003,1.889038e-002
3.237948e+003,1.899152e-002
3.239876e+003,1.910372e-002
3.241804e+003,1.914839e-002
3.243733e+003,1.919450e-002
3.245662e+003,1.930021e-002
3.247590e+003,1.942461e-002
3.249519e+003,1.955162e-002
3.251447e+003,1.963753e-002
3.253375e+003,1.970924e-002
3.255304e+003,1.982507e-002
3.257232e+003,1.990983e-002
3.259161e+003,1.997710e-002
3.261090e+003,2.007857e-002
3.263018e+003,2.017373e-002
3.264947e+003,2.016828e-002
3.266875e+003,2.027860e-002
3.268803e+003,2.036208e-002
3.270732e+003,2.038163e-002
3.272660e+003,2.050959e-002
3.274589e+003,2.054226e-002
3.276518e+003,2.052439e-002
3.278446e+003,2.055208e-002
3.280375e+003,2.063823e-002
3.282303e+003,2.059767e-002
3.284231e+003,2.053492e-002
3.286160e+003,2.063388e-002
3.288088e+003,2.069665e-002
3.290017e+003,2.075436e-002
3.291946e+003,2.072041e-002
3.293874e+003,2.070274e-002
3.295802e+003,2.073908e-002
3.297731e+003,2.077051e-002
3.299659e+003,2.084143e-002
3.301588e+003,2.096161e-002
3.303516e+003,2.094126e-002
3.305445e+003,2.097534e-002
3.307374e+003,2.092608e-002
3.309302e+003,2.088839e-002
3.311230e+003,2.097937e-002
3.313159e+003,2.106319e-002
3.315087e+003,2.096888e-002
3.317016e+003,2.107945e-002
3.318944e+003,2.116059e-002
3.320873e+003,2.121021e-002
3.322802e+003,2.119742e-002
3.324730e+003,2.125192e-002
3.326658e+003,2.123938e-002
3.328587e+003,2.129081e-002
3.330515e+003,2.131911e-002
3.332444e+003,2.125405e-002
3.334372e+003,2.125677e-002
3.336301e+003,2.132721e-002
3.338229e+003,2.130105e-002
3.340158e+003,2.125931e-002
3.342086e+003,2.128428e-002
3.344015e+003,2.132814e-002
3.345943e+003,2.124454e-002
3.347872e+003,2.118282e-002
3.349800e+003,2.115973e-002
3.351729e+003,2.105439e-002
3.353657e+003,2.105625e-002
3.355586e+003,2.116460e-002
3.357514e+003,2.112597e-002
3.359443e+003,2.101392e-002
3.361371e+003,2.089635e-002
3.363300e+003,2.088885e-002
3.365229e+003,2.092563e-002
3.367157e+003,2.090273e-002
3.369085e+003,2.078902e-002
3.371014e+003,2.074413e-002
3.372942e+003,2.070704e-002
3.374871e+003,2.067293e-002
3.376799e+003,2.066980e-002
3.378728e+003,2.057864e-002
3.380656e+003,2.056538e-002
3.382585e+003,2.062051e-002
3.384513e+003,2.062776e-002
3.386442e+003,2.057993e-002
3.388370e+003,2.050580e-002
3.390299e+003,2.036152e-002
3.392227e+003,2.025972e-002
3.394156e+003,2.019764e-002
3.396084e+003,2.014898e-002
3.398013e+003,2.015705e-002
3.399941e+003,2.016997e-002
3.401870e+003,2.017493e-002
3.403798e+003,2.006889e-002
3.405727e+003,1.992272e-002
3.407655e+003,1.983635e-002
3.409584e+003,1.980380e-002
3.411512e+003,1.970295e-002
3.413441e+003,1.965857e-002
3.415369e+003,1.959102e-002
3.417298e+003,1.944263e-002
3.419226e+003,1.933107e-002
3.421155e+003,1.925747e-002
3.423083e+003,1.922944e-002
3.425012e+003,1.906581e-002
3.426940e+003,1.893106e-002
3.428869e+003,1.884174e-002
3.430797e+003,1.868362e-002
3.432726e+003,1.855087e-002
3.434654e+003,1.847999e-002
3.436583e+003,1.842359e-002
3.438511e+003,1.831135e-002
3.440440e+003,1.821147e-002
3.442368e+003,1.805588e-002
3.444297e+003,1.789892e-002
3.446225e+003,1.784475e-002
3.448154e+003,1.774083e-002
3.450082e+003,1.749528e-002
3.452011e+003,1.739348e-002
3.453939e+003,1.739048e-002
3.455868e+003,1.720236e-002
3.457796e+003,1.698735e-002
3.459725e+003,1.678414e-002
3.461653e+003,1.673095e-002
3.463582e+003,1.669288e-002
3.465510e+003,1.658665e-002
3.467439e+003,1.646662e-002
3.469367e+003,1.633768e-002
3.471296e+003,1.618338e-002
3.473224e+003,1.608137e-002
3.475153e+003,1.599546e-002
3.477081e+003,1.587807e-002
3.479010e+003,1.574348e-002
3.480938e+003,1.557123e-002
3.482867e+003,1.550254e-002
3.484795e+003,1.538944e-002
3.486724e+003,1.518684e-002
3.488652e+003,1.505855e-002
3.490581e+003,1.500773e-002
3.492509e+003,1.490924e-002
3.494438e+003,1.487442e-002
3.496366e+003,1.473084e-002
3.498295e+003,1.460660e-002
3.500223e+003,1.447148e-002
3.502152e+003,1.444673e-002
3.504080e+003,1.442487e-002
3.506009e+003,1.440984e-002
3.507937e+003,1.429808e-002
3.509866e+003,1.414293e-002
3.511794e+003,1.399278e-002
3.513723e+003,1.391732e-002
3.515651e+003,1.384656e-002
3.517580e+003,1.366027e-002
3.519508e+003,1.358961e-002
3.521437e+003,1.351673e-002
3.523365e+003,1.345912e-002
3.525294e+003,1.333564e-002
3.527222e+003,1.326697e-002
3.529151e+003,1.313285e-002
3.531079e+003,1.294424e-002
3.533008e+003,1.285763e-002
3.534936e+003,1.284208e-002
3.536865e+003,1.276342e-002
3.538793e+003,1.271719e-002
3.540722e+003,1.265039e-002
3.542650e+003,1.249483e-002
3.544579e+003,1.240158e-002
3.546507e+003,1.228691e-002
3.548436e+003,1.209815e-002
3.550364e+003,1.199460e-002
3.552293e+003,1.193002e-002
3.554221e+003,1.183020e-002
3.556150e+003,1.170916e-002
3.558078e+003,1.174218e-002
3.560007e+003,1.164070e-002
3.561935e+003,1.157722e-002
3.563864e+003,1.153994e-002
3.565792e+003,1.141096e-002
3.567721e+003,1.126201e-002
3.569649e+003,1.113680e-002
3.571578e+003,1.104876e-002
3.573506e+003,1.098668e-002
3.575435e+003,1.094661e-002
3.577363e+003,1.082537e-002
3.579292e+003,1.064658e-002
3.581220e+003,1.058057e-002
3.583149e+003,1.054806e-002
3.585077e+003,1.048783e-002
3.587006e+003,1.041209e-002
3.588934e+003,1.028366e-002
3.590863e+003,1.001967e-002
3.592791e+003,9.908263e-003
3.594720e+003,9.848985e-003
3.596648e+003,9.802183e-003
3.598577e+003,9.727861e-003
3.600505e+003,9.723136e-003
3.602434e+003,9.766681e-003
3.604362e+003,9.814464e-003
3.606291e+003,9.746350e-003
3.608219e+003,9.685465e-003
3.610148e+003,9.732942e-003
3.612076e+003,9.757669e-003
3.614005e+003,9.613425e-003
3.615933e+003,9.465640e-003
3.617862e+003,9.411229e-003
3.619790e+003,9.257401e-003
3.621719e+003,9.105062e-003
3.623647e+003,9.056228e-003
3.625576e+003,8.945745e-003
3.627504e+003,8.931928e-003
3.629433e+003,8.948096e-003
3.631361e+003,8.959890e-003
3.633290e+003,8.957853e-003
3.635218e+003,8.964330e-003
3.637146e+003,9.075331e-003
3.639075e+003,9.137739e-003
3.641004e+003,9.198996e-003
3.642932e+003,9.228593e-003
3.644861e+003,9.200109e-003
3.646789e+003,9.197648e-003
3.648718e+003,9.174905e-003
3.650646e+003,9.153707e-003
3.652574e+003,9.168052e-003
3.654503e+003,9.128118e-003
3.656432e+003,8.997458e-003
3.658360e+003,8.909233e-003
3.660289e+003,8.891424e-003
3.662217e+003,9.045908e-003
3.664146e+003,9.057094e-003
3.666074e+003,9.021672e-003
3.668002e+003,9.056558e-003
3.669931e+003,8.869566e-003
3.671860e+003,8.715294e-003
3.673788e+003,8.767573e-003
3.675717e+003,8.894257e-003
3.677645e+003,8.900236e-003
3.679573e+003,8.848269e-003
3.681502e+003,8.725172e-003
3.683430e+003,8.659188e-003
3.685359e+003,8.674516e-003
3.687288e+003,8.586814e-003
3.689216e+003,8.420321e-003
3.691145e+003,8.429310e-003
3.693073e+003,8.535850e-003
3.695001e+003,8.448656e-003
3.696930e+003,8.238975e-003
3.698858e+003,8.177953e-003
3.700787e+003,8.238593e-003
3.702716e+003,8.240176e-003
3.704644e+003,8.129839e-003
3.706573e+003,8.129878e-003
3.708501e+003,8.250147e-003
3.710429e+003,8.446169e-003
3.712358e+003,8.552515e-003
3.714286e+003,8.625601e-003
3.716215e+003,8.552523e-003
3.718144e+003,8.314269e-003
3.720072e+003,8.190665e-003
3.722000e+003,8.217757e-003
3.723929e+003,8.150804e-003
3.725857e+003,8.038778e-003
3.727786e+003,8.022429e-003
3.729714e+003,8.086894e-003
3.731643e+003,8.107545e-003
3.733572e+003,8.167550e-003
3.735500e+003,8.315365e-003
3.737428e+003,8.416512e-003
3.739357e+003,8.516436e-003
3.741285e+003,8.609740e-003
3.743214e+003,8.758096e-003
3.745142e+003,8.868558e-003
3.747071e+003,8.943374e-003
3.749000e+003,9.001530e-003
3.750928e+003,9.011186e-003
3.752856e+003,9.108213e-003
3.754785e+003,9.093964e-003
3.756713e+003,8.978850e-003
3.758642e+003,8.942190e-003
3.760570e+003,8.976143e-003
3.762499e+003,9.012744e-003
3.764427e+003,9.004007e-003
3.766356e+003,9.027679e-003
3.768284e+003,9.109912e-003
3.770213e+003,9.004084e-003
3.772141e+003,8.966005e-003
3.774070e+003,9.014834e-003
3.775998e+003,9.069428e-003
3.777927e+003,9.056200e-003
3.779855e+003,9.018041e-003
3.781784e+003,9.016960e-003
3.783712e+003,8.994805e-003
3.785641e+003,9.080077e-003
3.787569e+003,9.147901e-003
3.789498e+003,9.086901e-003
3.791426e+003,9.003421e-003
3.793355e+003,9.030144e-003
3.795283e+003,9.116088e-003
3.797212e+003,9.096448e-003
3.799140e+003,9.063501e-003
3.801069e+003,9.026968e-003
3.802997e+003,9.055126e-003
3.804926e+003,9.172191e-003
3.806854e+003,9.181169e-003
3.808783e+003,9.125113e-003
3.810711e+003,9.118638e-003
3.812640e+003,9.169318e-003
3.814568e+003,9.168546e-003
3.816497e+003,9.126435e-003
3.818425e+003,9.183140e-003
3.820354e+003,9.147973e-003
3.822282e+003,9.149932e-003
3.824211e+003,9.226459e-003
3.826139e+003,9.186256e-003
3.828068e+003,9.136037e-003
3.829996e+003,9.196382e-003
3.831925e+003,9.063139e-003
3.833853e+003,9.095836e-003
3.835782e+003,9.241822e-003
3.837710e+003,9.232985e-003
3.839639e+003,9.124381e-003
3.841567e+003,9.066381e-003
3.843496e+003,9.148475e-003
3.845424e+003,9.218358e-003
3.847353e+003,9.215263e-003
3.849281e+003,9.174353e-003
3.851210e+003,9.180669e-003
3.853138e+003,9.253360e-003
3.855067e+003,9.250919e-003
3.856995e+003,9.210196e-003
3.858924e+003,9.267299e-003
3.860852e+003,9.322511e-003
3.862781e+003,9.278324e-003
3.864709e+003,9.287226e-003
3.866638e+003,9.242095e-003
3.868566e+003,9.199823e-003
3.870495e+003,9.289615e-003
3.872423e+003,9.350660e-003
3.874352e+003,9.316833e-003
3.876280e+003,9.263982e-003
3.878209e+003,9.327402e-003
3.880137e+003,9.318532e-003
3.882066e+003,9.262857e-003
3.883994e+003,9.276316e-003
3.885923e+003,9.322370e-003
3.887851e+003,9.354458e-003
3.889780e+003,9.323558e-003
3.891708e+003,9.328261e-003
3.893637e+003,9.411615e-003
3.895565e+003,9.442247e-003
3.897494e+003,9.309391e-003
3.899422e+003,9.218492e-003
3.901351e+003,9.235669e-003
3.903279e+003,9.275052e-003
3.905208e+003,9.323725e-003
3.907136e+003,9.375996e-003
3.909065e+003,9.375166e-003
3.910993e+003,9.359093e-003
3.912922e+003,9.382963e-003
3.914850e+003,9.369674e-003
3.916779e+003,9.372410e-003
3.918707e+003,9.377270e-003
3.920636e+003,9.362223e-003
3.922564e+003,9.383948e-003
3.924493e+003,9.356796e-003
3.926421e+003,9.407653e-003
3.928350e+003,9.447913e-003
3.930278e+003,9.336974e-003
3.932207e+003,9.321925e-003
3.934135e+003,9.379907e-003
3.936064e+003,9.413696e-003
3.937992e+003,9.334208e-003
3.939921e+003,9.288937e-003
3.941849e+003,9.345231e-003
3.943778e+003,9.403232e-003
3.945706e+003,9.467686e-003
3.947635e+003,9.475837e-003
3.949563e+003,9.395177e-003
3.951492e+003,9.337842e-003
3.953420e+003,9.298595e-003
3.955349e+003,9.303542e-003
3.957277e+003,9.406571e-003
3.959206e+003,9.491403e-003
3.961134e+003,9.400331e-003
3.963063e+003,9.287647e-003
3.964991e+003,9.332496e-003
3.966920e+003,9.361221e-003
3.968848e+003,9.359292e-003
3.970777e+003,9.398771e-003
3.972705e+003,9.413762e-003
3.974634e+003,9.411751e-003
3.976562e+003,9.366431e-003
3.978491e+003,9.364804e-003
3.980419e+003,9.505055e-003
3.982348e+003,9.417383e-003
3.984276e+003,9.346437e-003
3.986205e+003,9.401903e-003
3.988133e+003,9.403499e-003
3.990062e+003,9.485486e-003
3.991990e+003,9.438964e-003
3.993919e+003,9.376250e-003
3.995847e+003,9.412650e-003
3.997776e+003,9.422518e-003
3.999704e+003,9.422923e-003
4.001633e+003,0.000000e+000
