3.991989e+002,5.117028e-002
4.011274e+002,5.003671e-002
4.030559e+002,5.003671e-002
4.049844e+002,5.106905e-002
4.069129e+002,5.050048e-002
4.088414e+002,4.959564e-002
4.107699e+002,5.089834e-002
4.126984e+002,5.224389e-002
4.146269e+002,5.446422e-002
4.165554e+002,5.459641e-002
4.184839e+002,5.376216e-002
4.204124e+002,5.524662e-002
4.223409e+002,5.686336e-002
4.242694e+002,5.683751e-002
4.261979e+002,5.664060e-002
4.281264e+002,5.708844e-002
4.300549e+002,5.717005e-002
4.319834e+002,5.680953e-002
4.339119e+002,5.706938e-002
4.358404e+002,5.736448e-002
4.377689e+002,5.812253e-002
4.396974e+002,5.856945e-002
4.416259e+002,5.848525e-002
4.435544e+002,5.814292e-002
4.454829e+002,5.739614e-002
4.474114e+002,5.704749e-002
4.493399e+002,5.691841e-002
4.512684e+002,5.727001e-002
4.531969e+002,5.817311e-002
4.551254e+002,5.767286e-002
4.570539e+002,5.782057e-002
4.589824e+002,5.839871e-002
4.609109e+002,5.789718e-002
4.628394e+002,5.832243e-002
4.647679e+002,5.729087e-002
4.666964e+002,5.649769e-002
4.686249e+002,5.614188e-002
4.705533e+002,5.540847e-002
4.724819e+002,5.520760e-002
4.744103e+002,5.535530e-002
4.763389e+002,5.436288e-002
4.782673e+002,5.476138e-002
4.801959e+002,5.492193e-002
4.821243e+002,5.420608e-002
4.840529e+002,5.344616e-002
4.859813e+002,5.285247e-002
4.879099e+002,5.336918e-002
4.898383e+002,5.359777e-002
4.917668e+002,5.310081e-002
4.936953e+002,5.283094e-002
4.956238e+002,5.232302e-002
4.975523e+002,5.189922e-002
4.994808e+002,5.158617e-002
5.014093e+002,5.176143e-002
5.033378e+002,5.220902e-002
5.052663e+002,5.217447e-002
5.071948e+002,5.221332e-002
5.091233e+002,5.250196e-002
5.110518e+002,5.260788e-002
5.129803e+002,5.255890e-002
5.149088e+002,5.279996e-002
5.168373e+002,5.335179e-002
5.187658e+002,5.384939e-002
5.206943e+002,5.431399e-002
5.226228e+002,5.404935e-002
5.245513e+002,5.390615e-002
5.264798e+002,5.391891e-002
5.284083e+002,5.389065e-002
5.303368e+002,5.409826e-002
5.322653e+002,5.433888e-002
5.341938e+002,5.411329e-002
5.361223e+002,5.367443e-002
5.380508e+002,5.351661e-002
5.399792e+002,5.315976e-002
5.419078e+002,5.335702e-002
5.438363e+002,5.359885e-002
5.457648e+002,5.314303e-002
5.476932e+002,5.315605e-002
5.496218e+002,5.371915e-002
5.515503e+002,5.397143e-002
5.534788e+002,5.427328e-002
5.554072e+002,5.483094e-002
5.573358e+002,5.507607e-002
5.592643e+002,5.517761e-002
5.611927e+002,5.473866e-002
5.631212e+002,5.436729e-002
5.650497e+002,5.422878e-002
5.669783e+002,5.371605e-002
5.689067e+002,5.301909e-002
5.708352e+002,5.291178e-002
5.727637e+002,5.287829e-002
5.746923e+002,5.295695e-002
5.766207e+002,5.271205e-002
5.785492e+002,5.213615e-002
5.804777e+002,5.210739e-002
5.824063e+002,5.216875e-002
5.843347e+002,5.212837e-002
5.862632e+002,5.214495e-002
5.881917e+002,5.200941e-002
5.901202e+002,5.191274e-002
5.920487e+002,5.184095e-002
5.939772e+002,5.161946e-002
5.959057e+002,5.156271e-002
5.978342e+002,5.134270e-002
5.997627e+002,5.106950e-002
6.016912e+002,5.105383e-002
6.036197e+002,5.093946e-002
6.055482e+002,5.087440e-002
6.074767e+002,5.077051e-002
6.094052e+002,5.065966e-002
6.113337e+002,5.037647e-002
6.132622e+002,4.970584e-002
6.151907e+002,4.929225e-002
6.171192e+002,4.914752e-002
6.190477e+002,4.877236e-002
6.209762e+002,4.824781e-002
6.229047e+002,4.746157e-002
6.248332e+002,4.659681e-002
6.267617e+002,4.607643e-002
6.286902e+002,4.574295e-002
6.306187e+002,4.550252e-002
6.325472e+002,4.508624e-002
6.344756e+002,4.448238e-002
6.364042e+002,4.417854e-002
6.383326e+002,4.410170e-002
6.402612e+002,4.384377e-002
6.421896e+002,4.359305e-002
6.441182e+002,4.331976e-002
6.460466e+002,4.303828e-002
6.479752e+002,4.271643e-002
6.499036e+002,4.273551e-002
6.518322e+002,4.259409e-002
6.537606e+002,4.250131e-002
6.556891e+002,4.238873e-002
6.576177e+002,4.236683e-002
6.595461e+002,4.239225e-002
6.614746e+002,4.282526e-002
6.634031e+002,4.321501e-002
6.653317e+002,4.325668e-002
6.672601e+002,4.285335e-002
6.691886e+002,4.252829e-002
6.711171e+002,4.208886e-002
6.730457e+002,4.150675e-002
6.749741e+002,4.040371e-002
6.769026e+002,3.920730e-002
6.788311e+002,3.831452e-002
6.807596e+002,3.761520e-002
6.826881e+002,3.681352e-002
6.846166e+002,3.612078e-002
6.865451e+002,3.592431e-002
6.884736e+002,3.561689e-002
6.904021e+002,3.511422e-002
6.923306e+002,3.492654e-002
6.942591e+002,3.489433e-002
6.961876e+002,3.492402e-002
6.981161e+002,3.464051e-002
7.000446e+002,3.429912e-002
7.019731e+002,3.411968e-002
7.039016e+002,3.406129e-002
7.058301e+002,3.382202e-002
7.077585e+002,3.348127e-002
7.096871e+002,3.321041e-002
7.116156e+002,3.312696e-002
7.135441e+002,3.305094e-002
7.154725e+002,3.274589e-002
7.174011e+002,3.260175e-002
7.193296e+002,3.254331e-002
7.212581e+002,3.224191e-002
7.231865e+002,3.179073e-002
7.251151e+002,3.164388e-002
7.270436e+002,3.141963e-002
7.289720e+002,3.107443e-002
7.309005e+002,3.066188e-002
7.328290e+002,3.036898e-002
7.347576e+002,3.017187e-002
7.366860e+002,3.005226e-002
7.386145e+002,2.990513e-002
7.405430e+002,2.959899e-002
7.424716e+002,2.935870e-002
7.444000e+002,2.915085e-002
7.463285e+002,2.883201e-002
7.482570e+002,2.852556e-002
7.501855e+002,2.828486e-002
7.521140e+002,2.816698e-002
7.540425e+002,2.811460e-002
7.559710e+002,2.776054e-002
7.578995e+002,2.745277e-002
7.598280e+002,2.736051e-002
7.617565e+002,2.722714e-002
7.636850e+002,2.705111e-002
7.656135e+002,2.693546e-002
7.675420e+002,2.683457e-002
7.694705e+002,2.670154e-002
7.713990e+002,2.648490e-002
7.733275e+002,2.632486e-002
7.752560e+002,2.636296e-002
7.771844e+002,2.636517e-002
7.791130e+002,2.616746e-002
7.810415e+002,2.611988e-002
7.829700e+002,2.608645e-002
7.848984e+002,2.592248e-002
7.868270e+002,2.579135e-002
7.887555e+002,2.563150e-002
7.906840e+002,2.554058e-002
7.926124e+002,2.534931e-002
7.945410e+002,2.537064e-002
7.964695e+002,2.535848e-002
7.983979e+002,2.531142e-002
8.003264e+002,2.525340e-002
8.022549e+002,2.523721e-002
8.041835e+002,2.513710e-002
8.061119e+002,2.504376e-002
8.080404e+002,2.502298e-002
8.099689e+002,2.494770e-002
8.118975e+002,2.481447e-002
8.138259e+002,2.467367e-002
8.157545e+002,2.465750e-002
8.176830e+002,2.445727e-002
8.196115e+002,2.422570e-002
8.215399e+002,2.411885e-002
8.234684e+002,2.397825e-002
8.253970e+002,2.393318e-002
8.273254e+002,2.387580e-002
8.292539e+002,2.374227e-002
8.311824e+002,2.374658e-002
8.331110e+002,2.371463e-002
8.350394e+002,2.359783e-002
8.369679e+002,2.351423e-002
8.388964e+002,2.339127e-002
8.408250e+002,2.323565e-002
8.427534e+002,2.309865e-002
8.446819e+002,2.297106e-002
8.466104e+002,2.294832e-002
8.485389e+002,2.302342e-002
8.504674e+002,2.288635e-002
8.523959e+002,2.275054e-002
8.543244e+002,2.279901e-002
8.562529e+002,2.284042e-002
8.581814e+002,2.283735e-002
8.601099e+002,2.293225e-002
8.620384e+002,2.297406e-002
8.639669e+002,2.301095e-002
8.658954e+002,2.310686e-002
8.678239e+002,2.318623e-002
8.697524e+002,2.342508e-002
8.716809e+002,2.363803e-002
8.736094e+002,2.387143e-002
8.755378e+002,2.409391e-002
8.774664e+002,2.441910e-002
8.793949e+002,2.470362e-002
8.813234e+002,2.501122e-002
8.832518e+002,2.546855e-002
8.851804e+002,2.597978e-002
8.871089e+002,2.662632e-002
8.890374e+002,2.736023e-002
8.909658e+002,2.816768e-002
8.928943e+002,2.885856e-002
8.948229e+002,2.922734e-002
8.967513e+002,2.948691e-002
8.986798e+002,2.958331e-002
9.006083e+002,2.935019e-002
9.025369e+002,2.897589e-002
9.044653e+002,2.853081e-002
9.063938e+002,2.806043e-002
9.083223e+002,2.774070e-002
9.102509e+002,2.755231e-002
9.121793e+002,2.732216e-002
9.141078e+002,2.710510e-002
9.160364e+002,2.707022e-002
9.179648e+002,2.708161e-002
9.198933e+002,2.727675e-002
9.218218e+002,2.740766e-002
9.237504e+002,2.753632e-002
9.256788e+002,2.782534e-002
9.276073e+002,2.820986e-002
9.295358e+002,2.855466e-002
9.314644e+002,2.889174e-002
9.333928e+002,2.932460e-002
9.353213e+002,2.979706e-002
9.372498e+002,3.030145e-002
9.391783e+002,3.100093e-002
9.411068e+002,3.182474e-002
9.430353e+002,3.272595e-002
9.449637e+002,3.366384e-002
9.468923e+002,3.467449e-002
9.488208e+002,3.566832e-002
9.507493e+002,3.675804e-002
9.526777e+002,3.777542e-002
9.546063e+002,3.891726e-002
9.565348e+002,4.002214e-002
9.584633e+002,4.106341e-002
9.603917e+002,4.209641e-002
9.623203e+002,4.313553e-002
9.642488e+002,4.409987e-002
9.661772e+002,4.498498e-002
9.681057e+002,4.583606e-002
9.700343e+002,4.683037e-002
9.719628e+002,4.784276e-002
9.738912e+002,4.895014e-002
9.758197e+002,5.026256e-002
9.777483e+002,5.182652e-002
9.796768e+002,5.357348e-002
9.816052e+002,5.565934e-002
9.835337e+002,5.788120e-002
9.854623e+002,6.008226e-002
9.873907e+002,6.214356e-002
9.893192e+002,6.383046e-002
9.912477e+002,6.497300e-002
9.931763e+002,6.567881e-002
9.951047e+002,6.604120e-002
9.970332e+002,6.652081e-002
9.989617e+002,6.739315e-002
1.000890e+003,6.862815e-002
1.002819e+003,7.000636e-002
1.004747e+003,7.144642e-002
1.006676e+003,7.286521e-002
1.008604e+003,7.415653e-002
1.010533e+003,7.529747e-002
1.012461e+003,7.653183e-002
1.014390e+003,7.783436e-002
1.016318e+003,7.925456e-002
1.018247e+003,8.074155e-002
1.020175e+003,8.222087e-002
1.022104e+003,8.365213e-002
1.024032e+003,8.504815e-002
1.025961e+003,8.644111e-002
1.027889e+003,8.789859e-002
1.029818e+003,8.923383e-002
1.031746e+003,9.033277e-002
1.033675e+003,9.117890e-002
1.035603e+003,9.161387e-002
1.037532e+003,9.149600e-002
1.039460e+003,9.084027e-002
1.041389e+003,8.983470e-002
1.043317e+003,8.888134e-002
1.045246e+003,8.808938e-002
1.047174e+003,8.742150e-002
1.049103e+003,8.680559e-002
1.051031e+003,8.623695e-002
1.052960e+003,8.561096e-002
1.054888e+003,8.482570e-002
1.056817e+003,8.366551e-002
1.058745e+003,8.240069e-002
1.060674e+003,8.120408e-002
1.062602e+003,7.999203e-002
1.064531e+003,7.857546e-002
1.066459e+003,7.712609e-002
1.068388e+003,7.562337e-002
1.070316e+003,7.410469e-002
1.072245e+003,7.254701e-002
1.074173e+003,7.100192e-002
1.076102e+003,6.945278e-002
1.078030e+003,6.780337e-002
1.079959e+003,6.608996e-002
1.081887e+003,6.442545e-002
1.083816e+003,6.299902e-002
1.085744e+003,6.206351e-002
1.087673e+003,6.144033e-002
1.089601e+003,6.101873e-002
1.091530e+003,6.066965e-002
1.093458e+003,6.033795e-002
1.095387e+003,6.001080e-002
1.097315e+003,5.980758e-002
1.099244e+003,5.974378e-002
1.101172e+003,5.966079e-002
1.103101e+003,5.934307e-002
1.105029e+003,5.870023e-002
1.106958e+003,5.772858e-002
1.108886e+003,5.646966e-002
1.110815e+003,5.498172e-002
1.112743e+003,5.321112e-002
1.114672e+003,5.136029e-002
1.116600e+003,4.969497e-002
1.118529e+003,4.819707e-002
1.120457e+003,4.687341e-002
1.122386e+003,4.557470e-002
1.124314e+003,4.416380e-002
1.126243e+003,4.273513e-002
1.128171e+003,4.142798e-002
1.130100e+003,4.010303e-002
1.132028e+003,3.882670e-002
1.133957e+003,3.771557e-002
1.135885e+003,3.678314e-002
1.137814e+003,3.606986e-002
1.139742e+003,3.570552e-002
1.141671e+003,3.560879e-002
1.143599e+003,3.571181e-002
1.145528e+003,3.601183e-002
1.147456e+003,3.642025e-002
1.149385e+003,3.684993e-002
1.151313e+003,3.736107e-002
1.153242e+003,3.789373e-002
1.155170e+003,3.832209e-002
1.157099e+003,3.868897e-002
1.159027e+003,3.884681e-002
1.160956e+003,3.872092e-002
1.162884e+003,3.829238e-002
1.164813e+003,3.752305e-002
1.166741e+003,3.641571e-002
1.168670e+003,3.500227e-002
1.170598e+003,3.336633e-002
1.172526e+003,3.168436e-002
1.174455e+003,3.000063e-002
1.176384e+003,2.840731e-002
1.178312e+003,2.706659e-002
1.180240e+003,2.593458e-002
1.182169e+003,2.498079e-002
1.184098e+003,2.424265e-002
1.186026e+003,2.366759e-002
1.187954e+003,2.334307e-002
1.189883e+003,2.321838e-002
1.191812e+003,2.321773e-002
1.193740e+003,2.342130e-002
1.195668e+003,2.372471e-002
1.197597e+003,2.402243e-002
1.199526e+003,2.430743e-002
1.201454e+003,2.444928e-002
1.203382e+003,2.435673e-002
1.205311e+003,2.410201e-002
1.207240e+003,2.384013e-002
1.209168e+003,2.360640e-002
1.211096e+003,2.348538e-002
1.213025e+003,2.345173e-002
1.214953e+003,2.354878e-002
1.216882e+003,2.375206e-002
1.218810e+003,2.406323e-002
1.220739e+003,2.443824e-002
1.222667e+003,2.481974e-002
1.224596e+003,2.528155e-002
1.226524e+003,2.577661e-002
1.228453e+003,2.623952e-002
1.230381e+003,2.661943e-002
1.232310e+003,2.687475e-002
1.234238e+003,2.707688e-002
1.236167e+003,2.721913e-002
1.238095e+003,2.724514e-002
1.240024e+003,2.727270e-002
1.241952e+003,2.726356e-002
1.243881e+003,2.719298e-002
1.245809e+003,2.708590e-002
1.247738e+003,2.689332e-002
1.249666e+003,2.666059e-002
1.251595e+003,2.641644e-002
1.253523e+003,2.611755e-002
1.255452e+003,2.579531e-002
1.257380e+003,2.547881e-002
1.259309e+003,2.509312e-002
1.261237e+003,2.467030e-002
1.263166e+003,2.432192e-002
1.265094e+003,2.392081e-002
1.267023e+003,2.349534e-002
1.268951e+003,2.304929e-002
1.270880e+003,2.266694e-002
1.272808e+003,2.230944e-002
1.274737e+003,2.193083e-002
1.276665e+003,2.162901e-002
1.278594e+003,2.143597e-002
1.280522e+003,2.129638e-002
1.282451e+003,2.113879e-002
1.284379e+003,2.099947e-002
1.286308e+003,2.083181e-002
1.288236e+003,2.067120e-002
1.290165e+003,2.062452e-002
1.292093e+003,2.069139e-002
1.294022e+003,2.084651e-002
1.295950e+003,2.100960e-002
1.297879e+003,2.125455e-002
1.299807e+003,2.152179e-002
1.301736e+003,2.185796e-002
1.303664e+003,2.227089e-002
1.305593e+003,2.271590e-002
1.307521e+003,2.312399e-002
1.309450e+003,2.351550e-002
1.311378e+003,2.390105e-002
1.313307e+003,2.425964e-002
1.315235e+003,2.450961e-002
1.317164e+003,2.459630e-002
1.319092e+003,2.453452e-002
1.321021e+003,2.437158e-002
1.322949e+003,2.413383e-002
1.324878e+003,2.389139e-002
1.326806e+003,2.366799e-002
1.328735e+003,2.350340e-002
1.330663e+003,2.342586e-002
1.332592e+003,2.335055e-002
1.334520e+003,2.330922e-002
1.336449e+003,2.317219e-002
1.338377e+003,2.297874e-002
1.340306e+003,2.276232e-002
1.342234e+003,2.258190e-002
1.344163e+003,2.247155e-002
1.346091e+003,2.248868e-002
1.348020e+003,2.256729e-002
1.349948e+003,2.269856e-002
1.351877e+003,2.288853e-002
1.353805e+003,2.311846e-002
1.355734e+003,2.335470e-002
1.357662e+003,2.363949e-002
1.359591e+003,2.394115e-002
1.361519e+003,2.424016e-002
1.363448e+003,2.455041e-002
1.365376e+003,2.480756e-002
1.367305e+003,2.502012e-002
1.369233e+003,2.505498e-002
1.371162e+003,2.495748e-002
1.373090e+003,2.472021e-002
1.375019e+003,2.441058e-002
1.376947e+003,2.409407e-002
1.378876e+003,2.369091e-002
1.380804e+003,2.322723e-002
1.382733e+003,2.276125e-002
1.384661e+003,2.229773e-002
1.386590e+003,2.190358e-002
1.388518e+003,2.158767e-002
1.390447e+003,2.136560e-002
1.392375e+003,2.125673e-002
1.394304e+003,2.113058e-002
1.396232e+003,2.109156e-002
1.398161e+003,2.114372e-002
1.400089e+003,2.118366e-002
1.402018e+003,2.122477e-002
1.403946e+003,2.129680e-002
1.405875e+003,2.141768e-002
1.407803e+003,2.151940e-002
1.409732e+003,2.163770e-002
1.411660e+003,2.179036e-002
1.413589e+003,2.191392e-002
1.415517e+003,2.200899e-002
1.417446e+003,2.209877e-002
1.419374e+003,2.213010e-002
1.421303e+003,2.215466e-002
1.423231e+003,2.210770e-002
1.425160e+003,2.202727e-002
1.427088e+003,2.193879e-002
1.429017e+003,2.182521e-002
1.430945e+003,2.165223e-002
1.432874e+003,2.143393e-002
1.434802e+003,2.117676e-002
1.436731e+003,2.089903e-002
1.438659e+003,2.065504e-002
1.440588e+003,2.040072e-002
1.442516e+003,2.013239e-002
1.444445e+003,1.993301e-002
1.446373e+003,1.977530e-002
1.448302e+003,1.961204e-002
1.450230e+003,1.940753e-002
1.452159e+003,1.926204e-002
1.454087e+003,1.910321e-002
1.456016e+003,1.892373e-002
1.457944e+003,1.869002e-002
1.459873e+003,1.853086e-002
1.461801e+003,1.837890e-002
1.463730e+003,1.819985e-002
1.465658e+003,1.794633e-002
1.467587e+003,1.750808e-002
1.469515e+003,1.690660e-002
1.471444e+003,1.628114e-002
1.473372e+003,1.568625e-002
1.475301e+003,1.518621e-002
1.477229e+003,1.476858e-002
1.479158e+003,1.444243e-002
1.481086e+003,1.419667e-002
1.483015e+003,1.401257e-002
1.484943e+003,1.393571e-002
1.486872e+003,1.392813e-002
1.488800e+003,1.394340e-002
1.490729e+003,1.401125e-002
1.492657e+003,1.412649e-002
1.494586e+003,1.427127e-002
1.496514e+003,1.439664e-002
1.498443e+003,1.450107e-002
1.500371e+003,1.461872e-002
1.502300e+003,1.473771e-002
1.504228e+003,1.488442e-002
1.506157e+003,1.501837e-002
1.508085e+003,1.517795e-002
1.510014e+003,1.530972e-002
1.511942e+003,1.548358e-002
1.513871e+003,1.565629e-002
1.515799e+003,1.574129e-002
1.517728e+003,1.568566e-002
1.519656e+003,1.554687e-002
1.521585e+003,1.541217e-002
1.523513e+003,1.528899e-002
1.525442e+003,1.522597e-002
1.527370e+003,1.520232e-002
1.529299e+003,1.517647e-002
1.531227e+003,1.515555e-002
1.533156e+003,1.513965e-002
1.535084e+003,1.512887e-002
1.537013e+003,1.511824e-002
1.538941e+003,1.515499e-002
1.540870e+003,1.516869e-002
1.542798e+003,1.514369e-002
1.544727e+003,1.513517e-002
1.546655e+003,1.514452e-002
1.548584e+003,1.515239e-002
1.550512e+003,1.509280e-002
1.552441e+003,1.508543e-002
1.554369e+003,1.510331e-002
1.556298e+003,1.513236e-002
1.558226e+003,1.514269e-002
1.560155e+003,1.518354e-002
1.562083e+003,1.521795e-002
1.564012e+003,1.528348e-002
1.565940e+003,1.543182e-002
1.567869e+003,1.555547e-002
1.569797e+003,1.570464e-002
1.571726e+003,1.591834e-002
1.573654e+003,1.613949e-002
1.575583e+003,1.640162e-002
1.577511e+003,1.670397e-002
1.579440e+003,1.704439e-002
1.581368e+003,1.743831e-002
1.583297e+003,1.782038e-002
1.585225e+003,1.824209e-002
1.587154e+003,1.868918e-002
1.589082e+003,1.910984e-002
1.591010e+003,1.950599e-002
1.592939e+003,1.985105e-002
1.594868e+003,2.011439e-002
1.596796e+003,2.040267e-002
1.598724e+003,2.064142e-002
1.600653e+003,2.080451e-002
1.602582e+003,2.093882e-002
1.604510e+003,2.104987e-002
1.606438e+003,2.107987e-002
1.608367e+003,2.103872e-002
1.610296e+003,2.103124e-002
1.612224e+003,2.107366e-002
1.614152e+003,2.112967e-002
1.616081e+003,2.120512e-002
1.618010e+003,2.128504e-002
1.619938e+003,2.132261e-002
1.621866e+003,2.137412e-002
1.623795e+003,2.141320e-002
1.625724e+003,2.136151e-002
1.627652e+003,2.126341e-002
1.629580e+003,2.116612e-002
1.631509e+003,2.099751e-002
1.633438e+003,2.081869e-002
1.635366e+003,2.059170e-002
1.637294e+003,2.037100e-002
1.639223e+003,2.014322e-002
1.641151e+003,1.998933e-002
1.643080e+003,1.990246e-002
1.645008e+003,1.976898e-002
1.646937e+003,1.960110e-002
1.648865e+003,1.948085e-002
1.650794e+003,1.934017e-002
1.652722e+003,1.918855e-002
1.654651e+003,1.903728e-002
1.656579e+003,1.879248e-002
1.658508e+003,1.850216e-002
1.660436e+003,1.823477e-002
1.662365e+003,1.792446e-002
1.664293e+003,1.754273e-002
1.666222e+003,1.720811e-002
1.668150e+003,1.691984e-002
1.670079e+003,1.663303e-002
1.672007e+003,1.637771e-002
1.673936e+003,1.611646e-002
1.675864e+003,1.588662e-002
1.677793e+003,1.565703e-002
1.679721e+003,1.544735e-002
1.681650e+003,1.523862e-002
1.683578e+003,1.506101e-002
1.685507e+003,1.493646e-002
1.687435e+003,1.479594e-002
1.689364e+003,1.471743e-002
1.691292e+003,1.462218e-002
1.693221e+003,1.453769e-002
1.695149e+003,1.443221e-002
1.697078e+003,1.434206e-002
1.699006e+003,1.421865e-002
1.700935e+003,1.408978e-002
1.702863e+003,1.404286e-002
1.704792e+003,1.404301e-002
1.706720e+003,1.402699e-002
1.708649e+003,1.404462e-002
1.710577e+003,1.418848e-002
1.712506e+003,1.429535e-002
1.714434e+003,1.438249e-002
1.716363e+003,1.453664e-002
1.718291e+003,1.470398e-002
1.720220e+003,1.491398e-002
1.722148e+003,1.513889e-002
1.724077e+003,1.546468e-002
1.726005e+003,1.580062e-002
1.727934e+003,1.603626e-002
1.729862e+003,1.618636e-002
1.731791e+003,1.621122e-002
1.733719e+003,1.607941e-002
1.735648e+003,1.579092e-002
1.737576e+003,1.537459e-002
1.739505e+003,1.481150e-002
1.741433e+003,1.414452e-002
1.743362e+003,1.354007e-002
1.745290e+003,1.300085e-002
1.747219e+003,1.252884e-002
1.749147e+003,1.209902e-002
1.751076e+003,1.170456e-002
1.753004e+003,1.142532e-002
1.754933e+003,1.118134e-002
1.756861e+003,1.094290e-002
1.758790e+003,1.069823e-002
1.760718e+003,1.050012e-002
1.762647e+003,1.030546e-002
1.764575e+003,1.011467e-002
1.766504e+003,9.970429e-003
1.768432e+003,9.827402e-003
1.770361e+003,9.741682e-003
1.772289e+003,9.738253e-003
1.774218e+003,9.730200e-003
1.776146e+003,9.614137e-003
1.778075e+003,9.506153e-003
1.780003e+003,9.508037e-003
1.781932e+003,9.510113e-003
1.783860e+003,9.568949e-003
1.785789e+003,9.610377e-003
1.787717e+003,9.540760e-003
1.789646e+003,9.441763e-003
1.791574e+003,9.414971e-003
1.793503e+003,9.478635e-003
1.795431e+003,9.486905e-003
1.797360e+003,9.446371e-003
1.799288e+003,9.412328e-003
1.801217e+003,9.403871e-003
1.803145e+003,9.401129e-003
1.805074e+003,9.369949e-003
1.807002e+003,9.385163e-003
1.808931e+003,9.441635e-003
1.810859e+003,9.400707e-003
1.812788e+003,9.393096e-003
1.814716e+003,9.385215e-003
1.816645e+003,9.402906e-003
1.818573e+003,9.407335e-003
1.820502e+003,9.360279e-003
1.822430e+003,9.326726e-003
1.824359e+003,9.309003e-003
1.826287e+003,9.317688e-003
1.828216e+003,9.399836e-003
1.830144e+003,9.444476e-003
1.832073e+003,9.446840e-003
1.834001e+003,9.318004e-003
1.835930e+003,9.307703e-003
1.837858e+003,9.359824e-003
1.839787e+003,9.309907e-003
1.841715e+003,9.246035e-003
1.843644e+003,9.180440e-003
1.845572e+003,9.293056e-003
1.847501e+003,9.357703e-003
1.849429e+003,9.390232e-003
1.851358e+003,9.463651e-003
1.853286e+003,9.347714e-003
1.855215e+003,9.362174e-003
1.857143e+003,9.489404e-003
1.859072e+003,9.344479e-003
1.861000e+003,9.319686e-003
1.862929e+003,9.364669e-003
1.864857e+003,9.381681e-003
1.866786e+003,9.488977e-003
1.868714e+003,9.366237e-003
1.870643e+003,9.291370e-003
1.872571e+003,9.448929e-003
1.874500e+003,9.548594e-003
1.876428e+003,9.522541e-003
1.878357e+003,9.443402e-003
1.880285e+003,9.387824e-003
1.882214e+003,9.357757e-003
1.884142e+003,9.417566e-003
1.886071e+003,9.425247e-003
1.887999e+003,9.432788e-003
1.889928e+003,9.317174e-003
1.891856e+003,9.139019e-003
1.893785e+003,9.263034e-003
1.895713e+003,9.341612e-003
1.897642e+003,9.148804e-003
1.899570e+003,9.038314e-003
1.901499e+003,9.017580e-003
1.903427e+003,9.151022e-003
1.905356e+003,9.325635e-003
1.907284e+003,9.192777e-003
1.909213e+003,9.138766e-003
1.911141e+003,8.968340e-003
1.913070e+003,8.924851e-003
1.914998e+003,8.978640e-003
1.916927e+003,9.063331e-003
1.918855e+003,9.051089e-003
1.920784e+003,9.009120e-003
1.922712e+003,9.047423e-003
1.924641e+003,8.760653e-003
1.926569e+003,8.277544e-003
1.928498e+003,8.283985e-003
1.930426e+003,8.674006e-003
1.932355e+003,8.791022e-003
1.934283e+003,8.732778e-003
1.936212e+003,8.323802e-003
1.938140e+003,8.059249e-003
1.940069e+003,8.124735e-003
1.941997e+003,8.255063e-003
1.943926e+003,8.378631e-003
1.945854e+003,8.342683e-003
1.947783e+003,8.166402e-003
1.949711e+003,8.176845e-003
1.951640e+003,8.241556e-003
1.953568e+003,8.405853e-003
1.955497e+003,7.902143e-003
1.957425e+003,7.070694e-003
1.959354e+003,6.990254e-003
1.961282e+003,7.462283e-003
1.963211e+003,7.108395e-003
1.965139e+003,6.463419e-003
1.967068e+003,5.922486e-003
1.968996e+003,5.803336e-003
1.970925e+003,5.751020e-003
1.972853e+003,6.050144e-003
1.974782e+003,5.249185e-003
1.976710e+003,5.130838e-003
1.978639e+003,5.966821e-003
1.980567e+003,5.756394e-003
1.982496e+003,6.228571e-003
1.984424e+003,6.502619e-003
1.986353e+003,6.394087e-003
1.988281e+003,6.204981e-003
1.990210e+003,6.203526e-003
1.992138e+003,6.365181e-003
1.994067e+003,6.114745e-003
1.995995e+003,5.316912e-003
1.997924e+003,4.472543e-003
1.999852e+003,5.203743e-003
2.001781e+003,5.286539e-003
2.003709e+003,4.744025e-003
2.005638e+003,4.164624e-003
2.007566e+003,4.600739e-003
2.009495e+003,4.714725e-003
2.011423e+003,3.764150e-003
2.013352e+003,2.928802e-003
2.015280e+003,2.744516e-003
2.017208e+003,3.639256e-003
2.019137e+003,3.357544e-003
2.021066e+003,2.505506e-003
2.022994e+003,2.541209e-003
2.024922e+003,3.250127e-003
2.026851e+003,2.828595e-003
2.028780e+003,2.100353e-003
2.030708e+003,1.730001e-003
2.032636e+003,2.455089e-003
2.034565e+003,2.558606e-003
2.036494e+003,3.374726e-003
2.038422e+003,3.771333e-003
2.040350e+003,2.925340e-003
2.042279e+003,3.552695e-003
2.044208e+003,4.226100e-003
2.046136e+003,4.495104e-003
2.048064e+003,4.873137e-003
2.049993e+003,4.759961e-003
2.051921e+003,5.063057e-003
2.053850e+003,5.985462e-003
2.055778e+003,6.453071e-003
2.057707e+003,6.285032e-003
2.059635e+003,6.059228e-003
2.061564e+003,6.218738e-003
2.063492e+003,6.563522e-003
2.065421e+003,6.502005e-003
2.067349e+003,6.445383e-003
2.069278e+003,6.619757e-003
2.071206e+003,6.759380e-003
2.073135e+003,6.444208e-003
2.075063e+003,6.292888e-003
2.076992e+003,6.906800e-003
2.078920e+003,7.379000e-003
2.080849e+003,7.077590e-003
2.082777e+003,7.046675e-003
2.084706e+003,7.191039e-003
2.086634e+003,7.136407e-003
2.088563e+003,7.139795e-003
2.090491e+003,7.042509e-003
2.092420e+003,6.912570e-003
2.094348e+003,7.041497e-003
2.096277e+003,7.141823e-003
2.098205e+003,7.469390e-003
2.100134e+003,7.765724e-003
2.102062e+003,7.781174e-003
2.103991e+003,7.485200e-003
2.105919e+003,7.464840e-003
2.107848e+003,7.335384e-003
2.109776e+003,7.314795e-003
2.111705e+003,7.611631e-003
2.113633e+003,7.495785e-003
2.115562e+003,7.548208e-003
2.117490e+003,7.975216e-003
2.119419e+003,7.957600e-003
2.121347e+003,7.791024e-003
2.123276e+003,7.686226e-003
2.125204e+003,7.414111e-003
2.127133e+003,7.297543e-003
2.129061e+003,7.024392e-003
2.130990e+003,6.729505e-003
2.132918e+003,6.197868e-003
2.134847e+003,5.662719e-003
2.136775e+003,5.476015e-003
2.138704e+003,5.415622e-003
2.140632e+003,4.680329e-003
2.142561e+003,4.480254e-003
2.144489e+003,4.676310e-003
2.146418e+003,3.843843e-003
2.148346e+003,3.280268e-003
2.150275e+003,2.985376e-003
2.152203e+003,1.654881e-003
2.154132e+003,5.645732e-004
2.156060e+003,5.648055e-004
2.157989e+003,-7.970034e-004
2.159917e+003,-8.841428e-004
2.161846e+003,4.901633e-004
2.163774e+003,9.345564e-004
2.165703e+003,1.235003e-003
2.167631e+003,2.579943e-003
2.169560e+003,3.364407e-003
2.171488e+003,3.147448e-003
2.173417e+003,2.976101e-003
2.175345e+003,3.429459e-003
2.177274e+003,4.624332e-003
2.179202e+003,3.834750e-003
2.181131e+003,3.601920e-003
2.183059e+003,3.156593e-003
2.184988e+003,3.844143e-003
2.186916e+003,4.956768e-003
2.188845e+003,5.721401e-003
2.190773e+003,5.493263e-003
2.192702e+003,5.388011e-003
2.194630e+003,5.220104e-003
2.196559e+003,5.077035e-003
2.198487e+003,5.939919e-003
2.200416e+003,6.603667e-003
2.202344e+003,6.131829e-003
2.204273e+003,6.244421e-003
2.206201e+003,6.516980e-003
2.208130e+003,6.399005e-003
2.210058e+003,6.617258e-003
2.211987e+003,7.360254e-003
2.213915e+003,7.129232e-003
2.215844e+003,6.668365e-003
2.217772e+003,6.544663e-003
2.219701e+003,6.659684e-003
2.221629e+003,6.960718e-003
2.223558e+003,7.461907e-003
2.225486e+003,7.673882e-003
2.227415e+003,7.583880e-003
2.229343e+003,7.589848e-003
2.231272e+003,7.801998e-003
2.233200e+003,7.715687e-003
2.235129e+003,7.817630e-003
2.237057e+003,7.971478e-003
2.238986e+003,8.420947e-003
2.240914e+003,9.273920e-003
2.242843e+003,9.125812e-003
2.244771e+003,8.544557e-003
2.246700e+003,8.819344e-003
2.248628e+003,9.088536e-003
2.250557e+003,8.968914e-003
2.252485e+003,8.982552e-003
2.254414e+003,9.224011e-003
2.256342e+003,9.337996e-003
2.258271e+003,9.390497e-003
2.260199e+003,9.321900e-003
2.262128e+003,9.399629e-003
2.264056e+003,9.504611e-003
2.265985e+003,9.552552e-003
2.267913e+003,9.587767e-003
2.269842e+003,9.761168e-003
2.271770e+003,9.838532e-003
2.273699e+003,9.805660e-003
2.275627e+003,1.002801e-002
2.277556e+003,1.011146e-002
2.279484e+003,9.960200e-003
2.281413e+003,9.852407e-003
2.283341e+003,9.891733e-003
2.285270e+003,9.951751e-003
2.287198e+003,9.974888e-003
2.289127e+003,9.961978e-003
2.291055e+003,1.004668e-002
2.292984e+003,1.014864e-002
2.294912e+003,1.027134e-002
2.296841e+003,1.033026e-002
2.298769e+003,1.041215e-002
2.300698e+003,1.039158e-002
2.302626e+003,1.026817e-002
2.304555e+003,1.033170e-002
2.306483e+003,1.027356e-002
2.308412e+003,1.037914e-002
2.310340e+003,1.038567e-002
2.312269e+003,1.025346e-002
2.314197e+003,1.040969e-002
2.316125e+003,1.057149e-002
2.318054e+003,1.040555e-002
2.319983e+003,1.030623e-002
2.321911e+003,1.016513e-002
2.323840e+003,1.026895e-002
2.325768e+003,1.057270e-002
2.327697e+003,1.056722e-002
2.329625e+003,1.056107e-002
2.331553e+003,1.093007e-002
2.333482e+003,1.091365e-002
2.335411e+003,1.087505e-002
2.337339e+003,1.085645e-002
2.339268e+003,1.100308e-002
2.341196e+003,1.082025e-002
2.343125e+003,1.083853e-002
2.345053e+003,1.096353e-002
2.346981e+003,1.108530e-002
2.348910e+003,1.099109e-002
2.350839e+003,1.121905e-002
2.352767e+003,1.118795e-002
2.354696e+003,1.094659e-002
2.356624e+003,1.078982e-002
2.358552e+003,1.093101e-002
2.360481e+003,1.116364e-002
2.362409e+003,1.134565e-002
2.364338e+003,1.087511e-002
2.366267e+003,1.093896e-002
2.368195e+003,1.106783e-002
2.370124e+003,1.087302e-002
2.372052e+003,1.075501e-002
2.373980e+003,1.091815e-002
2.375909e+003,1.088651e-002
2.377838e+003,1.084391e-002
2.379766e+003,1.093456e-002
2.381695e+003,1.085818e-002
2.383623e+003,1.086922e-002
2.385552e+003,1.078656e-002
2.387480e+003,1.068863e-002
2.389408e+003,1.061220e-002
2.391337e+003,1.065695e-002
2.393266e+003,1.075582e-002
2.395194e+003,1.074230e-002
2.397123e+003,1.065321e-002
2.399051e+003,1.061334e-002
2.400979e+003,1.055016e-002
2.402908e+003,1.058309e-002
2.404836e+003,1.047052e-002
2.406765e+003,1.039239e-002
2.408694e+003,1.054435e-002
2.410622e+003,1.063663e-002
2.412551e+003,1.049757e-002
2.414479e+003,1.037138e-002
2.416407e+003,1.035533e-002
2.418336e+003,1.037674e-002
2.420264e+003,1.038998e-002
2.422193e+003,1.036911e-002
2.424122e+003,1.027807e-002
2.426050e+003,1.018984e-002
2.427979e+003,1.028035e-002
2.429907e+003,1.037271e-002
2.431835e+003,1.036925e-002
2.433764e+003,1.039629e-002
2.435692e+003,1.041699e-002
2.437621e+003,1.031217e-002
2.439550e+003,1.035526e-002
2.441478e+003,1.051275e-002
2.443406e+003,1.053114e-002
2.445335e+003,1.056309e-002
2.447263e+003,1.060128e-002
2.449192e+003,1.057735e-002
2.451121e+003,1.056730e-002
2.453049e+003,1.059921e-002
2.454978e+003,1.048997e-002
2.456906e+003,1.042083e-002
2.458834e+003,1.035666e-002
2.460763e+003,1.034471e-002
2.462691e+003,1.042090e-002
2.464620e+003,1.043196e-002
2.466549e+003,1.051078e-002
2.468477e+003,1.054683e-002
2.470406e+003,1.055100e-002
2.472334e+003,1.057983e-002
2.474262e+003,1.067853e-002
2.476191e+003,1.066560e-002
2.478119e+003,1.059524e-002
2.480048e+003,1.057212e-002
2.481977e+003,1.047996e-002
2.483905e+003,1.050837e-002
2.485833e+003,1.059786e-002
2.487762e+003,1.053406e-002
2.489690e+003,1.053610e-002
2.491619e+003,1.058950e-002
2.493547e+003,1.074534e-002
2.495476e+003,1.074877e-002
2.497405e+003,1.068529e-002
2.499333e+003,1.068156e-002
2.501261e+003,1.074092e-002
2.503190e+003,1.078450e-002
2.505118e+003,1.087992e-002
2.507047e+003,1.091692e-002
2.508975e+003,1.098505e-002
2.510904e+003,1.091427e-002
2.512833e+003,1.078593e-002
2.514761e+003,1.074279e-002
2.516689e+003,1.091488e-002
2.518618e+003,1.106125e-002
2.520546e+003,1.106767e-002
2.522475e+003,1.102726e-002
2.524403e+003,1.104572e-002
2.526332e+003,1.102359e-002
2.528260e+003,1.093242e-002
2.530189e+003,1.110156e-002
2.532117e+003,1.120226e-002
2.534046e+003,1.118029e-002
2.535974e+003,1.118121e-002
2.537903e+003,1.125687e-002
2.539831e+003,1.123704e-002
2.541760e+003,1.130413e-002
2.543688e+003,1.131661e-002
2.545617e+003,1.132097e-002
2.547545e+003,1.134678e-002
2.549474e+003,1.137981e-002
2.551402e+003,1.139267e-002
2.553331e+003,1.156440e-002
2.555259e+003,1.155678e-002
2.557188e+003,1.150044e-002
2.559116e+003,1.164492e-002
2.561045e+003,1.151064e-002
2.562973e+003,1.157390e-002
2.564902e+003,1.168856e-002
2.566830e+003,1.176011e-002
2.568759e+003,1.176971e-002
2.570687e+003,1.162978e-002
2.572616e+003,1.146278e-002
2.574544e+003,1.161821e-002
2.576473e+003,1.176644e-002
2.578401e+003,1.172832e-002
2.580330e+003,1.172501e-002
2.582258e+003,1.171868e-002
2.584187e+003,1.170619e-002
2.586115e+003,1.175391e-002
2.588044e+003,1.178609e-002
2.589972e+003,1.179909e-002
2.591901e+003,1.178973e-002
2.593829e+003,1.181438e-002
2.595758e+003,1.188640e-002
2.597686e+003,1.186430e-002
2.599615e+003,1.179851e-002
2.601543e+003,1.188241e-002
2.603472e+003,1.198894e-002
2.605400e+003,1.198366e-002
2.607329e+003,1.199790e-002
2.609257e+003,1.201262e-002
2.611186e+003,1.197031e-002
2.613114e+003,1.201953e-002
2.615043e+003,1.207407e-002
2.616971e+003,1.218457e-002
2.618900e+003,1.216617e-002
2.620828e+003,1.217104e-002
2.622757e+003,1.226817e-002
2.624685e+003,1.235001e-002
2.626614e+003,1.226408e-002
2.628542e+003,1.221350e-002
2.630471e+003,1.229288e-002
2.632399e+003,1.237837e-002
2.634328e+003,1.246303e-002
2.636256e+003,1.245812e-002
2.638185e+003,1.245669e-002
2.640113e+003,1.248298e-002
2.642042e+003,1.251053e-002
2.643970e+003,1.253352e-002
2.645899e+003,1.254631e-002
2.647827e+003,1.255726e-002
2.649756e+003,1.260753e-002
2.651684e+003,1.261981e-002
2.653613e+003,1.261753e-002
2.655541e+003,1.259256e-002
2.657470e+003,1.263595e-002
2.659398e+003,1.269746e-002
2.661327e+003,1.273594e-002
2.663255e+003,1.276358e-002
2.665184e+003,1.272192e-002
2.667112e+003,1.269735e-002
2.669041e+003,1.273458e-002
2.670969e+003,1.276819e-002
2.672898e+003,1.275501e-002
2.674826e+003,1.275416e-002
2.676755e+003,1.276982e-002
2.678683e+003,1.276184e-002
2.680612e+003,1.277825e-002
2.682540e+003,1.276812e-002
2.684469e+003,1.281265e-002
2.686397e+003,1.286572e-002
2.688326e+003,1.284941e-002
2.690254e+003,1.283842e-002
2.692183e+003,1.289142e-002
2.694111e+003,1.288548e-002
2.696040e+003,1.285961e-002
2.697968e+003,1.287633e-002
2.699897e+003,1.293306e-002
2.701825e+003,1.297792e-002
2.703754e+003,1.295337e-002
2.705682e+003,1.296024e-002
2.707611e+003,1.297990e-002
2.709539e+003,1.297256e-002
2.711468e+003,1.295563e-002
2.713396e+003,1.304730e-002
2.715325e+003,1.308335e-002
2.717253e+003,1.303504e-002
2.719182e+003,1.303408e-002
2.721110e+003,1.304678e-002
2.723039e+003,1.307786e-002
2.724967e+003,1.309507e-002
2.726896e+003,1.309961e-002
2.728824e+003,1.310231e-002
2.730753e+003,1.312819e-002
2.732681e+003,1.314933e-002
2.734610e+003,1.315463e-002
2.736538e+003,1.319705e-002
2.738467e+003,1.317980e-002
2.740395e+003,1.317293e-002
2.742324e+003,1.322782e-002
2.744252e+003,1.328764e-002
2.746181e+003,1.327015e-002
2.748109e+003,1.326659e-002
2.750038e+003,1.330089e-002
2.751966e+003,1.330769e-002
2.753895e+003,1.335734e-002
2.755823e+003,1.342424e-002
2.757752e+003,1.343023e-002
2.759680e+003,1.343313e-002
2.761609e+003,1.346317e-002
2.763537e+003,1.349420e-002
2.765466e+003,1.347178e-002
2.767394e+003,1.346727e-002
2.769323e+003,1.351943e-002
2.771251e+003,1.356807e-002
2.773180e+003,1.358609e-002
2.775108e+003,1.361194e-002
2.777037e+003,1.364254e-002
2.778965e+003,1.365799e-002
2.780894e+003,1.372330e-002
2.782822e+003,1.375631e-002
2.784750e+003,1.378107e-002
2.786679e+003,1.381517e-002
2.788608e+003,1.390137e-002
2.790536e+003,1.388916e-002
2.792465e+003,1.386631e-002
2.794393e+003,1.392885e-002
2.796322e+003,1.392368e-002
2.798250e+003,1.398780e-002
2.800178e+003,1.406189e-002
2.802107e+003,1.409728e-002
2.804036e+003,1.412422e-002
2.805964e+003,1.413486e-002
2.807893e+003,1.421600e-002
2.809821e+003,1.429581e-002
2.811750e+003,1.435447e-002
2.813678e+003,1.440081e-002
2.815606e+003,1.445332e-002
2.817535e+003,1.450145e-002
2.819464e+003,1.455432e-002
2.821392e+003,1.460297e-002
2.823321e+003,1.467720e-002
2.825249e+003,1.477873e-002
2.827177e+003,1.486252e-002
2.829106e+003,1.494695e-002
2.831034e+003,1.503866e-002
2.832963e+003,1.518042e-002
2.834892e+003,1.530399e-002
2.836820e+003,1.538572e-002
2.838749e+003,1.557001e-002
2.840677e+003,1.578086e-002
2.842605e+003,1.598614e-002
2.844534e+003,1.623661e-002
2.846462e+003,1.656326e-002
2.848391e+003,1.684364e-002
2.850320e+003,1.704536e-002
2.852248e+003,1.712684e-002
2.854177e+003,1.713642e-002
2.856105e+003,1.711477e-002
2.858033e+003,1.714069e-002
2.859962e+003,1.715117e-002
2.861890e+003,1.714869e-002
2.863819e+003,1.715486e-002
2.865748e+003,1.718068e-002
2.867676e+003,1.724111e-002
2.869604e+003,1.728134e-002
2.871533e+003,1.732151e-002
2.873461e+003,1.741811e-002
2.875390e+003,1.741949e-002
2.877319e+003,1.747647e-002
2.879247e+003,1.752273e-002
2.881176e+003,1.757638e-002
2.883104e+003,1.763134e-002
2.885032e+003,1.767382e-002
2.886961e+003,1.777260e-002
2.888889e+003,1.782666e-002
2.890818e+003,1.782811e-002
2.892747e+003,1.791146e-002
2.894675e+003,1.800905e-002
2.896604e+003,1.803284e-002
2.898532e+003,1.805661e-002
2.900460e+003,1.811581e-002
2.902389e+003,1.818101e-002
2.904317e+003,1.817493e-002
2.906246e+003,1.818588e-002
2.908175e+003,1.818114e-002
2.910103e+003,1.830178e-002
2.912031e+003,1.844246e-002
2.913960e+003,1.852098e-002
2.915888e+003,1.864897e-002
2.917817e+003,1.872023e-002
2.919745e+003,1.859166e-002
2.921674e+003,1.850635e-002
2.923603e+003,1.844789e-002
2.925531e+003,1.828609e-002
2.927459e+003,1.812307e-002
2.929388e+003,1.801443e-002
2.931316e+003,1.787424e-002
2.933245e+003,1.779273e-002
2.935173e+003,1.770338e-002
2.937102e+003,1.748035e-002
2.939031e+003,1.719590e-002
2.940959e+003,1.702634e-002
2.942887e+003,1.687776e-002
2.944816e+003,1.662249e-002
2.946744e+003,1.640680e-002
2.948673e+003,1.622544e-002
2.950601e+003,1.609053e-002
2.952530e+003,1.588031e-002
2.954458e+003,1.567010e-002
2.956387e+003,1.550408e-002
2.958315e+003,1.537652e-002
2.960244e+003,1.521509e-002
2.962172e+003,1.509822e-002
2.964101e+003,1.499809e-002
2.966029e+003,1.492140e-002
2.967958e+003,1.482777e-002
2.969886e+003,1.476890e-002
2.971815e+003,1.466070e-002
2.973743e+003,1.461079e-002
2.975672e+003,1.455669e-002
2.977600e+003,1.446973e-002
2.979529e+003,1.440324e-002
2.981457e+003,1.432975e-002
2.983386e+003,1.431468e-002
2.985314e+003,1.428499e-002
2.987243e+003,1.420592e-002
2.989171e+003,1.417377e-002
2.991100e+003,1.415830e-002
2.993028e+003,1.418343e-002
2.994957e+003,1.419422e-002
2.996885e+003,1.410405e-002
2.998814e+003,1.410488e-002
3.000742e+003,1.414837e-002
3.002671e+003,1.410688e-002
3.004599e+003,1.407246e-002
3.006528e+003,1.412616e-002
3.008456e+003,1.412030e-002
3.010385e+003,1.411491e-002
3.012313e+003,1.415116e-002
3.014242e+003,1.421058e-002
3.016170e+003,1.430208e-002
3.018099e+003,1.428379e-002
3.020027e+003,1.425526e-002
3.021956e+003,1.434368e-002
3.023884e+003,1.434805e-002
3.025813e+003,1.435491e-002
3.027741e+003,1.443307e-002
3.029670e+003,1.447285e-002
3.031598e+003,1.449639e-002
3.033527e+003,1.450280e-002
3.035455e+003,1.453397e-002
3.037384e+003,1.456837e-002
3.039312e+003,1.460173e-002
3.041241e+003,1.468602e-002
3.043169e+003,1.477322e-002
3.045098e+003,1.480502e-002
3.047026e+003,1.478870e-002
3.048955e+003,1.484480e-002
3.050883e+003,1.496765e-002
3.052812e+003,1.498992e-002
3.054740e+003,1.506625e-002
3.056669e+003,1.510550e-002
3.058597e+003,1.514605e-002
3.060526e+003,1.520215e-002
3.062454e+003,1.529573e-002
3.064383e+003,1.534077e-002
3.066311e+003,1.535170e-002
3.068240e+003,1.538850e-002
3.070168e+003,1.551390e-002
3.072097e+003,1.552575e-002
3.074025e+003,1.559250e-002
3.075954e+003,1.564927e-002
3.077882e+003,1.559952e-002
3.079811e+003,1.557632e-002
3.081739e+003,1.570478e-002
3.083668e+003,1.581248e-002
3.085596e+003,1.584550e-002
3.087525e+003,1.586021e-002
3.089453e+003,1.597791e-002
3.091382e+003,1.605223e-002
3.093310e+003,1.618591e-002
3.095239e+003,1.619570e-002
3.097167e+003,1.620714e-002
3.099096e+003,1.627401e-002
3.101024e+003,1.633628e-002
3.102953e+003,1.643740e-002
3.104881e+003,1.639985e-002
3.106810e+003,1.648066e-002
3.108738e+003,1.655705e-002
3.110667e+003,1.657021e-002
3.112595e+003,1.667511e-002
3.114524e+003,1.676577e-002
3.116452e+003,1.682786e-002
3.118381e+003,1.689390e-002
3.120309e+003,1.708355e-002
3.122238e+003,1.711329e-002
3.124166e+003,1.715941e-002
3.126095e+003,1.724211e-002
3.128023e+003,1.728333e-002
3.129952e+003,1.732599e-002
3.131880e+003,1.742796e-002
3.133809e+003,1.746622e-002
3.135737e+003,1.746299e-002
3.137666e+003,1.756442e-002
3.139594e+003,1.771086e-002
3.141523e+003,1.786642e-002
3.143451e+003,1.792363e-002
3.145380e+003,1.802844e-002
3.147308e+003,1.811289e-002
3.149237e+003,1.819210e-002
3.151165e+003,1.832312e-002
3.153094e+003,1.841229e-002
3.155022e+003,1.849651e-002
3.156951e+003,1.859120e-002
3.158879e+003,1.859425e-002
3.160808e+003,1.864001e-002
3.162736e+003,1.878356e-002
3.164665e+003,1.894136e-002
3.166593e+003,1.898028e-002
3.168522e+003,1.899752e-002
3.170450e+003,1.905475e-002
3.172379e+003,1.926832e-002
3.174307e+003,1.944937e-002
3.176236e+003,1.949857e-002
3.178164e+003,1.954827e-002
3.180093e+003,1.959312e-002
3.182021e+003,1.970925e-002
3.183950e+003,1.988557e-002
3.185878e+003,2.000207e-002
3.187807e+003,2.008364e-002
3.189735e+003,2.026732e-002
3.191664e+003,2.024176e-002
3.193592e+003,2.032583e-002
3.195521e+003,2.052411e-002
3.197449e+003,2.063333e-002
3.199378e+003,2.070743e-002
3.201306e+003,2.078791e-002
3.203235e+003,2.088880e-002
3.205163e+003,2.104210e-002
3.207092e+003,2.115065e-002
3.209020e+003,2.125737e-002
3.210948e+003,2.137531e-002
3.212877e+003,2.149282e-002
3.214806e+003,2.162759e-002
3.216734e+003,2.181156e-002
3.218663e+003,2.197878e-002
3.220591e+003,2.208740e-002
3.222520e+003,2.220387e-002
3.224448e+003,2.221613e-002
3.226376e+003,2.230562e-002
3.228305e+003,2.246812e-002
3.230234e+003,2.263372e-002
3.232162e+003,2.275158e-002
3.234091e+003,2.286669e-002
3.236019e+003,2.297978e-002
3.237948e+003,2.305203e-002
3.239876e+003,2.315485e-002
3.241804e+003,2.332674e-002
3.243733e+003,2.346722e-002
3.245662e+003,2.359972e-002
3.247590e+003,2.380587e-002
3.249519e+003,2.390943e-002
3.251447e+003,2.394626e-002
3.253375e+003,2.403392e-002
3.255304e+003,2.417119e-002
3.257232e+003,2.433621e-002
3.259161e+003,2.451362e-002
3.261090e+003,2.464253e-002
3.263018e+003,2.478972e-002
3.264947e+003,2.484128e-002
3.266875e+003,2.500489e-002
3.268803e+003,2.507989e-002
3.270732e+003,2.499918e-002
3.272660e+003,2.517824e-002
3.274589e+003,2.535403e-002
3.276518e+003,2.542239e-002
3.278446e+003,2.543595e-002
3.280375e+003,2.552114e-002
3.282303e+003,2.550687e-002
3.284231e+003,2.553375e-002
3.286160e+003,2.568494e-002
3.288088e+003,2.575601e-002
3.290017e+003,2.579106e-002
3.291946e+003,2.579384e-002
3.293874e+003,2.584967e-002
3.295802e+003,2.591255e-002
3.297731e+003,2.584817e-002
3.299659e+003,2.579106e-002
3.301588e+003,2.587503e-002
3.303516e+003,2.597193e-002
3.305445e+003,2.603134e-002
3.307374e+003,2.598538e-002
3.309302e+003,2.598167e-002
3.311230e+003,2.612598e-002
3.313159e+003,2.617998e-002
3.315087e+003,2.620178e-002
3.317016e+003,2.628617e-002
3.318944e+003,2.634424e-002
3.320873e+003,2.643370e-002
3.322802e+003,2.644940e-002
3.324730e+003,2.648664e-002
3.326658e+003,2.661985e-002
3.328587e+003,2.663998e-002
3.330515e+003,2.658317e-002
3.332444e+003,2.661247e-002
3.334372e+003,2.664324e-002
3.336301e+003,2.669828e-002
3.338229e+003,2.664424e-002
3.340158e+003,2.653962e-002
3.342086e+003,2.655263e-002
3.344015e+003,2.653278e-002
3.345943e+003,2.650288e-002
3.347872e+003,2.645080e-002
3.349800e+003,2.640889e-002
3.351729e+003,2.638077e-002
3.353657e+003,2.637871e-002
3.355586e+003,2.640269e-002
3.357514e+003,2.632804e-002
3.359443e+003,2.622968e-002
3.361371e+003,2.612602e-002
3.363300e+003,2.603559e-002
3.365229e+003,2.603298e-002
3.367157e+003,2.602479e-002
3.369085e+003,2.594482e-002
3.371014e+003,2.585131e-002
3.372942e+003,2.577137e-002
3.374871e+003,2.579827e-002
3.376799e+003,2.577118e-002
3.378728e+003,2.565816e-002
3.380656e+003,2.560491e-002
3.382585e+003,2.560700e-002
3.384513e+003,2.552651e-002
3.386442e+003,2.548647e-002
3.388370e+003,2.545575e-002
3.390299e+003,2.526172e-002
3.392227e+003,2.515889e-002
3.394156e+003,2.512012e-002
3.396084e+003,2.509490e-002
3.398013e+003,2.505343e-002
3.399941e+003,2.494335e-002
3.401870e+003,2.484126e-002
3.403798e+003,2.476731e-002
3.405727e+003,2.461726e-002
3.407655e+003,2.452681e-002
3.409584e+003,2.438731e-002
3.411512e+003,2.426980e-002
3.413441e+003,2.422709e-002
3.415369e+003,2.415527e-002
3.417298e+003,2.406761e-002
3.419226e+003,2.388913e-002
3.421155e+003,2.367807e-002
3.423083e+003,2.365554e-002
3.425012e+003,2.349951e-002
3.426940e+003,2.330216e-002
3.428869e+003,2.321005e-002
3.430797e+003,2.292896e-002
3.432726e+003,2.271255e-002
3.434654e+003,2.265351e-002
3.436583e+003,2.262513e-002
3.438511e+003,2.239138e-002
3.440440e+003,2.215589e-002
3.442368e+003,2.198693e-002
3.444297e+003,2.172740e-002
3.446225e+003,2.151983e-002
3.448154e+003,2.139005e-002
3.450082e+003,2.120740e-002
3.452011e+003,2.098679e-002
3.453939e+003,2.090091e-002
3.455868e+003,2.072262e-002
3.457796e+003,2.042802e-002
3.459725e+003,2.020173e-002
3.461653e+003,2.011068e-002
3.463582e+003,1.997354e-002
3.465510e+003,1.979853e-002
3.467439e+003,1.967463e-002
3.469367e+003,1.949494e-002
3.471296e+003,1.922667e-002
3.473224e+003,1.905729e-002
3.475153e+003,1.894147e-002
3.477081e+003,1.878176e-002
3.479010e+003,1.861413e-002
3.480938e+003,1.846114e-002
3.482867e+003,1.831667e-002
3.484795e+003,1.819048e-002
3.486724e+003,1.799794e-002
3.488652e+003,1.787216e-002
3.490581e+003,1.773809e-002
3.492509e+003,1.753736e-002
3.494438e+003,1.738316e-002
3.496366e+003,1.729382e-002
3.498295e+003,1.721698e-002
3.500223e+003,1.694697e-002
3.502152e+003,1.682658e-002
3.504080e+003,1.684037e-002
3.506009e+003,1.668018e-002
3.507937e+003,1.646544e-002
3.509866e+003,1.637583e-002
3.511794e+003,1.631126e-002
3.513723e+003,1.610384e-002
3.515651e+003,1.589895e-002
3.517580e+003,1.566353e-002
3.519508e+003,1.554890e-002
3.521437e+003,1.549122e-002
3.523365e+003,1.542804e-002
3.525294e+003,1.529791e-002
3.527222e+003,1.510455e-002
3.529151e+003,1.488407e-002
3.531079e+003,1.466850e-002
3.533008e+003,1.455459e-002
3.534936e+003,1.448935e-002
3.536865e+003,1.447526e-002
3.538793e+003,1.435528e-002
3.540722e+003,1.420604e-002
3.542650e+003,1.404946e-002
3.544579e+003,1.387625e-002
3.546507e+003,1.378980e-002
3.548436e+003,1.371390e-002
3.550364e+003,1.348239e-002
3.552293e+003,1.335700e-002
3.554221e+003,1.328637e-002
3.556150e+003,1.320652e-002
3.558078e+003,1.311547e-002
3.560007e+003,1.284164e-002
3.561935e+003,1.272222e-002
3.563864e+003,1.270568e-002
3.565792e+003,1.260959e-002
3.567721e+003,1.245691e-002
3.569649e+003,1.239255e-002
3.571578e+003,1.220690e-002
3.573506e+003,1.211871e-002
3.575435e+003,1.202609e-002
3.577363e+003,1.183114e-002
3.579292e+003,1.177546e-002
3.581220e+003,1.165662e-002
3.583149e+003,1.151711e-002
3.585077e+003,1.147517e-002
3.587006e+003,1.150029e-002
3.588934e+003,1.138060e-002
3.590863e+003,1.116526e-002
3.592791e+003,1.112068e-002
3.594720e+003,1.111072e-002
3.596648e+003,1.105198e-002
3.598577e+003,1.087345e-002
3.600505e+003,1.074210e-002
3.602434e+003,1.071372e-002
3.604362e+003,1.069358e-002
3.606291e+003,1.059629e-002
3.608219e+003,1.047560e-002
3.610148e+003,1.039644e-002
3.612076e+003,1.035563e-002
3.614005e+003,1.041032e-002
3.615933e+003,1.031671e-002
3.617862e+003,1.020893e-002
3.619790e+003,1.014377e-002
3.621719e+003,1.004245e-002
3.623647e+003,1.005495e-002
3.625576e+003,9.966915e-003
3.627504e+003,9.912455e-003
3.629433e+003,9.763461e-003
3.631361e+003,9.703436e-003
3.633290e+003,9.698670e-003
3.635218e+003,9.779356e-003
3.637146e+003,9.791847e-003
3.639075e+003,9.775955e-003
3.641004e+003,9.791673e-003
3.642932e+003,9.701684e-003
3.644861e+003,9.619107e-003
3.646789e+003,9.629080e-003
3.648718e+003,9.541578e-003
3.650646e+003,9.484066e-003
3.652574e+003,9.419830e-003
3.654503e+003,9.306540e-003
3.656432e+003,9.221060e-003
3.658360e+003,9.255632e-003
3.660289e+003,9.237637e-003
3.662217e+003,9.300955e-003
3.664146e+003,9.335611e-003
3.666074e+003,9.254875e-003
3.668002e+003,9.268533e-003
3.669931e+003,9.185105e-003
3.671860e+003,9.061986e-003
3.673788e+003,9.137247e-003
3.675717e+003,9.188283e-003
3.677645e+003,9.185106e-003
3.679573e+003,9.197140e-003
3.681502e+003,9.143717e-003
3.683430e+003,9.104554e-003
3.685359e+003,9.081456e-003
3.687288e+003,8.978289e-003
3.689216e+003,8.979565e-003
3.691145e+003,9.080783e-003
3.693073e+003,9.140165e-003
3.695001e+003,9.106752e-003
3.696930e+003,8.970109e-003
3.698858e+003,9.007072e-003
3.700787e+003,9.063780e-003
3.702716e+003,9.017905e-003
3.704644e+003,8.974139e-003
3.706573e+003,9.043467e-003
3.708501e+003,9.174439e-003
3.710429e+003,9.167892e-003
3.712358e+003,9.004492e-003
3.714286e+003,9.120844e-003
3.716215e+003,9.158650e-003
3.718144e+003,8.933222e-003
3.720072e+003,8.952826e-003
3.722000e+003,9.132483e-003
3.723929e+003,9.061615e-003
3.725857e+003,9.078958e-003
3.727786e+003,9.098822e-003
3.729714e+003,8.939117e-003
3.731643e+003,8.921729e-003
3.733572e+003,9.055184e-003
3.735500e+003,9.148889e-003
3.737428e+003,9.168701e-003
3.739357e+003,9.250067e-003
3.741285e+003,9.295424e-003
3.743214e+003,9.435295e-003
3.745142e+003,9.405110e-003
3.747071e+003,9.350254e-003
3.749000e+003,9.370042e-003
3.750928e+003,9.344252e-003
3.752856e+003,9.373385e-003
3.754785e+003,9.432876e-003
3.756713e+003,9.449204e-003
3.758642e+003,9.377410e-003
3.760570e+003,9.383163e-003
3.762499e+003,9.441067e-003
3.764427e+003,9.374918e-003
3.766356e+003,9.379368e-003
3.768284e+003,9.445484e-003
3.770213e+003,9.442626e-003
3.772141e+003,9.392272e-003
3.774070e+003,9.406444e-003
3.775998e+003,9.532802e-003
3.777927e+003,9.527153e-003
3.779855e+003,9.419831e-003
3.781784e+003,9.449597e-003
3.783712e+003,9.452214e-003
3.785641e+003,9.474956e-003
3.787569e+003,9.458963e-003
3.789498e+003,9.413168e-003
3.791426e+003,9.488375e-003
3.793355e+003,9.562777e-003
3.795283e+003,9.533766e-003
3.797212e+003,9.551489e-003
3.799140e+003,9.528410e-003
3.801069e+003,9.501258e-003
3.802997e+003,9.454386e-003
3.804926e+003,9.479356e-003
3.806854e+003,9.479672e-003
3.808783e+003,9.522108e-003
3.810711e+003,9.612056e-003
3.812640e+003,9.587388e-003
3.814568e+003,9.447142e-003
3.816497e+003,9.467360e-003
3.818425e+003,9.634375e-003
3.820354e+003,9.649858e-003
3.822282e+003,9.619985e-003
3.824211e+003,9.656021e-003
3.826139e+003,9.576719e-003
3.828068e+003,9.510752e-003
3.829996e+003,9.562829e-003
3.831925e+003,9.566167e-003
3.833853e+003,9.540498e-003
3.835782e+003,9.592598e-003
3.837710e+003,9.613246e-003
3.839639e+003,9.553058e-003
3.841567e+003,9.541994e-003
3.843496e+003,9.628771e-003
3.845424e+003,9.654001e-003
3.847353e+003,9.640204e-003
3.849281e+003,9.636072e-003
3.851210e+003,9.617662e-003
3.853138e+003,9.693746e-003
3.855067e+003,9.691719e-003
3.856995e+003,9.619055e-003
3.858924e+003,9.682201e-003
3.860852e+003,9.753721e-003
3.862781e+003,9.819788e-003
3.864709e+003,9.791374e-003
3.866638e+003,9.683598e-003
3.868566e+003,9.689617e-003
3.870495e+003,9.716643e-003
3.872423e+003,9.739410e-003
3.874352e+003,9.712074e-003
3.876280e+003,9.605326e-003
3.878209e+003,9.604995e-003
3.880137e+003,9.715647e-003
3.882066e+003,9.740774e-003
3.883994e+003,9.699217e-003
3.885923e+003,9.707674e-003
3.887851e+003,9.685328e-003
3.889780e+003,9.586200e-003
3.891708e+003,9.699028e-003
3.893637e+003,9.759080e-003
3.895565e+003,9.706884e-003
3.897494e+003,9.596174e-003
3.899422e+003,9.610774e-003
3.901351e+003,9.725258e-003
3.903279e+003,9.710536e-003
3.905208e+003,9.737831e-003
3.907136e+003,9.915282e-003
3.909065e+003,9.839495e-003
3.910993e+003,9.772487e-003
3.912922e+003,9.760955e-003
3.914850e+003,9.703763e-003
3.916779e+003,9.708649e-003
3.918707e+003,9.790963e-003
3.920636e+003,9.795482e-003
3.922564e+003,9.685580e-003
3.924493e+003,9.704716e-003
3.926421e+003,9.787346e-003
3.928350e+003,9.783308e-003
3.930278e+003,9.794842e-003
3.932207e+003,9.824581e-003
3.934135e+003,9.857723e-003
3.936064e+003,9.838666e-003
3.937992e+003,9.800232e-003
3.939921e+003,9.790204e-003
3.941849e+003,9.751434e-003
3.943778e+003,9.740954e-003
3.945706e+003,9.819359e-003
3.947635e+003,9.919310e-003
3.949563e+003,9.927191e-003
3.951492e+003,9.840823e-003
3.953420e+003,9.745019e-003
3.955349e+003,9.793949e-003
3.957277e+003,9.782320e-003
3.959206e+003,9.756237e-003
3.961134e+003,9.716065e-003
3.963063e+003,9.753360e-003
3.964991e+003,9.879044e-003
3.966920e+003,9.854127e-003
3.968848e+003,9.813851e-003
3.970777e+003,9.818334e-003
3.972705e+003,9.826687e-003
3.974634e+003,9.820777e-003
3.976562e+003,9.788583e-003
3.978491e+003,9.807247e-003
3.980419e+003,9.841008e-003
3.982348e+003,9.788684e-003
3.984276e+003,9.758417e-003
3.986205e+003,9.782786e-003
3.988133e+003,9.764594e-003
3.990062e+003,9.686533e-003
3.991990e+003,9.771126e-003
3.993919e+003,9.874383e-003
3.995847e+003,9.888492e-003
3.997776e+003,9.865620e-003
3.999704e+003,9.865947e-003
4.001633e+003,0.000000e+000
