3.991989e+002,2.737544e-002
4.011274e+002,2.921022e-002
4.030559e+002,2.921022e-002
4.049844e+002,2.988838e-002
4.069129e+002,3.096812e-002
4.088414e+002,3.097937e-002
4.107699e+002,3.246339e-002
4.126984e+002,3.326700e-002
4.146269e+002,3.464428e-002
4.165554e+002,3.598208e-002
4.184839e+002,3.618457e-002
4.204124e+002,3.643326e-002
4.223409e+002,3.749089e-002
4.242694e+002,3.744337e-002
4.261979e+002,3.750895e-002
4.281264e+002,3.883659e-002
4.300549e+002,3.913125e-002
4.319834e+002,3.955295e-002
4.339119e+002,3.991364e-002
4.358404e+002,3.977277e-002
4.377689e+002,4.032260e-002
4.396974e+002,4.103857e-002
4.416259e+002,4.133626e-002
4.435544e+002,4.152332e-002
4.454829e+002,4.177813e-002
4.474114e+002,4.168074e-002
4.493399e+002,4.191982e-002
4.512684e+002,4.144379e-002
4.531969e+002,4.160395e-002
4.551254e+002,4.141138e-002
4.570539e+002,4.152905e-002
4.589824e+002,4.180988e-002
4.609109e+002,4.150487e-002
4.628394e+002,4.142978e-002
4.647679e+002,4.105549e-002
4.666964e+002,4.101218e-002
4.686249e+002,4.100240e-002
4.705533e+002,4.064713e-002
4.724819e+002,4.067882e-002
4.744103e+002,4.031357e-002
4.763389e+002,3.917533e-002
4.782673e+002,3.917902e-002
4.801959e+002,3.861148e-002
4.821243e+002,3.845630e-002
4.840529e+002,3.837437e-002
4.859813e+002,3.777343e-002
4.879099e+002,3.730545e-002
4.898383e+002,3.726724e-002
4.917668e+002,3.728644e-002
4.936953e+002,3.647786e-002
4.956238e+002,3.615849e-002
4.975523e+002,3.573570e-002
4.994808e+002,3.512120e-002
5.014093e+002,3.511130e-002
5.033378e+002,3.514302e-002
5.052663e+002,3.531704e-002
5.071948e+002,3.541668e-002
5.091233e+002,3.544652e-002
5.110518e+002,3.543725e-002
5.129803e+002,3.550164e-002
5.149088e+002,3.544386e-002
5.168373e+002,3.559347e-002
5.187658e+002,3.591217e-002
5.206943e+002,3.602221e-002
5.226228e+002,3.617699e-002
5.245513e+002,3.628814e-002
5.264798e+002,3.587648e-002
5.284083e+002,3.579634e-002
5.303368e+002,3.593348e-002
5.322653e+002,3.630624e-002
5.341938e+002,3.634917e-002
5.361223e+002,3.599685e-002
5.380508e+002,3.610268e-002
5.399792e+002,3.597875e-002
5.419078e+002,3.592999e-002
5.438363e+002,3.581604e-002
5.457648e+002,3.575839e-002
5.476932e+002,3.566519e-002
5.496218e+002,3.595215e-002
5.515503e+002,3.629510e-002
5.534788e+002,3.634482e-002
5.554072e+002,3.635671e-002
5.573358e+002,3.647016e-002
5.592643e+002,3.645274e-002
5.611927e+002,3.613500e-002
5.631212e+002,3.607371e-002
5.650497e+002,3.563507e-002
5.669783e+002,3.551352e-002
5.689067e+002,3.552483e-002
5.708352e+002,3.552326e-002
5.727637e+002,3.531433e-002
5.746923e+002,3.522300e-002
5.766207e+002,3.529663e-002
5.785492e+002,3.500329e-002
5.804777e+002,3.480481e-002
5.824063e+002,3.455243e-002
5.843347e+002,3.452649e-002
5.862632e+002,3.480776e-002
5.881917e+002,3.470333e-002
5.901202e+002,3.452870e-002
5.920487e+002,3.475779e-002
5.939772e+002,3.444069e-002
5.959057e+002,3.407275e-002
5.978342e+002,3.408973e-002
5.997627e+002,3.388385e-002
6.016912e+002,3.379141e-002
6.036197e+002,3.364792e-002
6.055482e+002,3.365018e-002
6.074767e+002,3.378969e-002
6.094052e+002,3.363009e-002
6.113337e+002,3.326031e-002
6.132622e+002,3.285249e-002
6.151907e+002,3.270531e-002
6.171192e+002,3.258189e-002
6.190477e+002,3.239268e-002
6.209762e+002,3.234105e-002
6.229047e+002,3.183939e-002
6.248332e+002,3.126132e-002
6.267617e+002,3.097784e-002
6.286902e+002,3.067222e-002
6.306187e+002,3.034291e-002
6.325472e+002,3.023193e-002
6.344756e+002,2.999452e-002
6.364042e+002,2.976350e-002
6.383326e+002,2.976092e-002
6.402612e+002,2.972133e-002
6.421896e+002,2.950774e-002
6.441182e+002,2.923029e-002
6.460466e+002,2.908174e-002
6.479752e+002,2.902544e-002
6.499036e+002,2.911164e-002
6.518322e+002,2.897267e-002
6.537606e+002,2.892936e-002
6.556891e+002,2.875454e-002
6.576177e+002,2.845494e-002
6.595461e+002,2.854013e-002
6.614746e+002,2.882638e-002
6.634031e+002,2.906946e-002
6.653317e+002,2.904388e-002
6.672601e+002,2.880903e-002
6.691886e+002,2.863139e-002
6.711171e+002,2.837776e-002
6.730457e+002,2.805557e-002
6.749741e+002,2.739387e-002
6.769026e+002,2.676266e-002
6.788311e+002,2.623720e-002
6.807596e+002,2.575702e-002
6.826881e+002,2.541589e-002
6.846166e+002,2.517925e-002
6.865451e+002,2.499565e-002
6.884736e+002,2.472666e-002
6.904021e+002,2.455679e-002
6.923306e+002,2.453406e-002
6.942591e+002,2.447747e-002
6.961876e+002,2.445592e-002
6.981161e+002,2.433742e-002
7.000446e+002,2.412927e-002
7.019731e+002,2.389687e-002
7.039016e+002,2.365889e-002
7.058301e+002,2.349430e-002
7.077585e+002,2.349423e-002
7.096871e+002,2.331686e-002
7.116156e+002,2.317765e-002
7.135441e+002,2.306524e-002
7.154725e+002,2.295344e-002
7.174011e+002,2.286493e-002
7.193296e+002,2.288239e-002
7.212581e+002,2.284030e-002
7.231865e+002,2.252961e-002
7.251151e+002,2.236222e-002
7.270436e+002,2.213475e-002
7.289720e+002,2.196318e-002
7.309005e+002,2.177495e-002
7.328290e+002,2.147148e-002
7.347576e+002,2.130383e-002
7.366860e+002,2.131186e-002
7.386145e+002,2.115029e-002
7.405430e+002,2.104604e-002
7.424716e+002,2.097145e-002
7.444000e+002,2.079707e-002
7.463285e+002,2.060475e-002
7.482570e+002,2.037612e-002
7.501855e+002,2.026447e-002
7.521140e+002,2.014677e-002
7.540425e+002,2.011078e-002
7.559710e+002,1.996648e-002
7.578995e+002,1.987268e-002
7.598280e+002,1.980918e-002
7.617565e+002,1.971884e-002
7.636850e+002,1.958693e-002
7.656135e+002,1.947183e-002
7.675420e+002,1.945468e-002
7.694705e+002,1.940922e-002
7.713990e+002,1.932940e-002
7.733275e+002,1.917755e-002
7.752560e+002,1.926265e-002
7.771844e+002,1.948462e-002
7.791130e+002,1.952035e-002
7.810415e+002,1.949152e-002
7.829700e+002,1.937121e-002
7.848984e+002,1.930754e-002
7.868270e+002,1.926417e-002
7.887555e+002,1.909974e-002
7.906840e+002,1.906429e-002
7.926124e+002,1.902458e-002
7.945410e+002,1.895469e-002
7.964695e+002,1.895809e-002
7.983979e+002,1.895407e-002
8.003264e+002,1.895103e-002
8.022549e+002,1.894590e-002
8.041835e+002,1.882852e-002
8.061119e+002,1.869497e-002
8.080404e+002,1.869601e-002
8.099689e+002,1.869165e-002
8.118975e+002,1.847859e-002
8.138259e+002,1.836523e-002
8.157545e+002,1.839106e-002
8.176830e+002,1.827043e-002
8.196115e+002,1.803112e-002
8.215399e+002,1.782176e-002
8.234684e+002,1.776725e-002
8.253970e+002,1.763676e-002
8.273254e+002,1.759104e-002
8.292539e+002,1.755878e-002
8.311824e+002,1.755795e-002
8.331110e+002,1.746167e-002
8.350394e+002,1.743608e-002
8.369679e+002,1.735465e-002
8.388964e+002,1.722780e-002
8.408250e+002,1.715765e-002
8.427534e+002,1.710919e-002
8.446819e+002,1.705274e-002
8.466104e+002,1.697318e-002
8.485389e+002,1.701828e-002
8.504674e+002,1.706121e-002
8.523959e+002,1.705587e-002
8.543244e+002,1.706280e-002
8.562529e+002,1.715007e-002
8.581814e+002,1.723063e-002
8.601099e+002,1.721360e-002
8.620384e+002,1.730158e-002
8.639669e+002,1.734889e-002
8.658954e+002,1.734775e-002
8.678239e+002,1.741797e-002
8.697524e+002,1.753270e-002
8.716809e+002,1.762337e-002
8.736094e+002,1.773860e-002
8.755378e+002,1.786281e-002
8.774664e+002,1.814138e-002
8.793949e+002,1.831588e-002
8.813234e+002,1.851776e-002
8.832518e+002,1.884132e-002
8.851804e+002,1.917194e-002
8.871089e+002,1.964025e-002
8.890374e+002,2.012440e-002
8.909658e+002,2.064793e-002
8.928943e+002,2.119718e-002
8.948229e+002,2.150690e-002
8.967513e+002,2.162641e-002
8.986798e+002,2.175312e-002
9.006083e+002,2.164866e-002
9.025369e+002,2.138256e-002
9.044653e+002,2.106187e-002
9.063938e+002,2.084131e-002
9.083223e+002,2.069408e-002
9.102509e+002,2.055833e-002
9.121793e+002,2.051469e-002
9.141078e+002,2.042779e-002
9.160364e+002,2.042338e-002
9.179648e+002,2.047517e-002
9.198933e+002,2.062771e-002
9.218218e+002,2.074718e-002
9.237504e+002,2.091717e-002
9.256788e+002,2.109724e-002
9.276073e+002,2.142889e-002
9.295358e+002,2.167531e-002
9.314644e+002,2.186005e-002
9.333928e+002,2.226356e-002
9.353213e+002,2.259711e-002
9.372498e+002,2.289938e-002
9.391783e+002,2.331001e-002
9.411068e+002,2.377542e-002
9.430353e+002,2.442320e-002
9.449637e+002,2.515848e-002
9.468923e+002,2.584793e-002
9.488208e+002,2.642510e-002
9.507493e+002,2.706028e-002
9.526777e+002,2.770037e-002
9.546063e+002,2.830806e-002
9.565348e+002,2.893732e-002
9.584633e+002,2.966042e-002
9.603917e+002,3.029698e-002
9.623203e+002,3.090223e-002
9.642488e+002,3.155058e-002
9.661772e+002,3.209325e-002
9.681057e+002,3.259153e-002
9.700343e+002,3.320331e-002
9.719628e+002,3.379014e-002
9.738912e+002,3.449799e-002
9.758197e+002,3.528462e-002
9.777483e+002,3.623137e-002
9.796768e+002,3.721412e-002
9.816052e+002,3.836292e-002
9.835337e+002,3.949277e-002
9.854623e+002,4.064602e-002
9.873907e+002,4.170517e-002
9.893192e+002,4.267598e-002
9.912477e+002,4.324764e-002
9.931763e+002,4.359642e-002
9.951047e+002,4.385066e-002
9.970332e+002,4.408406e-002
9.989617e+002,4.455576e-002
1.000890e+003,4.529945e-002
1.002819e+003,4.610145e-002
1.004747e+003,4.697045e-002
1.006676e+003,4.775309e-002
1.008604e+003,4.838356e-002
1.010533e+003,4.899031e-002
1.012461e+003,4.973298e-002
1.014390e+003,5.051972e-002
1.016318e+003,5.135981e-002
1.018247e+003,5.218492e-002
1.020175e+003,5.306422e-002
1.022104e+003,5.394226e-002
1.024032e+003,5.486361e-002
1.025961e+003,5.578463e-002
1.027889e+003,5.669941e-002
1.029818e+003,5.755692e-002
1.031746e+003,5.827044e-002
1.033675e+003,5.878812e-002
1.035603e+003,5.903577e-002
1.037532e+003,5.897215e-002
1.039460e+003,5.862183e-002
1.041389e+003,5.810148e-002
1.043317e+003,5.756365e-002
1.045246e+003,5.706042e-002
1.047174e+003,5.655223e-002
1.049103e+003,5.599725e-002
1.051031e+003,5.549903e-002
1.052960e+003,5.500266e-002
1.054888e+003,5.446712e-002
1.056817e+003,5.372344e-002
1.058745e+003,5.293653e-002
1.060674e+003,5.213389e-002
1.062602e+003,5.143813e-002
1.064531e+003,5.073700e-002
1.066459e+003,4.994399e-002
1.068388e+003,4.909566e-002
1.070316e+003,4.829108e-002
1.072245e+003,4.747831e-002
1.074173e+003,4.666506e-002
1.076102e+003,4.580944e-002
1.078030e+003,4.491600e-002
1.079959e+003,4.398249e-002
1.081887e+003,4.308691e-002
1.083816e+003,4.237157e-002
1.085744e+003,4.181635e-002
1.087673e+003,4.142138e-002
1.089601e+003,4.114766e-002
1.091530e+003,4.085430e-002
1.093458e+003,4.056376e-002
1.095387e+003,4.028833e-002
1.097315e+003,4.006862e-002
1.099244e+003,3.991428e-002
1.101172e+003,3.980576e-002
1.103101e+003,3.954507e-002
1.105029e+003,3.913290e-002
1.106958e+003,3.855153e-002
1.108886e+003,3.779172e-002
1.110815e+003,3.688153e-002
1.112743e+003,3.590687e-002
1.114672e+003,3.480629e-002
1.116600e+003,3.378008e-002
1.118529e+003,3.292779e-002
1.120457e+003,3.214609e-002
1.122386e+003,3.130237e-002
1.124314e+003,3.044757e-002
1.126243e+003,2.955731e-002
1.128171e+003,2.869226e-002
1.130100e+003,2.786233e-002
1.132028e+003,2.710161e-002
1.133957e+003,2.641169e-002
1.135885e+003,2.583418e-002
1.137814e+003,2.534218e-002
1.139742e+003,2.511386e-002
1.141671e+003,2.500894e-002
1.143599e+003,2.500041e-002
1.145528e+003,2.516779e-002
1.147456e+003,2.537496e-002
1.149385e+003,2.559203e-002
1.151313e+003,2.588112e-002
1.153242e+003,2.612481e-002
1.155170e+003,2.634687e-002
1.157099e+003,2.655351e-002
1.159027e+003,2.667776e-002
1.160956e+003,2.660310e-002
1.162884e+003,2.637507e-002
1.164813e+003,2.595717e-002
1.166741e+003,2.536906e-002
1.168670e+003,2.455424e-002
1.170598e+003,2.364468e-002
1.172526e+003,2.271957e-002
1.174455e+003,2.181284e-002
1.176384e+003,2.094864e-002
1.178312e+003,2.020631e-002
1.180240e+003,1.951699e-002
1.182169e+003,1.888105e-002
1.184098e+003,1.839513e-002
1.186026e+003,1.807637e-002
1.187954e+003,1.787378e-002
1.189883e+003,1.774723e-002
1.191812e+003,1.768210e-002
1.193740e+003,1.774511e-002
1.195668e+003,1.791076e-002
1.197597e+003,1.809241e-002
1.199526e+003,1.820225e-002
1.201454e+003,1.824422e-002
1.203382e+003,1.816091e-002
1.205311e+003,1.805193e-002
1.207240e+003,1.796532e-002
1.209168e+003,1.786312e-002
1.211096e+003,1.778777e-002
1.213025e+003,1.780711e-002
1.214953e+003,1.792973e-002
1.216882e+003,1.806151e-002
1.218810e+003,1.821042e-002
1.220739e+003,1.842526e-002
1.222667e+003,1.863062e-002
1.224596e+003,1.885178e-002
1.226524e+003,1.913872e-002
1.228453e+003,1.946045e-002
1.230381e+003,1.967413e-002
1.232310e+003,1.981013e-002
1.234238e+003,1.992646e-002
1.236167e+003,1.998611e-002
1.238095e+003,2.000283e-002
1.240024e+003,1.999654e-002
1.241952e+003,1.995474e-002
1.243881e+003,1.987679e-002
1.245809e+003,1.974867e-002
1.247738e+003,1.958965e-002
1.249666e+003,1.935110e-002
1.251595e+003,1.907684e-002
1.253523e+003,1.883511e-002
1.255452e+003,1.857146e-002
1.257380e+003,1.824277e-002
1.259309e+003,1.794654e-002
1.261237e+003,1.765164e-002
1.263166e+003,1.734977e-002
1.265094e+003,1.701437e-002
1.267023e+003,1.669363e-002
1.268951e+003,1.642545e-002
1.270880e+003,1.615040e-002
1.272808e+003,1.583960e-002
1.274737e+003,1.562617e-002
1.276665e+003,1.539433e-002
1.278594e+003,1.523393e-002
1.280522e+003,1.508015e-002
1.282451e+003,1.494033e-002
1.284379e+003,1.481956e-002
1.286308e+003,1.470849e-002
1.288236e+003,1.459547e-002
1.290165e+003,1.457280e-002
1.292093e+003,1.460835e-002
1.294022e+003,1.466857e-002
1.295950e+003,1.477274e-002
1.297879e+003,1.491504e-002
1.299807e+003,1.500273e-002
1.301736e+003,1.518204e-002
1.303664e+003,1.540893e-002
1.305593e+003,1.559665e-002
1.307521e+003,1.580792e-002
1.309450e+003,1.606049e-002
1.311378e+003,1.624095e-002
1.313307e+003,1.640106e-002
1.315235e+003,1.652261e-002
1.317164e+003,1.652702e-002
1.319092e+003,1.651646e-002
1.321021e+003,1.645671e-002
1.322949e+003,1.630031e-002
1.324878e+003,1.614329e-002
1.326806e+003,1.603234e-002
1.328735e+003,1.596392e-002
1.330663e+003,1.588742e-002
1.332592e+003,1.583096e-002
1.334520e+003,1.581348e-002
1.336449e+003,1.577072e-002
1.338377e+003,1.568880e-002
1.340306e+003,1.559497e-002
1.342234e+003,1.553154e-002
1.344163e+003,1.554361e-002
1.346091e+003,1.556639e-002
1.348020e+003,1.560516e-002
1.349948e+003,1.571518e-002
1.351877e+003,1.585664e-002
1.353805e+003,1.599375e-002
1.355734e+003,1.614958e-002
1.357662e+003,1.634574e-002
1.359591e+003,1.651254e-002
1.361519e+003,1.666509e-002
1.363448e+003,1.685253e-002
1.365376e+003,1.699730e-002
1.367305e+003,1.711014e-002
1.369233e+003,1.714898e-002
1.371162e+003,1.710972e-002
1.373090e+003,1.698843e-002
1.375019e+003,1.683580e-002
1.376947e+003,1.659586e-002
1.378876e+003,1.633296e-002
1.380804e+003,1.607033e-002
1.382733e+003,1.579474e-002
1.384661e+003,1.553488e-002
1.386590e+003,1.529115e-002
1.388518e+003,1.509930e-002
1.390447e+003,1.492424e-002
1.392375e+003,1.481962e-002
1.394304e+003,1.471732e-002
1.396232e+003,1.469301e-002
1.398161e+003,1.470924e-002
1.400089e+003,1.470005e-002
1.402018e+003,1.470487e-002
1.403946e+003,1.473738e-002
1.405875e+003,1.483209e-002
1.407803e+003,1.485691e-002
1.409732e+003,1.487882e-002
1.411660e+003,1.499131e-002
1.413589e+003,1.509305e-002
1.415517e+003,1.517649e-002
1.417446e+003,1.524733e-002
1.419374e+003,1.525720e-002
1.421303e+003,1.522220e-002
1.423231e+003,1.521646e-002
1.425160e+003,1.525687e-002
1.427088e+003,1.521723e-002
1.429017e+003,1.513633e-002
1.430945e+003,1.503575e-002
1.432874e+003,1.491654e-002
1.434802e+003,1.472088e-002
1.436731e+003,1.458845e-002
1.438659e+003,1.446418e-002
1.440588e+003,1.433686e-002
1.442516e+003,1.420420e-002
1.444445e+003,1.408097e-002
1.446373e+003,1.398505e-002
1.448302e+003,1.392086e-002
1.450230e+003,1.385021e-002
1.452159e+003,1.377240e-002
1.454087e+003,1.369533e-002
1.456016e+003,1.360746e-002
1.457944e+003,1.351652e-002
1.459873e+003,1.345369e-002
1.461801e+003,1.334778e-002
1.463730e+003,1.326073e-002
1.465658e+003,1.311537e-002
1.467587e+003,1.282104e-002
1.469515e+003,1.240958e-002
1.471444e+003,1.201188e-002
1.473372e+003,1.164433e-002
1.475301e+003,1.133473e-002
1.477229e+003,1.105818e-002
1.479158e+003,1.085597e-002
1.481086e+003,1.074233e-002
1.483015e+003,1.065743e-002
1.484943e+003,1.062440e-002
1.486872e+003,1.065560e-002
1.488800e+003,1.072004e-002
1.490729e+003,1.076064e-002
1.492657e+003,1.083374e-002
1.494586e+003,1.093553e-002
1.496514e+003,1.105807e-002
1.498443e+003,1.117975e-002
1.500371e+003,1.127181e-002
1.502300e+003,1.134311e-002
1.504228e+003,1.142405e-002
1.506157e+003,1.155204e-002
1.508085e+003,1.169761e-002
1.510014e+003,1.181184e-002
1.511942e+003,1.193162e-002
1.513871e+003,1.204621e-002
1.515799e+003,1.209491e-002
1.517728e+003,1.202892e-002
1.519656e+003,1.190333e-002
1.521585e+003,1.178353e-002
1.523513e+003,1.169398e-002
1.525442e+003,1.166191e-002
1.527370e+003,1.164262e-002
1.529299e+003,1.161180e-002
1.531227e+003,1.158688e-002
1.533156e+003,1.155852e-002
1.535084e+003,1.154717e-002
1.537013e+003,1.154540e-002
1.538941e+003,1.153542e-002
1.540870e+003,1.153720e-002
1.542798e+003,1.152867e-002
1.544727e+003,1.153011e-002
1.546655e+003,1.147097e-002
1.548584e+003,1.144924e-002
1.550512e+003,1.142743e-002
1.552441e+003,1.138270e-002
1.554369e+003,1.134490e-002
1.556298e+003,1.133966e-002
1.558226e+003,1.133876e-002
1.560155e+003,1.134912e-002
1.562083e+003,1.137150e-002
1.564012e+003,1.142074e-002
1.565940e+003,1.145559e-002
1.567869e+003,1.150310e-002
1.569797e+003,1.159636e-002
1.571726e+003,1.172708e-002
1.573654e+003,1.185554e-002
1.575583e+003,1.196365e-002
1.577511e+003,1.211734e-002
1.579440e+003,1.233478e-002
1.581368e+003,1.253834e-002
1.583297e+003,1.271140e-002
1.585225e+003,1.296882e-002
1.587154e+003,1.325914e-002
1.589082e+003,1.347380e-002
1.591010e+003,1.366249e-002
1.592939e+003,1.388140e-002
1.594868e+003,1.408458e-002
1.596796e+003,1.419805e-002
1.598724e+003,1.428728e-002
1.600653e+003,1.441047e-002
1.602582e+003,1.449286e-002
1.604510e+003,1.455318e-002
1.606438e+003,1.457201e-002
1.608367e+003,1.457950e-002
1.610296e+003,1.461554e-002
1.612224e+003,1.471963e-002
1.614152e+003,1.480679e-002
1.616081e+003,1.487005e-002
1.618010e+003,1.492686e-002
1.619938e+003,1.500416e-002
1.621866e+003,1.507827e-002
1.623795e+003,1.511477e-002
1.625724e+003,1.509386e-002
1.627652e+003,1.502123e-002
1.629580e+003,1.491628e-002
1.631509e+003,1.481690e-002
1.633438e+003,1.473947e-002
1.635366e+003,1.465328e-002
1.637294e+003,1.453211e-002
1.639223e+003,1.439930e-002
1.641151e+003,1.426407e-002
1.643080e+003,1.417143e-002
1.645008e+003,1.412887e-002
1.646937e+003,1.404462e-002
1.648865e+003,1.398097e-002
1.650794e+003,1.392569e-002
1.652722e+003,1.381170e-002
1.654651e+003,1.369887e-002
1.656579e+003,1.354774e-002
1.658508e+003,1.333815e-002
1.660436e+003,1.313279e-002
1.662365e+003,1.295108e-002
1.664293e+003,1.270144e-002
1.666222e+003,1.248833e-002
1.668150e+003,1.228929e-002
1.670079e+003,1.212025e-002
1.672007e+003,1.193654e-002
1.673936e+003,1.178820e-002
1.675864e+003,1.165670e-002
1.677793e+003,1.150616e-002
1.679721e+003,1.139964e-002
1.681650e+003,1.127763e-002
1.683578e+003,1.117316e-002
1.685507e+003,1.108806e-002
1.687435e+003,1.102036e-002
1.689364e+003,1.096854e-002
1.691292e+003,1.094643e-002
1.693221e+003,1.095384e-002
1.695149e+003,1.087514e-002
1.697078e+003,1.079440e-002
1.699006e+003,1.072202e-002
1.700935e+003,1.068056e-002
1.702863e+003,1.066053e-002
1.704792e+003,1.065258e-002
1.706720e+003,1.067513e-002
1.708649e+003,1.067805e-002
1.710577e+003,1.071671e-002
1.712506e+003,1.078779e-002
1.714434e+003,1.094501e-002
1.716363e+003,1.110970e-002
1.718291e+003,1.125611e-002
1.720220e+003,1.140305e-002
1.722148e+003,1.162838e-002
1.724077e+003,1.187693e-002
1.726005e+003,1.213551e-002
1.727934e+003,1.236587e-002
1.729862e+003,1.252615e-002
1.731791e+003,1.256182e-002
1.733719e+003,1.247237e-002
1.735648e+003,1.228633e-002
1.737576e+003,1.191968e-002
1.739505e+003,1.145145e-002
1.741433e+003,1.089597e-002
1.743362e+003,1.035116e-002
1.745290e+003,9.952303e-003
1.747219e+003,9.612495e-003
1.749147e+003,9.248224e-003
1.751076e+003,8.937854e-003
1.753004e+003,8.714838e-003
1.754933e+003,8.542269e-003
1.756861e+003,8.367043e-003
1.758790e+003,8.215960e-003
1.760718e+003,8.032192e-003
1.762647e+003,7.893248e-003
1.764575e+003,7.759961e-003
1.766504e+003,7.651184e-003
1.768432e+003,7.602903e-003
1.770361e+003,7.566908e-003
1.772289e+003,7.521953e-003
1.774218e+003,7.497351e-003
1.776146e+003,7.418324e-003
1.778075e+003,7.360343e-003
1.780003e+003,7.382933e-003
1.781932e+003,7.432600e-003
1.783860e+003,7.460237e-003
1.785789e+003,7.390310e-003
1.787717e+003,7.345434e-003
1.789646e+003,7.361419e-003
1.791574e+003,7.333491e-003
1.793503e+003,7.360781e-003
1.795431e+003,7.362995e-003
1.797360e+003,7.330201e-003
1.799288e+003,7.294237e-003
1.801217e+003,7.309265e-003
1.803145e+003,7.308460e-003
1.805074e+003,7.242282e-003
1.807002e+003,7.199749e-003
1.808931e+003,7.233370e-003
1.810859e+003,7.220841e-003
1.812788e+003,7.242267e-003
1.814716e+003,7.210345e-003
1.816645e+003,7.147464e-003
1.818573e+003,7.150065e-003
1.820502e+003,7.084780e-003
1.822430e+003,7.057310e-003
1.824359e+003,7.094856e-003
1.826287e+003,7.095819e-003
1.828216e+003,7.123147e-003
1.830144e+003,7.094516e-003
1.832073e+003,6.995868e-003
1.834001e+003,6.968525e-003
1.835930e+003,7.019896e-003
1.837858e+003,7.031794e-003
1.839787e+003,6.947536e-003
1.841715e+003,6.845401e-003
1.843644e+003,6.832785e-003
1.845572e+003,6.906571e-003
1.847501e+003,6.988152e-003
1.849429e+003,6.981364e-003
1.851358e+003,6.965464e-003
1.853286e+003,6.908607e-003
1.855215e+003,6.953483e-003
1.857143e+003,6.980229e-003
1.859072e+003,6.774778e-003
1.861000e+003,6.698077e-003
1.862929e+003,6.650078e-003
1.864857e+003,6.746584e-003
1.866786e+003,6.762500e-003
1.868714e+003,6.642055e-003
1.870643e+003,6.626830e-003
1.872571e+003,6.775338e-003
1.874500e+003,6.863017e-003
1.876428e+003,6.923735e-003
1.878357e+003,6.848018e-003
1.880285e+003,6.833683e-003
1.882214e+003,6.836167e-003
1.884142e+003,6.650635e-003
1.886071e+003,6.563428e-003
1.887999e+003,6.461695e-003
1.889928e+003,6.467605e-003
1.891856e+003,6.465978e-003
1.893785e+003,6.476010e-003
1.895713e+003,6.551552e-003
1.897642e+003,6.477126e-003
1.899570e+003,6.331949e-003
1.901499e+003,6.339933e-003
1.903427e+003,6.451001e-003
1.905356e+003,6.456666e-003
1.907284e+003,6.254468e-003
1.909213e+003,6.119056e-003
1.911141e+003,6.199660e-003
1.913070e+003,6.185324e-003
1.914998e+003,6.004556e-003
1.916927e+003,5.893850e-003
1.918855e+003,5.949133e-003
1.920784e+003,5.860336e-003
1.922712e+003,5.621055e-003
1.924641e+003,5.651088e-003
1.926569e+003,5.532859e-003
1.928498e+003,5.397785e-003
1.930426e+003,5.494017e-003
1.932355e+003,5.476093e-003
1.934283e+003,5.548385e-003
1.936212e+003,5.134430e-003
1.938140e+003,4.229469e-003
1.940069e+003,4.103712e-003
1.941997e+003,4.133330e-003
1.943926e+003,4.244640e-003
1.945854e+003,4.238878e-003
1.947783e+003,3.991960e-003
1.949711e+003,3.677153e-003
1.951640e+003,3.312669e-003
1.953568e+003,3.109284e-003
1.955497e+003,2.695578e-003
1.957425e+003,2.620911e-003
1.959354e+003,2.597255e-003
1.961282e+003,1.866014e-003
1.963211e+003,1.197364e-003
1.965139e+003,7.550948e-004
1.967068e+003,-5.162495e-005
1.968996e+003,-1.682464e-004
1.970925e+003,6.835620e-005
1.972853e+003,-4.249020e-004
1.974782e+003,-1.223992e-003
1.976710e+003,-1.625109e-003
1.978639e+003,-7.203821e-004
1.980567e+003,-9.089126e-005
1.982496e+003,6.963216e-004
1.984424e+003,1.378307e-003
1.986353e+003,1.073425e-003
1.988281e+003,1.004422e-003
1.990210e+003,1.234901e-003
1.992138e+003,1.783523e-003
1.994067e+003,1.422358e-003
1.995995e+003,1.111529e-003
1.997924e+003,1.125829e-003
1.999852e+003,7.151220e-004
2.001781e+003,-3.272994e-004
2.003709e+003,-7.650251e-004
2.005638e+003,-1.543070e-003
2.007566e+003,-1.608050e-003
2.009495e+003,-1.765476e-003
2.011423e+003,-2.682660e-003
2.013352e+003,-1.787241e-003
2.015280e+003,-1.518000e-003
2.017208e+003,-2.177793e-003
2.019137e+003,-2.377445e-003
2.021066e+003,-2.452977e-003
2.022994e+003,-3.410074e-003
2.024922e+003,-3.296578e-003
2.026851e+003,-2.467269e-003
2.028780e+003,-2.215150e-003
2.030708e+003,-2.310329e-003
2.032636e+003,-2.277474e-003
2.034565e+003,-3.276047e-003
2.036494e+003,-2.340567e-003
2.038422e+003,-1.776421e-003
2.040350e+003,-1.938165e-003
2.042279e+003,-1.256655e-003
2.044208e+003,-2.004007e-004
2.046136e+003,1.124067e-004
2.048064e+003,6.285677e-004
2.049993e+003,7.544571e-004
2.051921e+003,1.432370e-003
2.053850e+003,2.446488e-003
2.055778e+003,2.895520e-003
2.057707e+003,2.749707e-003
2.059635e+003,2.222003e-003
2.061564e+003,2.196151e-003
2.063492e+003,2.690796e-003
2.065421e+003,2.791110e-003
2.067349e+003,2.706566e-003
2.069278e+003,2.608254e-003
2.071206e+003,2.848967e-003
2.073135e+003,2.894274e-003
2.075063e+003,3.246341e-003
2.076992e+003,3.721216e-003
2.078920e+003,3.806576e-003
2.080849e+003,4.080717e-003
2.082777e+003,4.167331e-003
2.084706e+003,3.943799e-003
2.086634e+003,3.924971e-003
2.088563e+003,3.857368e-003
2.090491e+003,3.678296e-003
2.092420e+003,3.889261e-003
2.094348e+003,4.304721e-003
2.096277e+003,4.052282e-003
2.098205e+003,4.079177e-003
2.100134e+003,4.114331e-003
2.102062e+003,4.143031e-003
2.103991e+003,4.079746e-003
2.105919e+003,4.328861e-003
2.107848e+003,4.311593e-003
2.109776e+003,4.473526e-003
2.111705e+003,4.570118e-003
2.113633e+003,4.580665e-003
2.115562e+003,4.501915e-003
2.117490e+003,4.246342e-003
2.119419e+003,4.133063e-003
2.121347e+003,4.282112e-003
2.123276e+003,4.157550e-003
2.125204e+003,4.051149e-003
2.127133e+003,3.969586e-003
2.129061e+003,3.541386e-003
2.130990e+003,2.934334e-003
2.132918e+003,2.504787e-003
2.134847e+003,1.770876e-003
2.136775e+003,1.234272e-003
2.138704e+003,9.907103e-004
2.140632e+003,9.710506e-004
2.142561e+003,9.876551e-004
2.144489e+003,2.667446e-004
2.146418e+003,-1.049841e-003
2.148346e+003,-1.647477e-003
2.150275e+003,-1.645364e-003
2.152203e+003,-1.996930e-003
2.154132e+003,-3.406140e-003
2.156060e+003,-5.428672e-003
2.157989e+003,-7.953446e-003
2.159917e+003,-8.464399e-003
2.161846e+003,-5.914067e-003
2.163774e+003,-4.649015e-003
2.165703e+003,-4.395509e-003
2.167631e+003,-3.606863e-003
2.169560e+003,-1.813016e-003
2.171488e+003,-1.143771e-003
2.173417e+003,-1.788829e-003
2.175345e+003,-2.458499e-003
2.177274e+003,-2.260673e-003
2.179202e+003,-2.373323e-003
2.181131e+003,-1.589477e-003
2.183059e+003,-1.318521e-003
2.184988e+003,-7.610512e-004
2.186916e+003,-9.099009e-004
2.188845e+003,1.574815e-004
2.190773e+003,9.004226e-004
2.192702e+003,9.415296e-004
2.194630e+003,7.244501e-004
2.196559e+003,1.216495e-003
2.198487e+003,1.636954e-003
2.200416e+003,1.949137e-003
2.202344e+003,2.132332e-003
2.204273e+003,1.868965e-003
2.206201e+003,1.893524e-003
2.208130e+003,2.381866e-003
2.210058e+003,2.936136e-003
2.211987e+003,3.008463e-003
2.213915e+003,2.807756e-003
2.215844e+003,2.698986e-003
2.217772e+003,2.530748e-003
2.219701e+003,2.688950e-003
2.221629e+003,3.028349e-003
2.223558e+003,3.446391e-003
2.225486e+003,4.013158e-003
2.227415e+003,4.189063e-003
2.229343e+003,4.141927e-003
2.231272e+003,4.339769e-003
2.233200e+003,4.622011e-003
2.235129e+003,4.468844e-003
2.237057e+003,4.381201e-003
2.238986e+003,4.742851e-003
2.240914e+003,4.747771e-003
2.242843e+003,4.604841e-003
2.244771e+003,4.665650e-003
2.246700e+003,5.167826e-003
2.248628e+003,5.115893e-003
2.250557e+003,4.948199e-003
2.252485e+003,5.234497e-003
2.254414e+003,5.488021e-003
2.256342e+003,5.747478e-003
2.258271e+003,5.548111e-003
2.260199e+003,5.600355e-003
2.262128e+003,5.764063e-003
2.264056e+003,5.679782e-003
2.265985e+003,5.691402e-003
2.267913e+003,5.840825e-003
2.269842e+003,6.042302e-003
2.271770e+003,6.013896e-003
2.273699e+003,6.078299e-003
2.275627e+003,6.447055e-003
2.277556e+003,6.720333e-003
2.279484e+003,6.774052e-003
2.281413e+003,6.731804e-003
2.283341e+003,6.693869e-003
2.285270e+003,6.762868e-003
2.287198e+003,6.861007e-003
2.289127e+003,6.969274e-003
2.291055e+003,7.063017e-003
2.292984e+003,7.101371e-003
2.294912e+003,7.090809e-003
2.296841e+003,7.099537e-003
2.298769e+003,7.189710e-003
2.300698e+003,7.166864e-003
2.302626e+003,7.207468e-003
2.304555e+003,7.392710e-003
2.306483e+003,7.388826e-003
2.308412e+003,7.344652e-003
2.310340e+003,7.275245e-003
2.312269e+003,7.264394e-003
2.314197e+003,7.321021e-003
2.316125e+003,7.142990e-003
2.318054e+003,7.161287e-003
2.319983e+003,7.144666e-003
2.321911e+003,6.858984e-003
2.323840e+003,7.111170e-003
2.325768e+003,7.452499e-003
2.327697e+003,7.564105e-003
2.329625e+003,7.537496e-003
2.331553e+003,7.721033e-003
2.333482e+003,7.744983e-003
2.335411e+003,7.847964e-003
2.337339e+003,8.069159e-003
2.339268e+003,8.303238e-003
2.341196e+003,7.997847e-003
2.343125e+003,7.859002e-003
2.345053e+003,8.009948e-003
2.346981e+003,8.031601e-003
2.348910e+003,7.969354e-003
2.350839e+003,8.126004e-003
2.352767e+003,8.130554e-003
2.354696e+003,7.837191e-003
2.356624e+003,7.863410e-003
2.358552e+003,7.915821e-003
2.360481e+003,8.020973e-003
2.362409e+003,8.156533e-003
2.364338e+003,7.897608e-003
2.366267e+003,7.748721e-003
2.368195e+003,7.914077e-003
2.370124e+003,8.258090e-003
2.372052e+003,8.108851e-003
2.373980e+003,7.972063e-003
2.375909e+003,7.960807e-003
2.377838e+003,8.095535e-003
2.379766e+003,8.179096e-003
2.381695e+003,8.027087e-003
2.383623e+003,7.889145e-003
2.385552e+003,7.854720e-003
2.387480e+003,7.796025e-003
2.389408e+003,7.719293e-003
2.391337e+003,7.765788e-003
2.393266e+003,7.780294e-003
2.395194e+003,7.790832e-003
2.397123e+003,7.758056e-003
2.399051e+003,7.732505e-003
2.400979e+003,7.771999e-003
2.402908e+003,7.854921e-003
2.404836e+003,7.794498e-003
2.406765e+003,7.829348e-003
2.408694e+003,7.958815e-003
2.410622e+003,7.971740e-003
2.412551e+003,7.787718e-003
2.414479e+003,7.894565e-003
2.416407e+003,7.903001e-003
2.418336e+003,7.754829e-003
2.420264e+003,7.716984e-003
2.422193e+003,7.690408e-003
2.424122e+003,7.640058e-003
2.426050e+003,7.586881e-003
2.427979e+003,7.648893e-003
2.429907e+003,7.652771e-003
2.431835e+003,7.515809e-003
2.433764e+003,7.484627e-003
2.435692e+003,7.421931e-003
2.437621e+003,7.352740e-003
2.439550e+003,7.407336e-003
2.441478e+003,7.556536e-003
2.443406e+003,7.574642e-003
2.445335e+003,7.485705e-003
2.447263e+003,7.644138e-003
2.449192e+003,7.684708e-003
2.451121e+003,7.670341e-003
2.453049e+003,7.661371e-003
2.454978e+003,7.645824e-003
2.456906e+003,7.598548e-003
2.458834e+003,7.542342e-003
2.460763e+003,7.546455e-003
2.462691e+003,7.577980e-003
2.464620e+003,7.589950e-003
2.466549e+003,7.673815e-003
2.468477e+003,7.668655e-003
2.470406e+003,7.542173e-003
2.472334e+003,7.422841e-003
2.474262e+003,7.505022e-003
2.476191e+003,7.657661e-003
2.478119e+003,7.577980e-003
2.480048e+003,7.568033e-003
2.481977e+003,7.520799e-003
2.483905e+003,7.500235e-003
2.485833e+003,7.580104e-003
2.487762e+003,7.601785e-003
2.489690e+003,7.675434e-003
2.491619e+003,7.723089e-003
2.493547e+003,7.812682e-003
2.495476e+003,7.864502e-003
2.497405e+003,7.860487e-003
2.499333e+003,7.862377e-003
2.501261e+003,7.837647e-003
2.503190e+003,7.895409e-003
2.505118e+003,7.954832e-003
2.507047e+003,7.901078e-003
2.508975e+003,7.912517e-003
2.510904e+003,7.823781e-003
2.512833e+003,7.758573e-003
2.514761e+003,7.812243e-003
2.516689e+003,7.879112e-003
2.518618e+003,7.943696e-003
2.520546e+003,7.964214e-003
2.522475e+003,7.846115e-003
2.524403e+003,7.840649e-003
2.526332e+003,7.895139e-003
2.528260e+003,7.800605e-003
2.530189e+003,7.783771e-003
2.532117e+003,7.935901e-003
2.534046e+003,8.035325e-003
2.535974e+003,8.058717e-003
2.537903e+003,8.066683e-003
2.539831e+003,8.160803e-003
2.541760e+003,8.258590e-003
2.543688e+003,8.279562e-003
2.545617e+003,8.272031e-003
2.547545e+003,8.329378e-003
2.549474e+003,8.361635e-003
2.551402e+003,8.273685e-003
2.553331e+003,8.324075e-003
2.555259e+003,8.368695e-003
2.557188e+003,8.447777e-003
2.559116e+003,8.510994e-003
2.561045e+003,8.484065e-003
2.562973e+003,8.412980e-003
2.564902e+003,8.491836e-003
2.566830e+003,8.681936e-003
2.568759e+003,8.695357e-003
2.570687e+003,8.545258e-003
2.572616e+003,8.535797e-003
2.574544e+003,8.687311e-003
2.576473e+003,8.772876e-003
2.578401e+003,8.709013e-003
2.580330e+003,8.790492e-003
2.582258e+003,8.837797e-003
2.584187e+003,8.820890e-003
2.586115e+003,8.748060e-003
2.588044e+003,8.782174e-003
2.589972e+003,8.823087e-003
2.591901e+003,8.688798e-003
2.593829e+003,8.675311e-003
2.595758e+003,8.749074e-003
2.597686e+003,8.713611e-003
2.599615e+003,8.658207e-003
2.601543e+003,8.745220e-003
2.603472e+003,8.895658e-003
2.605400e+003,8.916864e-003
2.607329e+003,8.955287e-003
2.609257e+003,9.015904e-003
2.611186e+003,8.939491e-003
2.613114e+003,8.910573e-003
2.615043e+003,8.960293e-003
2.616971e+003,9.079541e-003
2.618900e+003,9.081774e-003
2.620828e+003,9.075109e-003
2.622757e+003,9.097000e-003
2.624685e+003,9.119670e-003
2.626614e+003,9.073282e-003
2.628542e+003,9.042528e-003
2.630471e+003,9.134592e-003
2.632399e+003,9.244750e-003
2.634328e+003,9.233581e-003
2.636256e+003,9.210058e-003
2.638185e+003,9.246578e-003
2.640113e+003,9.269053e-003
2.642042e+003,9.292139e-003
2.643970e+003,9.367362e-003
2.645899e+003,9.362757e-003
2.647827e+003,9.413002e-003
2.649756e+003,9.503655e-003
2.651684e+003,9.511343e-003
2.653613e+003,9.493664e-003
2.655541e+003,9.446051e-003
2.657470e+003,9.488720e-003
2.659398e+003,9.526211e-003
2.661327e+003,9.530174e-003
2.663255e+003,9.583183e-003
2.665184e+003,9.570649e-003
2.667112e+003,9.462034e-003
2.669041e+003,9.475343e-003
2.670969e+003,9.587925e-003
2.672898e+003,9.573630e-003
2.674826e+003,9.552156e-003
2.676755e+003,9.539894e-003
2.678683e+003,9.498914e-003
2.680612e+003,9.524857e-003
2.682540e+003,9.540436e-003
2.684469e+003,9.571360e-003
2.686397e+003,9.592227e-003
2.688326e+003,9.549377e-003
2.690254e+003,9.552934e-003
2.692183e+003,9.606623e-003
2.694111e+003,9.582437e-003
2.696040e+003,9.517270e-003
2.697968e+003,9.509446e-003
2.699897e+003,9.540267e-003
2.701825e+003,9.590092e-003
2.703754e+003,9.589821e-003
2.705682e+003,9.601949e-003
2.707611e+003,9.649206e-003
2.709539e+003,9.604184e-003
2.711468e+003,9.581895e-003
2.713396e+003,9.645683e-003
2.715325e+003,9.697486e-003
2.717253e+003,9.693488e-003
2.719182e+003,9.666993e-003
2.721110e+003,9.675937e-003
2.723039e+003,9.652154e-003
2.724967e+003,9.631963e-003
2.726896e+003,9.645073e-003
2.728824e+003,9.622274e-003
2.730753e+003,9.650561e-003
2.732681e+003,9.669195e-003
2.734610e+003,9.633182e-003
2.736538e+003,9.718595e-003
2.738467e+003,9.721679e-003
2.740395e+003,9.709006e-003
2.742324e+003,9.785622e-003
2.744252e+003,9.840933e-003
2.746181e+003,9.841373e-003
2.748109e+003,9.819208e-003
2.750038e+003,9.778167e-003
2.751966e+003,9.757427e-003
2.753895e+003,9.794976e-003
2.755823e+003,9.832358e-003
2.757752e+003,9.848932e-003
2.759680e+003,9.892285e-003
2.761609e+003,9.912284e-003
2.763537e+003,9.917336e-003
2.765466e+003,9.916319e-003
2.767394e+003,9.936760e-003
2.769323e+003,9.958254e-003
2.771251e+003,9.984699e-003
2.773180e+003,1.005387e-002
2.775108e+003,1.005634e-002
2.777037e+003,9.999922e-003
2.778965e+003,1.001498e-002
2.780894e+003,1.009728e-002
2.782822e+003,1.009962e-002
2.784750e+003,1.009209e-002
2.786679e+003,1.012173e-002
2.788608e+003,1.016989e-002
2.790536e+003,1.019381e-002
2.792465e+003,1.019564e-002
2.794393e+003,1.022023e-002
2.796322e+003,1.016111e-002
2.798250e+003,1.023628e-002
2.800178e+003,1.034261e-002
2.802107e+003,1.033365e-002
2.804036e+003,1.033596e-002
2.805964e+003,1.036131e-002
2.807893e+003,1.041893e-002
2.809821e+003,1.042595e-002
2.811750e+003,1.044696e-002
2.813678e+003,1.044927e-002
2.815606e+003,1.045704e-002
2.817535e+003,1.052018e-002
2.819464e+003,1.058923e-002
2.821392e+003,1.061018e-002
2.823321e+003,1.058899e-002
2.825249e+003,1.069453e-002
2.827177e+003,1.083403e-002
2.829106e+003,1.083226e-002
2.831034e+003,1.085706e-002
2.832963e+003,1.099029e-002
2.834892e+003,1.103559e-002
2.836820e+003,1.116700e-002
2.838749e+003,1.129852e-002
2.840677e+003,1.143536e-002
2.842605e+003,1.162821e-002
2.844534e+003,1.181142e-002
2.846462e+003,1.204392e-002
2.848391e+003,1.226466e-002
2.850320e+003,1.245754e-002
2.852248e+003,1.250688e-002
2.854177e+003,1.248370e-002
2.856105e+003,1.244711e-002
2.858033e+003,1.237991e-002
2.859962e+003,1.230106e-002
2.861890e+003,1.227096e-002
2.863819e+003,1.221258e-002
2.865748e+003,1.215816e-002
2.867676e+003,1.216787e-002
2.869604e+003,1.217721e-002
2.871533e+003,1.215591e-002
2.873461e+003,1.221050e-002
2.875390e+003,1.220481e-002
2.877319e+003,1.219905e-002
2.879247e+003,1.225191e-002
2.881176e+003,1.227038e-002
2.883104e+003,1.229908e-002
2.885032e+003,1.233354e-002
2.886961e+003,1.237837e-002
2.888889e+003,1.244789e-002
2.890818e+003,1.255303e-002
2.892747e+003,1.263973e-002
2.894675e+003,1.268828e-002
2.896604e+003,1.267006e-002
2.898532e+003,1.268231e-002
2.900460e+003,1.272830e-002
2.902389e+003,1.277764e-002
2.904317e+003,1.282313e-002
2.906246e+003,1.292668e-002
2.908175e+003,1.306252e-002
2.910103e+003,1.313150e-002
2.912031e+003,1.319920e-002
2.913960e+003,1.331490e-002
2.915888e+003,1.349680e-002
2.917817e+003,1.359317e-002
2.919745e+003,1.353594e-002
2.921674e+003,1.348296e-002
2.923603e+003,1.342168e-002
2.925531e+003,1.328795e-002
2.927459e+003,1.313232e-002
2.929388e+003,1.301776e-002
2.931316e+003,1.290634e-002
2.933245e+003,1.281787e-002
2.935173e+003,1.265782e-002
2.937102e+003,1.252504e-002
2.939031e+003,1.235286e-002
2.940959e+003,1.221402e-002
2.942887e+003,1.208103e-002
2.944816e+003,1.192564e-002
2.946744e+003,1.177358e-002
2.948673e+003,1.160850e-002
2.950601e+003,1.145708e-002
2.952530e+003,1.133161e-002
2.954458e+003,1.118809e-002
2.956387e+003,1.107857e-002
2.958315e+003,1.107764e-002
2.960244e+003,1.100612e-002
2.962172e+003,1.088547e-002
2.964101e+003,1.079397e-002
2.966029e+003,1.072115e-002
2.967958e+003,1.061423e-002
2.969886e+003,1.056810e-002
2.971815e+003,1.053861e-002
2.973743e+003,1.044809e-002
2.975672e+003,1.038041e-002
2.977600e+003,1.035058e-002
2.979529e+003,1.031874e-002
2.981457e+003,1.029525e-002
2.983386e+003,1.031504e-002
2.985314e+003,1.025390e-002
2.987243e+003,1.013525e-002
2.989171e+003,1.007721e-002
2.991100e+003,1.005879e-002
2.993028e+003,1.009339e-002
2.994957e+003,1.012977e-002
2.996885e+003,1.013943e-002
2.998814e+003,1.010861e-002
3.000742e+003,1.007230e-002
3.002671e+003,1.005542e-002
3.004599e+003,1.009168e-002
3.006528e+003,1.016868e-002
3.008456e+003,1.011667e-002
3.010385e+003,1.007608e-002
3.012313e+003,1.011649e-002
3.014242e+003,1.014838e-002
3.016170e+003,1.016651e-002
3.018099e+003,1.017958e-002
3.020027e+003,1.020535e-002
3.021956e+003,1.021443e-002
3.023884e+003,1.022947e-002
3.025813e+003,1.023539e-002
3.027741e+003,1.021025e-002
3.029670e+003,1.019713e-002
3.031598e+003,1.022288e-002
3.033527e+003,1.024458e-002
3.035455e+003,1.027237e-002
3.037384e+003,1.027911e-002
3.039312e+003,1.030810e-002
3.041241e+003,1.040171e-002
3.043169e+003,1.042455e-002
3.045098e+003,1.043003e-002
3.047026e+003,1.045146e-002
3.048955e+003,1.045447e-002
3.050883e+003,1.050290e-002
3.052812e+003,1.051387e-002
3.054740e+003,1.054025e-002
3.056669e+003,1.057417e-002
3.058597e+003,1.063090e-002
3.060526e+003,1.060690e-002
3.062454e+003,1.063077e-002
3.064383e+003,1.064100e-002
3.066311e+003,1.068556e-002
3.068240e+003,1.068588e-002
3.070168e+003,1.077554e-002
3.072097e+003,1.084827e-002
3.074025e+003,1.083091e-002
3.075954e+003,1.087040e-002
3.077882e+003,1.093739e-002
3.079811e+003,1.092365e-002
3.081739e+003,1.096932e-002
3.083668e+003,1.103537e-002
3.085596e+003,1.098925e-002
3.087525e+003,1.104003e-002
3.089453e+003,1.105217e-002
3.091382e+003,1.107172e-002
3.093310e+003,1.116187e-002
3.095239e+003,1.118758e-002
3.097167e+003,1.120160e-002
3.099096e+003,1.122079e-002
3.101024e+003,1.118445e-002
3.102953e+003,1.120120e-002
3.104881e+003,1.126302e-002
3.106810e+003,1.135973e-002
3.108738e+003,1.136692e-002
3.110667e+003,1.133807e-002
3.112595e+003,1.137885e-002
3.114524e+003,1.143198e-002
3.116452e+003,1.147033e-002
3.118381e+003,1.149334e-002
3.120309e+003,1.157101e-002
3.122238e+003,1.160529e-002
3.124166e+003,1.169862e-002
3.126095e+003,1.173208e-002
3.128023e+003,1.176232e-002
3.129952e+003,1.181086e-002
3.131880e+003,1.181056e-002
3.133809e+003,1.178225e-002
3.135737e+003,1.183229e-002
3.137666e+003,1.196735e-002
3.139594e+003,1.198726e-002
3.141523e+003,1.203268e-002
3.143451e+003,1.203746e-002
3.145380e+003,1.210605e-002
3.147308e+003,1.218145e-002
3.149237e+003,1.221586e-002
3.151165e+003,1.229146e-002
3.153094e+003,1.232399e-002
3.155022e+003,1.235257e-002
3.156951e+003,1.238880e-002
3.158879e+003,1.242266e-002
3.160808e+003,1.249423e-002
3.162736e+003,1.257892e-002
3.164665e+003,1.258261e-002
3.166593e+003,1.261814e-002
3.168522e+003,1.262625e-002
3.170450e+003,1.265778e-002
3.172379e+003,1.277905e-002
3.174307e+003,1.289182e-002
3.176236e+003,1.302648e-002
3.178164e+003,1.303823e-002
3.180093e+003,1.297473e-002
3.182021e+003,1.299584e-002
3.183950e+003,1.309468e-002
3.185878e+003,1.313179e-002
3.187807e+003,1.319112e-002
3.189735e+003,1.330271e-002
3.191664e+003,1.333528e-002
3.193592e+003,1.332219e-002
3.195521e+003,1.331819e-002
3.197449e+003,1.344541e-002
3.199378e+003,1.357968e-002
3.201306e+003,1.370161e-002
3.203235e+003,1.376522e-002
3.205163e+003,1.370070e-002
3.207092e+003,1.375658e-002
3.209020e+003,1.388586e-002
3.210948e+003,1.389395e-002
3.212877e+003,1.391274e-002
3.214806e+003,1.406798e-002
3.216734e+003,1.412990e-002
3.218663e+003,1.417868e-002
3.220591e+003,1.423214e-002
3.222520e+003,1.424343e-002
3.224448e+003,1.425195e-002
3.226376e+003,1.428017e-002
3.228305e+003,1.438884e-002
3.230234e+003,1.449729e-002
3.232162e+003,1.462987e-002
3.234091e+003,1.466514e-002
3.236019e+003,1.471104e-002
3.237948e+003,1.476097e-002
3.239876e+003,1.483584e-002
3.241804e+003,1.492318e-002
3.243733e+003,1.496505e-002
3.245662e+003,1.497180e-002
3.247590e+003,1.507000e-002
3.249519e+003,1.512679e-002
3.251447e+003,1.524810e-002
3.253375e+003,1.531657e-002
3.255304e+003,1.538318e-002
3.257232e+003,1.540205e-002
3.259161e+003,1.548476e-002
3.261090e+003,1.558582e-002
3.263018e+003,1.559021e-002
3.264947e+003,1.560168e-002
3.266875e+003,1.574492e-002
3.268803e+003,1.575277e-002
3.270732e+003,1.570358e-002
3.272660e+003,1.580946e-002
3.274589e+003,1.589300e-002
3.276518e+003,1.591173e-002
3.278446e+003,1.593824e-002
3.280375e+003,1.591888e-002
3.282303e+003,1.587315e-002
3.284231e+003,1.589810e-002
3.286160e+003,1.600731e-002
3.288088e+003,1.606463e-002
3.290017e+003,1.609733e-002
3.291946e+003,1.605846e-002
3.293874e+003,1.605070e-002
3.295802e+003,1.612256e-002
3.297731e+003,1.611549e-002
3.299659e+003,1.612076e-002
3.301588e+003,1.612008e-002
3.303516e+003,1.613189e-002
3.305445e+003,1.617885e-002
3.307374e+003,1.613845e-002
3.309302e+003,1.615145e-002
3.311230e+003,1.624496e-002
3.313159e+003,1.626111e-002
3.315087e+003,1.628498e-002
3.317016e+003,1.635852e-002
3.318944e+003,1.637476e-002
3.320873e+003,1.629875e-002
3.322802e+003,1.629412e-002
3.324730e+003,1.636973e-002
3.326658e+003,1.642377e-002
3.328587e+003,1.635464e-002
3.330515e+003,1.624360e-002
3.332444e+003,1.625945e-002
3.334372e+003,1.631051e-002
3.336301e+003,1.637190e-002
3.338229e+003,1.641844e-002
3.340158e+003,1.630085e-002
3.342086e+003,1.637572e-002
3.344015e+003,1.640849e-002
3.345943e+003,1.634573e-002
3.347872e+003,1.623413e-002
3.349800e+003,1.619099e-002
3.351729e+003,1.625644e-002
3.353657e+003,1.634801e-002
3.355586e+003,1.641943e-002
3.357514e+003,1.629956e-002
3.359443e+003,1.609326e-002
3.361371e+003,1.611571e-002
3.363300e+003,1.609225e-002
3.365229e+003,1.601343e-002
3.367157e+003,1.596562e-002
3.369085e+003,1.590254e-002
3.371014e+003,1.593104e-002
3.372942e+003,1.591863e-002
3.374871e+003,1.594979e-002
3.376799e+003,1.598179e-002
3.378728e+003,1.583274e-002
3.380656e+003,1.578243e-002
3.382585e+003,1.584490e-002
3.384513e+003,1.579110e-002
3.386442e+003,1.574495e-002
3.388370e+003,1.577573e-002
3.390299e+003,1.572743e-002
3.392227e+003,1.559921e-002
3.394156e+003,1.549719e-002
3.396084e+003,1.547084e-002
3.398013e+003,1.548559e-002
3.399941e+003,1.548767e-002
3.401870e+003,1.546933e-002
3.403798e+003,1.537467e-002
3.405727e+003,1.525236e-002
3.407655e+003,1.518604e-002
3.409584e+003,1.517451e-002
3.411512e+003,1.510596e-002
3.413441e+003,1.506561e-002
3.415369e+003,1.496927e-002
3.417298e+003,1.489328e-002
3.419226e+003,1.485577e-002
3.421155e+003,1.475479e-002
3.423083e+003,1.470221e-002
3.425012e+003,1.461996e-002
3.426940e+003,1.458576e-002
3.428869e+003,1.452851e-002
3.430797e+003,1.440109e-002
3.432726e+003,1.424588e-002
3.434654e+003,1.421098e-002
3.436583e+003,1.419121e-002
3.438511e+003,1.414067e-002
3.440440e+003,1.404711e-002
3.442368e+003,1.392467e-002
3.444297e+003,1.375439e-002
3.446225e+003,1.370967e-002
3.448154e+003,1.364963e-002
3.450082e+003,1.356767e-002
3.452011e+003,1.342780e-002
3.453939e+003,1.330105e-002
3.455868e+003,1.323717e-002
3.457796e+003,1.307719e-002
3.459725e+003,1.287670e-002
3.461653e+003,1.274258e-002
3.463582e+003,1.278406e-002
3.465510e+003,1.275069e-002
3.467439e+003,1.263221e-002
3.469367e+003,1.249063e-002
3.471296e+003,1.238274e-002
3.473224e+003,1.235651e-002
3.475153e+003,1.227174e-002
3.477081e+003,1.214828e-002
3.479010e+003,1.211842e-002
3.480938e+003,1.204070e-002
3.482867e+003,1.193292e-002
3.484795e+003,1.186134e-002
3.486724e+003,1.178124e-002
3.488652e+003,1.173505e-002
3.490581e+003,1.164949e-002
3.492509e+003,1.158762e-002
3.494438e+003,1.152982e-002
3.496366e+003,1.143482e-002
3.498295e+003,1.134659e-002
3.500223e+003,1.114252e-002
3.502152e+003,1.113195e-002
3.504080e+003,1.121207e-002
3.506009e+003,1.105132e-002
3.507937e+003,1.092902e-002
3.509866e+003,1.087840e-002
3.511794e+003,1.082934e-002
3.513723e+003,1.069538e-002
3.515651e+003,1.062199e-002
3.517580e+003,1.040851e-002
3.519508e+003,1.041476e-002
3.521437e+003,1.033983e-002
3.523365e+003,1.023528e-002
3.525294e+003,1.021605e-002
3.527222e+003,1.013933e-002
3.529151e+003,1.006580e-002
3.531079e+003,9.991642e-003
3.533008e+003,9.929826e-003
3.534936e+003,9.931523e-003
3.536865e+003,9.825011e-003
3.538793e+003,9.783076e-003
3.540722e+003,9.764540e-003
3.542650e+003,9.676790e-003
3.544579e+003,9.582807e-003
3.546507e+003,9.487729e-003
3.548436e+003,9.464121e-003
3.550364e+003,9.339801e-003
3.552293e+003,9.195726e-003
3.554221e+003,9.089966e-003
3.556150e+003,9.044595e-003
3.558078e+003,9.055794e-003
3.560007e+003,8.954939e-003
3.561935e+003,8.905718e-003
3.563864e+003,8.933133e-003
3.565792e+003,8.860197e-003
3.567721e+003,8.756460e-003
3.569649e+003,8.709811e-003
3.571578e+003,8.640734e-003
3.573506e+003,8.591919e-003
3.575435e+003,8.574693e-003
3.577363e+003,8.511905e-003
3.579292e+003,8.368836e-003
3.581220e+003,8.262756e-003
3.583149e+003,8.221186e-003
3.585077e+003,8.177524e-003
3.587006e+003,8.192165e-003
3.588934e+003,8.076979e-003
3.590863e+003,8.018652e-003
3.592791e+003,8.002964e-003
3.594720e+003,7.925379e-003
3.596648e+003,7.937917e-003
3.598577e+003,7.962919e-003
3.600505e+003,7.924046e-003
3.602434e+003,7.938885e-003
3.604362e+003,7.828199e-003
3.606291e+003,7.697683e-003
3.608219e+003,7.679372e-003
3.610148e+003,7.623614e-003
3.612076e+003,7.509054e-003
3.614005e+003,7.480709e-003
3.615933e+003,7.465215e-003
3.617862e+003,7.427520e-003
3.619790e+003,7.426752e-003
3.621719e+003,7.443339e-003
3.623647e+003,7.450123e-003
3.625576e+003,7.394385e-003
3.627504e+003,7.286541e-003
3.629433e+003,7.239460e-003
3.631361e+003,7.244018e-003
3.633290e+003,7.214648e-003
3.635218e+003,7.168794e-003
3.637146e+003,7.234725e-003
3.639075e+003,7.223633e-003
3.641004e+003,7.162081e-003
3.642932e+003,7.048694e-003
3.644861e+003,7.070050e-003
3.646789e+003,7.180000e-003
3.648718e+003,7.149800e-003
3.650646e+003,7.024513e-003
3.652574e+003,6.980050e-003
3.654503e+003,6.896085e-003
3.656432e+003,6.986161e-003
3.658360e+003,6.918292e-003
3.660289e+003,6.834570e-003
3.662217e+003,6.904318e-003
3.664146e+003,6.843978e-003
3.666074e+003,6.808564e-003
3.668002e+003,6.922788e-003
3.669931e+003,6.915305e-003
3.671860e+003,6.880880e-003
3.673788e+003,6.886119e-003
3.675717e+003,6.811268e-003
3.677645e+003,6.708894e-003
3.679573e+003,6.724814e-003
3.681502e+003,6.766048e-003
3.683430e+003,6.739171e-003
3.685359e+003,6.748668e-003
3.687288e+003,6.763077e-003
3.689216e+003,6.768381e-003
3.691145e+003,6.809793e-003
3.693073e+003,6.879295e-003
3.695001e+003,6.901662e-003
3.696930e+003,6.814383e-003
3.698858e+003,6.813116e-003
3.700787e+003,6.891401e-003
3.702716e+003,6.842932e-003
3.704644e+003,6.770146e-003
3.706573e+003,6.827410e-003
3.708501e+003,6.852617e-003
3.710429e+003,6.914946e-003
3.712358e+003,6.887060e-003
3.714286e+003,6.876050e-003
3.716215e+003,6.913621e-003
3.718144e+003,6.877039e-003
3.720072e+003,6.875352e-003
3.722000e+003,6.912761e-003
3.723929e+003,6.894555e-003
3.725857e+003,6.921469e-003
3.727786e+003,6.986288e-003
3.729714e+003,6.951313e-003
3.731643e+003,6.970474e-003
3.733572e+003,7.072524e-003
3.735500e+003,7.129471e-003
3.737428e+003,7.083776e-003
3.739357e+003,7.075604e-003
3.741285e+003,7.040486e-003
3.743214e+003,7.043574e-003
3.745142e+003,7.099515e-003
3.747071e+003,7.082893e-003
3.749000e+003,7.072557e-003
3.750928e+003,7.053125e-003
3.752856e+003,7.099689e-003
3.754785e+003,7.106780e-003
3.756713e+003,7.037784e-003
3.758642e+003,7.057390e-003
3.760570e+003,7.011212e-003
3.762499e+003,7.051094e-003
3.764427e+003,7.006878e-003
3.766356e+003,7.015279e-003
3.768284e+003,7.091498e-003
3.770213e+003,7.067495e-003
3.772141e+003,7.084867e-003
3.774070e+003,7.114131e-003
3.775998e+003,7.122243e-003
3.777927e+003,7.096409e-003
3.779855e+003,7.034517e-003
3.781784e+003,6.996856e-003
3.783712e+003,7.023777e-003
3.785641e+003,7.064880e-003
3.787569e+003,7.038512e-003
3.789498e+003,7.011159e-003
3.791426e+003,7.073944e-003
3.793355e+003,7.134412e-003
3.795283e+003,7.097747e-003
3.797212e+003,7.101002e-003
3.799140e+003,7.140329e-003
3.801069e+003,7.037781e-003
3.802997e+003,7.014424e-003
3.804926e+003,7.083494e-003
3.806854e+003,7.113604e-003
3.808783e+003,7.125453e-003
3.810711e+003,7.175269e-003
3.812640e+003,7.183235e-003
3.814568e+003,7.085890e-003
3.816497e+003,7.073330e-003
3.818425e+003,7.143733e-003
3.820354e+003,7.148740e-003
3.822282e+003,7.167987e-003
3.824211e+003,7.161689e-003
3.826139e+003,7.110774e-003
3.828068e+003,7.023157e-003
3.829996e+003,7.066897e-003
3.831925e+003,7.129511e-003
3.833853e+003,7.169379e-003
3.835782e+003,7.211880e-003
3.837710e+003,7.185879e-003
3.839639e+003,7.149040e-003
3.841567e+003,7.138231e-003
3.843496e+003,7.220126e-003
3.845424e+003,7.251911e-003
3.847353e+003,7.174339e-003
3.849281e+003,7.174330e-003
3.851210e+003,7.145436e-003
3.853138e+003,7.160444e-003
3.855067e+003,7.166822e-003
3.856995e+003,7.220001e-003
3.858924e+003,7.275862e-003
3.860852e+003,7.274962e-003
3.862781e+003,7.345981e-003
3.864709e+003,7.388940e-003
3.866638e+003,7.273173e-003
3.868566e+003,7.192752e-003
3.870495e+003,7.269416e-003
3.872423e+003,7.338876e-003
3.874352e+003,7.362514e-003
3.876280e+003,7.265630e-003
3.878209e+003,7.238813e-003
3.880137e+003,7.254800e-003
3.882066e+003,7.260415e-003
3.883994e+003,7.310314e-003
3.885923e+003,7.293344e-003
3.887851e+003,7.254521e-003
3.889780e+003,7.205843e-003
3.891708e+003,7.274466e-003
3.893637e+003,7.350863e-003
3.895565e+003,7.365519e-003
3.897494e+003,7.305460e-003
3.899422e+003,7.253603e-003
3.901351e+003,7.301961e-003
3.903279e+003,7.250634e-003
3.905208e+003,7.225730e-003
3.907136e+003,7.291701e-003
3.909065e+003,7.326418e-003
3.910993e+003,7.297342e-003
3.912922e+003,7.264365e-003
3.914850e+003,7.241317e-003
3.916779e+003,7.272162e-003
3.918707e+003,7.363580e-003
3.920636e+003,7.326544e-003
3.922564e+003,7.291839e-003
3.924493e+003,7.256812e-003
3.926421e+003,7.310039e-003
3.928350e+003,7.341499e-003
3.930278e+003,7.315097e-003
3.932207e+003,7.239754e-003
3.934135e+003,7.238324e-003
3.936064e+003,7.302897e-003
3.937992e+003,7.281727e-003
3.939921e+003,7.257455e-003
3.941849e+003,7.306775e-003
3.943778e+003,7.320681e-003
3.945706e+003,7.253929e-003
3.947635e+003,7.274756e-003
3.949563e+003,7.366743e-003
3.951492e+003,7.382127e-003
3.953420e+003,7.251445e-003
3.955349e+003,7.290266e-003
3.957277e+003,7.309236e-003
3.959206e+003,7.334944e-003
3.961134e+003,7.329256e-003
3.963063e+003,7.276304e-003
3.964991e+003,7.279778e-003
3.966920e+003,7.296537e-003
3.968848e+003,7.287352e-003
3.970777e+003,7.280570e-003
3.972705e+003,7.314724e-003
3.974634e+003,7.333555e-003
3.976562e+003,7.319689e-003
3.978491e+003,7.324964e-003
3.980419e+003,7.313058e-003
3.982348e+003,7.265179e-003
3.984276e+003,7.265409e-003
3.986205e+003,7.359282e-003
3.988133e+003,7.387632e-003
3.990062e+003,7.338257e-003
3.991990e+003,7.340742e-003
3.993919e+003,7.398311e-003
3.995847e+003,7.367827e-003
3.997776e+003,7.283504e-003
3.999704e+003,7.283492e-003
4.001633e+003,0.000000e+000
