3.991989e+002,4.165268e-002
4.011274e+002,3.931115e-002
4.030559e+002,4.097448e-002
4.049844e+002,4.225696e-002
4.069129e+002,4.219068e-002
4.088414e+002,4.112770e-002
4.107699e+002,4.140392e-002
4.126984e+002,4.074122e-002
4.146269e+002,4.109131e-002
4.165554e+002,4.209674e-002
4.184839e+002,4.162912e-002
4.204124e+002,4.244954e-002
4.223409e+002,4.329204e-002
4.242694e+002,4.292038e-002
4.261979e+002,4.222322e-002
4.281264e+002,4.176947e-002
4.300549e+002,4.222577e-002
4.319834e+002,4.194238e-002
4.339119e+002,4.124394e-002
4.358404e+002,3.973085e-002
4.377689e+002,3.978303e-002
4.396974e+002,4.092970e-002
4.416259e+002,4.122034e-002
4.435544e+002,4.037871e-002
4.454829e+002,4.009086e-002
4.474114e+002,3.946197e-002
4.493399e+002,3.952438e-002
4.512684e+002,3.904111e-002
4.531969e+002,3.935682e-002
4.551254e+002,3.986482e-002
4.570539e+002,3.958971e-002
4.589824e+002,3.869303e-002
4.609109e+002,3.926973e-002
4.628394e+002,3.996539e-002
4.647679e+002,3.956187e-002
4.666964e+002,3.865952e-002
4.686249e+002,3.867379e-002
4.705533e+002,3.853936e-002
4.724819e+002,3.860835e-002
4.744103e+002,3.807173e-002
4.763389e+002,3.799386e-002
4.782673e+002,3.801010e-002
4.801959e+002,3.806153e-002
4.821243e+002,3.808829e-002
4.840529e+002,3.824783e-002
4.859813e+002,3.843864e-002
4.879099e+002,3.844650e-002
4.898383e+002,3.831156e-002
4.917668e+002,3.809639e-002
4.936953e+002,3.800055e-002
4.956238e+002,3.826162e-002
4.975523e+002,3.804315e-002
4.994808e+002,3.808334e-002
5.014093e+002,3.774657e-002
5.033378e+002,3.759874e-002
5.052663e+002,3.760033e-002
5.071948e+002,3.762356e-002
5.091233e+002,3.755777e-002
5.110518e+002,3.777813e-002
5.129803e+002,3.780968e-002
5.149088e+002,3.780220e-002
5.168373e+002,3.799491e-002
5.187658e+002,3.794121e-002
5.206943e+002,3.785238e-002
5.226228e+002,3.810063e-002
5.245513e+002,3.797462e-002
5.264798e+002,3.798616e-002
5.284083e+002,3.814107e-002
5.303368e+002,3.775460e-002
5.322653e+002,3.751698e-002
5.341938e+002,3.761391e-002
5.361223e+002,3.762562e-002
5.380508e+002,3.743441e-002
5.399792e+002,3.742008e-002
5.419078e+002,3.703900e-002
5.438363e+002,3.662676e-002
5.457648e+002,3.678678e-002
5.476932e+002,3.695050e-002
5.496218e+002,3.652551e-002
5.515503e+002,3.620040e-002
5.534788e+002,3.701736e-002
5.554072e+002,3.753804e-002
5.573358e+002,3.805842e-002
5.592643e+002,3.776136e-002
5.611927e+002,3.750380e-002
5.631212e+002,3.700642e-002
5.650497e+002,3.697305e-002
5.669783e+002,3.664360e-002
5.689067e+002,3.628450e-002
5.708352e+002,3.609665e-002
5.727637e+002,3.606788e-002
5.746923e+002,3.584641e-002
5.766207e+002,3.572095e-002
5.785492e+002,3.600362e-002
5.804777e+002,3.691038e-002
5.824063e+002,3.607779e-002
5.843347e+002,3.521638e-002
5.862632e+002,3.516679e-002
5.881917e+002,3.535359e-002
5.901202e+002,3.544616e-002
5.920487e+002,3.529914e-002
5.939772e+002,3.508510e-002
5.959057e+002,3.479207e-002
5.978342e+002,3.462723e-002
5.997627e+002,3.465568e-002
6.016912e+002,3.441449e-002
6.036197e+002,3.430862e-002
6.055482e+002,3.418393e-002
6.074767e+002,3.383076e-002
6.094052e+002,3.358447e-002
6.113337e+002,3.359600e-002
6.132622e+002,3.347576e-002
6.151907e+002,3.319506e-002
6.171192e+002,3.307225e-002
6.190477e+002,3.270284e-002
6.209762e+002,3.233059e-002
6.229047e+002,3.195047e-002
6.248332e+002,3.147327e-002
6.267617e+002,3.108912e-002
6.286902e+002,3.096036e-002
6.306187e+002,3.073643e-002
6.325472e+002,3.052207e-002
6.344756e+002,3.059192e-002
6.364042e+002,3.038947e-002
6.383326e+002,3.035123e-002
6.402612e+002,3.052296e-002
6.421896e+002,3.056540e-002
6.441182e+002,3.041082e-002
6.460466e+002,3.056462e-002
6.479752e+002,3.085840e-002
6.499036e+002,3.078334e-002
6.518322e+002,3.057841e-002
6.537606e+002,3.037557e-002
6.556891e+002,3.014917e-002
6.576177e+002,3.025932e-002
6.595461e+002,3.036097e-002
6.614746e+002,3.018614e-002
6.634031e+002,2.977329e-002
6.653317e+002,2.963109e-002
6.672601e+002,3.147348e-002
6.691886e+002,3.208533e-002
6.711171e+002,2.956022e-002
6.730457e+002,2.880396e-002
6.749741e+002,2.823709e-002
6.769026e+002,2.799713e-002
6.788311e+002,2.759006e-002
6.807596e+002,2.705534e-002
6.826881e+002,2.667096e-002
6.846166e+002,2.626027e-002
6.865451e+002,2.578091e-002
6.884736e+002,2.555197e-002
6.904021e+002,2.536494e-002
6.923306e+002,2.512636e-002
6.942591e+002,2.488562e-002
6.961876e+002,2.467890e-002
6.981161e+002,2.443599e-002
7.000446e+002,2.420948e-002
7.019731e+002,2.402377e-002
7.039016e+002,2.383194e-002
7.058301e+002,2.355897e-002
7.077585e+002,2.324579e-002
7.096871e+002,2.327879e-002
7.116156e+002,2.330193e-002
7.135441e+002,2.311878e-002
7.154725e+002,2.304271e-002
7.174011e+002,2.302115e-002
7.193296e+002,2.315376e-002
7.212581e+002,2.277156e-002
7.231865e+002,2.234595e-002
7.251151e+002,2.227336e-002
7.270436e+002,2.206366e-002
7.289720e+002,2.184820e-002
7.309005e+002,2.174480e-002
7.328290e+002,2.145499e-002
7.347576e+002,2.113269e-002
7.366860e+002,2.110266e-002
7.386145e+002,2.099718e-002
7.405430e+002,2.090622e-002
7.424716e+002,2.073477e-002
7.444000e+002,2.047201e-002
7.463285e+002,2.014390e-002
7.482570e+002,1.997560e-002
7.501855e+002,1.981420e-002
7.521140e+002,1.963324e-002
7.540425e+002,1.958901e-002
7.559710e+002,1.962482e-002
7.578995e+002,1.953369e-002
7.598280e+002,1.930386e-002
7.617565e+002,1.906360e-002
7.636850e+002,1.898294e-002
7.656135e+002,1.895885e-002
7.675420e+002,1.893175e-002
7.694705e+002,1.886392e-002
7.713990e+002,1.889773e-002
7.733275e+002,1.887129e-002
7.752560e+002,1.871130e-002
7.771844e+002,1.865437e-002
7.791130e+002,1.868577e-002
7.810415e+002,1.868387e-002
7.829700e+002,1.854173e-002
7.848984e+002,1.841995e-002
7.868270e+002,1.842092e-002
7.887555e+002,1.838898e-002
7.906840e+002,1.848727e-002
7.926124e+002,1.842154e-002
7.945410e+002,1.834667e-002
7.964695e+002,1.827109e-002
7.983979e+002,1.824935e-002
8.003264e+002,1.819718e-002
8.022549e+002,1.815022e-002
8.041835e+002,1.813734e-002
8.061119e+002,1.811295e-002
8.080404e+002,1.810158e-002
8.099689e+002,1.819465e-002
8.118975e+002,1.824120e-002
8.138259e+002,1.816622e-002
8.157545e+002,1.807899e-002
8.176830e+002,1.804590e-002
8.196115e+002,1.800656e-002
8.215399e+002,1.786799e-002
8.234684e+002,1.781406e-002
8.253970e+002,1.788321e-002
8.273254e+002,1.781299e-002
8.292539e+002,1.782266e-002
8.311824e+002,1.786053e-002
8.331110e+002,1.789761e-002
8.350394e+002,1.794281e-002
8.369679e+002,1.792983e-002
8.388964e+002,1.789847e-002
8.408250e+002,1.777388e-002
8.427534e+002,1.787458e-002
8.446819e+002,1.802666e-002
8.466104e+002,1.801281e-002
8.485389e+002,1.782870e-002
8.504674e+002,1.777119e-002
8.523959e+002,1.776660e-002
8.543244e+002,1.784309e-002
8.562529e+002,1.786992e-002
8.581814e+002,1.791767e-002
8.601099e+002,1.799378e-002
8.620384e+002,1.792075e-002
8.639669e+002,1.795044e-002
8.658954e+002,1.804010e-002
8.678239e+002,1.810735e-002
8.697524e+002,1.829804e-002
8.716809e+002,1.848564e-002
8.736094e+002,1.857703e-002
8.755378e+002,1.871435e-002
8.774664e+002,1.894026e-002
8.793949e+002,1.915615e-002
8.813234e+002,1.948230e-002
8.832518e+002,1.975359e-002
8.851804e+002,2.013148e-002
8.871089e+002,2.066649e-002
8.890374e+002,2.133630e-002
8.909658e+002,2.199739e-002
8.928943e+002,2.257338e-002
8.948229e+002,2.300571e-002
8.967513e+002,2.317253e-002
8.986798e+002,2.308758e-002
9.006083e+002,2.270162e-002
9.025369e+002,2.225780e-002
9.044653e+002,2.182611e-002
9.063938e+002,2.140448e-002
9.083223e+002,2.106524e-002
9.102509e+002,2.078388e-002
9.121793e+002,2.058497e-002
9.141078e+002,2.049910e-002
9.160364e+002,2.051223e-002
9.179648e+002,2.061385e-002
9.198933e+002,2.085501e-002
9.218218e+002,2.112604e-002
9.237504e+002,2.134786e-002
9.256788e+002,2.152800e-002
9.276073e+002,2.178988e-002
9.295358e+002,2.215992e-002
9.314644e+002,2.251866e-002
9.333928e+002,2.287779e-002
9.353213e+002,2.332410e-002
9.372498e+002,2.383943e-002
9.391783e+002,2.432465e-002
9.411068e+002,2.497139e-002
9.430353e+002,2.563895e-002
9.449637e+002,2.630191e-002
9.468923e+002,2.710087e-002
9.488208e+002,2.784809e-002
9.507493e+002,2.852742e-002
9.526777e+002,2.923999e-002
9.546063e+002,2.996832e-002
9.565348e+002,3.064611e-002
9.584633e+002,3.142307e-002
9.603917e+002,3.219009e-002
9.623203e+002,3.287028e-002
9.642488e+002,3.362327e-002
9.661772e+002,3.426750e-002
9.681057e+002,3.487378e-002
9.700343e+002,3.556305e-002
9.719628e+002,3.628374e-002
9.738912e+002,3.705275e-002
9.758197e+002,3.778514e-002
9.777483e+002,3.862312e-002
9.796768e+002,3.944520e-002
9.816052e+002,4.032693e-002
9.835337e+002,4.111633e-002
9.854623e+002,4.187046e-002
9.873907e+002,4.249433e-002
9.893192e+002,4.289715e-002
9.912477e+002,4.300363e-002
9.931763e+002,4.298487e-002
9.951047e+002,4.292828e-002
9.970332e+002,4.301523e-002
9.989617e+002,4.328446e-002
1.000890e+003,4.365449e-002
1.002819e+003,4.409327e-002
1.004747e+003,4.447239e-002
1.006676e+003,4.470268e-002
1.008604e+003,4.500151e-002
1.010533e+003,4.532178e-002
1.012461e+003,4.574943e-002
1.014390e+003,4.624067e-002
1.016318e+003,4.687377e-002
1.018247e+003,4.750784e-002
1.020175e+003,4.812588e-002
1.022104e+003,4.873345e-002
1.024032e+003,4.939690e-002
1.025961e+003,5.009371e-002
1.027889e+003,5.080359e-002
1.029818e+003,5.141780e-002
1.031746e+003,5.178979e-002
1.033675e+003,5.187726e-002
1.035603e+003,5.173238e-002
1.037532e+003,5.136264e-002
1.039460e+003,5.082821e-002
1.041389e+003,5.018103e-002
1.043317e+003,4.958116e-002
1.045246e+003,4.897784e-002
1.047174e+003,4.840604e-002
1.049103e+003,4.786539e-002
1.051031e+003,4.725138e-002
1.052960e+003,4.651611e-002
1.054888e+003,4.574711e-002
1.056817e+003,4.488980e-002
1.058745e+003,4.403430e-002
1.060674e+003,4.315775e-002
1.062602e+003,4.229378e-002
1.064531e+003,4.141960e-002
1.066459e+003,4.060782e-002
1.068388e+003,3.973347e-002
1.070316e+003,3.895324e-002
1.072245e+003,3.831569e-002
1.074173e+003,3.780657e-002
1.076102e+003,3.723758e-002
1.078030e+003,3.656011e-002
1.079959e+003,3.593531e-002
1.081887e+003,3.537361e-002
1.083816e+003,3.489242e-002
1.085744e+003,3.453010e-002
1.087673e+003,3.415288e-002
1.089601e+003,3.388513e-002
1.091530e+003,3.358372e-002
1.093458e+003,3.326652e-002
1.095387e+003,3.301390e-002
1.097315e+003,3.274238e-002
1.099244e+003,3.244237e-002
1.101172e+003,3.224590e-002
1.103101e+003,3.202052e-002
1.105029e+003,3.178973e-002
1.106958e+003,3.136416e-002
1.108886e+003,3.074098e-002
1.110815e+003,3.003294e-002
1.112743e+003,2.917351e-002
1.114672e+003,2.824013e-002
1.116600e+003,2.743050e-002
1.118529e+003,2.666669e-002
1.120457e+003,2.596596e-002
1.122386e+003,2.531138e-002
1.124314e+003,2.458053e-002
1.126243e+003,2.379572e-002
1.128171e+003,2.300519e-002
1.130100e+003,2.226865e-002
1.132028e+003,2.158148e-002
1.133957e+003,2.096456e-002
1.135885e+003,2.038393e-002
1.137814e+003,1.988236e-002
1.139742e+003,1.961691e-002
1.141671e+003,1.952780e-002
1.143599e+003,1.957348e-002
1.145528e+003,1.972862e-002
1.147456e+003,2.000645e-002
1.149385e+003,2.034900e-002
1.151313e+003,2.079202e-002
1.153242e+003,2.122011e-002
1.155170e+003,2.163397e-002
1.157099e+003,2.197718e-002
1.159027e+003,2.224333e-002
1.160956e+003,2.240930e-002
1.162884e+003,2.236531e-002
1.164813e+003,2.198683e-002
1.166741e+003,2.146666e-002
1.168670e+003,2.081569e-002
1.170598e+003,2.000055e-002
1.172526e+003,1.909770e-002
1.174455e+003,1.822824e-002
1.176384e+003,1.737341e-002
1.178312e+003,1.661289e-002
1.180240e+003,1.596421e-002
1.182169e+003,1.542215e-002
1.184098e+003,1.495984e-002
1.186026e+003,1.460479e-002
1.187954e+003,1.433495e-002
1.189883e+003,1.426523e-002
1.191812e+003,1.425547e-002
1.193740e+003,1.435803e-002
1.195668e+003,1.459084e-002
1.197597e+003,1.485680e-002
1.199526e+003,1.510716e-002
1.201454e+003,1.527039e-002
1.203382e+003,1.532956e-002
1.205311e+003,1.531429e-002
1.207240e+003,1.528584e-002
1.209168e+003,1.517620e-002
1.211096e+003,1.513094e-002
1.213025e+003,1.523487e-002
1.214953e+003,1.543935e-002
1.216882e+003,1.564296e-002
1.218810e+003,1.589835e-002
1.220739e+003,1.614282e-002
1.222667e+003,1.644675e-002
1.224596e+003,1.688071e-002
1.226524e+003,1.727314e-002
1.228453e+003,1.767596e-002
1.230381e+003,1.812241e-002
1.232310e+003,1.844979e-002
1.234238e+003,1.877184e-002
1.236167e+003,1.907997e-002
1.238095e+003,1.932240e-002
1.240024e+003,1.951737e-002
1.241952e+003,1.964621e-002
1.243881e+003,1.973351e-002
1.245809e+003,1.975653e-002
1.247738e+003,1.969686e-002
1.249666e+003,1.955934e-002
1.251595e+003,1.944276e-002
1.253523e+003,1.926853e-002
1.255452e+003,1.901409e-002
1.257380e+003,1.877409e-002
1.259309e+003,1.841411e-002
1.261237e+003,1.801972e-002
1.263166e+003,1.769767e-002
1.265094e+003,1.736148e-002
1.267023e+003,1.702769e-002
1.268951e+003,1.669683e-002
1.270880e+003,1.636558e-002
1.272808e+003,1.606318e-002
1.274737e+003,1.581065e-002
1.276665e+003,1.554724e-002
1.278594e+003,1.533832e-002
1.280522e+003,1.515983e-002
1.282451e+003,1.503660e-002
1.284379e+003,1.489297e-002
1.286308e+003,1.478188e-002
1.288236e+003,1.470939e-002
1.290165e+003,1.464650e-002
1.292093e+003,1.469393e-002
1.294022e+003,1.481205e-002
1.295950e+003,1.487271e-002
1.297879e+003,1.501160e-002
1.299807e+003,1.520128e-002
1.301736e+003,1.546070e-002
1.303664e+003,1.571482e-002
1.305593e+003,1.594963e-002
1.307521e+003,1.619503e-002
1.309450e+003,1.643206e-002
1.311378e+003,1.666319e-002
1.313307e+003,1.684375e-002
1.315235e+003,1.692453e-002
1.317164e+003,1.692656e-002
1.319092e+003,1.681826e-002
1.321021e+003,1.667817e-002
1.322949e+003,1.657696e-002
1.324878e+003,1.641781e-002
1.326806e+003,1.629715e-002
1.328735e+003,1.623227e-002
1.330663e+003,1.617147e-002
1.332592e+003,1.618402e-002
1.334520e+003,1.619571e-002
1.336449e+003,1.616387e-002
1.338377e+003,1.607236e-002
1.340306e+003,1.599972e-002
1.342234e+003,1.592330e-002
1.344163e+003,1.589082e-002
1.346091e+003,1.594774e-002
1.348020e+003,1.603802e-002
1.349948e+003,1.609939e-002
1.351877e+003,1.622268e-002
1.353805e+003,1.637332e-002
1.355734e+003,1.649641e-002
1.357662e+003,1.666440e-002
1.359591e+003,1.679759e-002
1.361519e+003,1.694992e-002
1.363448e+003,1.707293e-002
1.365376e+003,1.708837e-002
1.367305e+003,1.711498e-002
1.369233e+003,1.710991e-002
1.371162e+003,1.704616e-002
1.373090e+003,1.689659e-002
1.375019e+003,1.665435e-002
1.376947e+003,1.640339e-002
1.378876e+003,1.613216e-002
1.380804e+003,1.584869e-002
1.382733e+003,1.550871e-002
1.384661e+003,1.514720e-002
1.386590e+003,1.487370e-002
1.388518e+003,1.463313e-002
1.390447e+003,1.443832e-002
1.392375e+003,1.427595e-002
1.394304e+003,1.419018e-002
1.396232e+003,1.414541e-002
1.398161e+003,1.414212e-002
1.400089e+003,1.414349e-002
1.402018e+003,1.419046e-002
1.403946e+003,1.423825e-002
1.405875e+003,1.429013e-002
1.407803e+003,1.439506e-002
1.409732e+003,1.453671e-002
1.411660e+003,1.474541e-002
1.413589e+003,1.495991e-002
1.415517e+003,1.514960e-002
1.417446e+003,1.533255e-002
1.419374e+003,1.545871e-002
1.421303e+003,1.554442e-002
1.423231e+003,1.560085e-002
1.425160e+003,1.557505e-002
1.427088e+003,1.553072e-002
1.429017e+003,1.545981e-002
1.430945e+003,1.525416e-002
1.432874e+003,1.500426e-002
1.434802e+003,1.482299e-002
1.436731e+003,1.464372e-002
1.438659e+003,1.437660e-002
1.440588e+003,1.415533e-002
1.442516e+003,1.398216e-002
1.444445e+003,1.383843e-002
1.446373e+003,1.375962e-002
1.448302e+003,1.374529e-002
1.450230e+003,1.370569e-002
1.452159e+003,1.368244e-002
1.454087e+003,1.366038e-002
1.456016e+003,1.367293e-002
1.457944e+003,1.358452e-002
1.459873e+003,1.348105e-002
1.461801e+003,1.348313e-002
1.463730e+003,1.341741e-002
1.465658e+003,1.312949e-002
1.467587e+003,1.272898e-002
1.469515e+003,1.227086e-002
1.471444e+003,1.191187e-002
1.473372e+003,1.141348e-002
1.475301e+003,1.076412e-002
1.477229e+003,1.030847e-002
1.479158e+003,1.002966e-002
1.481086e+003,9.828189e-003
1.483015e+003,9.714901e-003
1.484943e+003,9.661369e-003
1.486872e+003,9.666146e-003
1.488800e+003,9.738858e-003
1.490729e+003,9.832392e-003
1.492657e+003,9.922149e-003
1.494586e+003,1.006028e-002
1.496514e+003,1.019062e-002
1.498443e+003,1.026450e-002
1.500371e+003,1.031634e-002
1.502300e+003,1.037668e-002
1.504228e+003,1.048606e-002
1.506157e+003,1.060308e-002
1.508085e+003,1.066882e-002
1.510014e+003,1.075488e-002
1.511942e+003,1.092284e-002
1.513871e+003,1.103909e-002
1.515799e+003,1.101401e-002
1.517728e+003,1.087578e-002
1.519656e+003,1.068275e-002
1.521585e+003,1.044007e-002
1.523513e+003,1.015656e-002
1.525442e+003,9.994531e-003
1.527370e+003,9.911302e-003
1.529299e+003,9.876251e-003
1.531227e+003,9.839645e-003
1.533156e+003,9.861100e-003
1.535084e+003,9.815006e-003
1.537013e+003,9.865337e-003
1.538941e+003,1.000535e-002
1.540870e+003,1.000402e-002
1.542798e+003,9.993717e-003
1.544727e+003,1.003057e-002
1.546655e+003,1.001738e-002
1.548584e+003,1.000308e-002
1.550512e+003,1.003993e-002
1.552441e+003,1.012617e-002
1.554369e+003,1.020113e-002
1.556298e+003,1.026389e-002
1.558226e+003,1.042660e-002
1.560155e+003,1.041523e-002
1.562083e+003,1.039042e-002
1.564012e+003,1.051224e-002
1.565940e+003,1.064855e-002
1.567869e+003,1.079982e-002
1.569797e+003,1.095423e-002
1.571726e+003,1.108521e-002
1.573654e+003,1.126482e-002
1.575583e+003,1.153558e-002
1.577511e+003,1.175146e-002
1.579440e+003,1.198176e-002
1.581368e+003,1.227049e-002
1.583297e+003,1.254900e-002
1.585225e+003,1.281620e-002
1.587154e+003,1.302299e-002
1.589082e+003,1.322652e-002
1.591010e+003,1.342383e-002
1.592939e+003,1.360896e-002
1.594868e+003,1.375073e-002
1.596796e+003,1.386569e-002
1.598724e+003,1.395694e-002
1.600653e+003,1.401097e-002
1.602582e+003,1.404303e-002
1.604510e+003,1.403759e-002
1.606438e+003,1.395903e-002
1.608367e+003,1.392135e-002
1.610296e+003,1.389118e-002
1.612224e+003,1.385806e-002
1.614152e+003,1.389207e-002
1.616081e+003,1.398633e-002
1.618010e+003,1.399827e-002
1.619938e+003,1.401237e-002
1.621866e+003,1.407158e-002
1.623795e+003,1.410125e-002
1.625724e+003,1.409499e-002
1.627652e+003,1.411771e-002
1.629580e+003,1.408968e-002
1.631509e+003,1.398003e-002
1.633438e+003,1.398284e-002
1.635366e+003,1.397873e-002
1.637294e+003,1.383251e-002
1.639223e+003,1.369872e-002
1.641151e+003,1.361942e-002
1.643080e+003,1.353878e-002
1.645008e+003,1.351704e-002
1.646937e+003,1.346601e-002
1.648865e+003,1.338894e-002
1.650794e+003,1.339834e-002
1.652722e+003,1.339496e-002
1.654651e+003,1.315220e-002
1.656579e+003,1.292661e-002
1.658508e+003,1.267221e-002
1.660436e+003,1.238574e-002
1.662365e+003,1.210685e-002
1.664293e+003,1.178983e-002
1.666222e+003,1.150357e-002
1.668150e+003,1.129628e-002
1.670079e+003,1.113695e-002
1.672007e+003,1.093646e-002
1.673936e+003,1.079703e-002
1.675864e+003,1.068098e-002
1.677793e+003,1.053916e-002
1.679721e+003,1.044849e-002
1.681650e+003,1.039551e-002
1.683578e+003,1.046342e-002
1.685507e+003,1.035085e-002
1.687435e+003,1.023024e-002
1.689364e+003,1.023271e-002
1.691292e+003,1.025222e-002
1.693221e+003,1.018875e-002
1.695149e+003,1.020751e-002
1.697078e+003,1.026172e-002
1.699006e+003,1.038184e-002
1.700935e+003,1.043889e-002
1.702863e+003,1.038455e-002
1.704792e+003,1.048304e-002
1.706720e+003,1.064723e-002
1.708649e+003,1.076656e-002
1.710577e+003,1.092216e-002
1.712506e+003,1.112373e-002
1.714434e+003,1.129594e-002
1.716363e+003,1.154848e-002
1.718291e+003,1.170891e-002
1.720220e+003,1.181036e-002
1.722148e+003,1.197137e-002
1.724077e+003,1.213935e-002
1.726005e+003,1.230392e-002
1.727934e+003,1.246573e-002
1.729862e+003,1.261057e-002
1.731791e+003,1.267255e-002
1.733719e+003,1.260306e-002
1.735648e+003,1.224049e-002
1.737576e+003,1.177298e-002
1.739505e+003,1.129682e-002
1.741433e+003,1.075926e-002
1.743362e+003,1.017664e-002
1.745290e+003,9.632742e-003
1.747219e+003,9.214289e-003
1.749147e+003,8.890788e-003
1.751076e+003,8.590678e-003
1.753004e+003,8.267438e-003
1.754933e+003,8.052101e-003
1.756861e+003,7.914777e-003
1.758790e+003,7.786538e-003
1.760718e+003,7.604381e-003
1.762647e+003,7.455368e-003
1.764575e+003,7.365882e-003
1.766504e+003,7.303776e-003
1.768432e+003,7.252494e-003
1.770361e+003,7.184677e-003
1.772289e+003,7.120879e-003
1.774218e+003,7.010956e-003
1.776146e+003,6.985331e-003
1.778075e+003,7.013010e-003
1.780003e+003,7.039175e-003
1.781932e+003,7.066116e-003
1.783860e+003,7.115154e-003
1.785789e+003,7.008195e-003
1.787717e+003,6.996881e-003
1.789646e+003,7.072616e-003
1.791574e+003,7.096326e-003
1.793503e+003,7.084976e-003
1.795431e+003,7.051972e-003
1.797360e+003,7.075041e-003
1.799288e+003,7.088108e-003
1.801217e+003,6.972941e-003
1.803145e+003,6.872951e-003
1.805074e+003,6.934962e-003
1.807002e+003,6.993514e-003
1.808931e+003,7.063692e-003
1.810859e+003,7.019139e-003
1.812788e+003,7.016378e-003
1.814716e+003,7.035572e-003
1.816645e+003,7.085683e-003
1.818573e+003,7.059044e-003
1.820502e+003,7.006545e-003
1.822430e+003,7.038434e-003
1.824359e+003,7.045809e-003
1.826287e+003,7.052646e-003
1.828216e+003,7.078140e-003
1.830144e+003,7.149005e-003
1.832073e+003,7.112998e-003
1.834001e+003,7.092453e-003
1.835930e+003,7.037222e-003
1.837858e+003,7.014660e-003
1.839787e+003,7.051231e-003
1.841715e+003,7.196165e-003
1.843644e+003,7.293297e-003
1.845572e+003,7.306405e-003
1.847501e+003,7.167329e-003
1.849429e+003,7.120677e-003
1.851358e+003,7.242016e-003
1.853286e+003,7.264253e-003
1.855215e+003,7.206676e-003
1.857143e+003,7.266746e-003
1.859072e+003,7.213784e-003
1.861000e+003,7.323186e-003
1.862929e+003,7.339159e-003
1.864857e+003,7.296802e-003
1.866786e+003,7.218433e-003
1.868714e+003,7.157695e-003
1.870643e+003,7.255661e-003
1.872571e+003,7.320086e-003
1.874500e+003,7.152070e-003
1.876428e+003,7.021967e-003
1.878357e+003,7.187541e-003
1.880285e+003,7.299160e-003
1.882214e+003,7.208090e-003
1.884142e+003,7.028366e-003
1.886071e+003,7.098751e-003
1.887999e+003,7.141897e-003
1.889928e+003,7.258761e-003
1.891856e+003,7.206406e-003
1.893785e+003,7.122092e-003
1.895713e+003,7.341214e-003
1.897642e+003,7.307651e-003
1.899570e+003,7.159177e-003
1.901499e+003,7.304855e-003
1.903427e+003,7.287165e-003
1.905356e+003,7.106969e-003
1.907284e+003,7.164298e-003
1.909213e+003,7.162546e-003
1.911141e+003,7.159144e-003
1.913070e+003,7.139001e-003
1.914998e+003,7.052881e-003
1.916927e+003,6.863425e-003
1.918855e+003,6.980820e-003
1.920784e+003,7.042138e-003
1.922712e+003,7.165038e-003
1.924641e+003,7.154933e-003
1.926569e+003,6.909578e-003
1.928498e+003,6.905235e-003
1.930426e+003,6.738221e-003
1.932355e+003,6.704133e-003
1.934283e+003,6.648177e-003
1.936212e+003,6.894799e-003
1.938140e+003,6.824581e-003
1.940069e+003,6.451129e-003
1.941997e+003,5.973947e-003
1.943926e+003,5.952246e-003
1.945854e+003,6.482943e-003
1.947783e+003,6.783721e-003
1.949711e+003,6.197061e-003
1.951640e+003,5.805242e-003
1.953568e+003,6.032235e-003
1.955497e+003,5.873549e-003
1.957425e+003,5.253472e-003
1.959354e+003,5.627607e-003
1.961282e+003,5.768642e-003
1.963211e+003,6.116203e-003
1.965139e+003,4.980832e-003
1.967068e+003,4.029578e-003
1.968996e+003,4.519559e-003
1.970925e+003,4.088508e-003
1.972853e+003,3.239039e-003
1.974782e+003,3.383173e-003
1.976710e+003,4.267958e-003
1.978639e+003,4.669277e-003
1.980567e+003,4.973794e-003
1.982496e+003,4.471383e-003
1.984424e+003,4.565229e-003
1.986353e+003,4.088743e-003
1.988281e+003,3.765827e-003
1.990210e+003,3.633327e-003
1.992138e+003,4.064561e-003
1.994067e+003,4.742028e-003
1.995995e+003,4.382845e-003
1.997924e+003,3.937085e-003
1.999852e+003,3.895927e-003
2.001781e+003,3.711686e-003
2.003709e+003,2.798152e-003
2.005638e+003,2.095540e-003
2.007566e+003,2.429477e-003
2.009495e+003,3.385745e-003
2.011423e+003,2.723925e-003
2.013352e+003,2.213485e-003
2.015280e+003,2.354814e-003
2.017208e+003,1.284118e-003
2.019137e+003,1.352947e-003
2.021066e+003,2.323999e-003
2.022994e+003,2.123808e-003
2.024922e+003,1.119384e-003
2.026851e+003,1.809503e-003
2.028780e+003,1.742564e-003
2.030708e+003,9.685933e-004
2.032636e+003,8.753220e-004
2.034565e+003,2.070737e-003
2.036494e+003,2.215749e-003
2.038422e+003,2.334926e-003
2.040350e+003,2.729027e-003
2.042279e+003,2.217514e-003
2.044208e+003,2.325199e-003
2.046136e+003,2.773675e-003
2.048064e+003,2.827166e-003
2.049993e+003,3.268583e-003
2.051921e+003,4.374344e-003
2.053850e+003,4.221650e-003
2.055778e+003,3.858418e-003
2.057707e+003,3.886667e-003
2.059635e+003,3.938556e-003
2.061564e+003,3.934644e-003
2.063492e+003,4.598212e-003
2.065421e+003,4.733754e-003
2.067349e+003,4.645364e-003
2.069278e+003,4.538643e-003
2.071206e+003,4.867160e-003
2.073135e+003,5.231875e-003
2.075063e+003,5.516148e-003
2.076992e+003,5.162629e-003
2.078920e+003,4.837139e-003
2.080849e+003,5.047635e-003
2.082777e+003,5.364092e-003
2.084706e+003,5.501349e-003
2.086634e+003,5.664062e-003
2.088563e+003,5.391902e-003
2.090491e+003,5.247905e-003
2.092420e+003,5.330849e-003
2.094348e+003,5.385025e-003
2.096277e+003,5.584175e-003
2.098205e+003,5.714049e-003
2.100134e+003,5.655670e-003
2.102062e+003,5.377175e-003
2.103991e+003,5.665673e-003
2.105919e+003,5.836338e-003
2.107848e+003,5.912845e-003
2.109776e+003,6.078837e-003
2.111705e+003,5.961585e-003
2.113633e+003,5.661577e-003
2.115562e+003,5.799198e-003
2.117490e+003,5.931723e-003
2.119419e+003,5.963701e-003
2.121347e+003,5.832477e-003
2.123276e+003,5.661510e-003
2.125204e+003,5.717641e-003
2.127133e+003,5.795303e-003
2.129061e+003,5.485746e-003
2.130990e+003,5.334271e-003
2.132918e+003,5.017367e-003
2.134847e+003,5.013747e-003
2.136775e+003,4.881401e-003
2.138704e+003,4.186420e-003
2.140632e+003,3.898970e-003
2.142561e+003,4.138850e-003
2.144489e+003,3.933808e-003
2.146418e+003,3.341668e-003
2.148346e+003,3.749584e-003
2.150275e+003,3.890144e-003
2.152203e+003,2.626043e-003
2.154132e+003,1.640978e-003
2.156060e+003,5.435062e-004
2.157989e+003,-1.412062e-003
2.159917e+003,-2.408417e-003
2.161846e+003,-1.863827e-003
2.163774e+003,-1.988042e-007
2.165703e+003,1.799422e-003
2.167631e+003,2.534614e-003
2.169560e+003,2.712422e-003
2.171488e+003,2.401323e-003
2.173417e+003,1.544536e-003
2.175345e+003,1.212575e-003
2.177274e+003,1.656943e-003
2.179202e+003,2.144286e-003
2.181131e+003,2.138259e-003
2.183059e+003,2.241194e-003
2.184988e+003,2.019336e-003
2.186916e+003,2.627109e-003
2.188845e+003,2.434975e-003
2.190773e+003,2.204593e-003
2.192702e+003,2.584943e-003
2.194630e+003,2.381533e-003
2.196559e+003,1.790372e-003
2.198487e+003,1.855588e-003
2.200416e+003,2.568877e-003
2.202344e+003,2.877762e-003
2.204273e+003,2.855048e-003
2.206201e+003,2.805555e-003
2.208130e+003,2.690817e-003
2.210058e+003,3.078868e-003
2.211987e+003,2.725126e-003
2.213915e+003,3.060715e-003
2.215844e+003,3.045866e-003
2.217772e+003,3.055944e-003
2.219701e+003,3.282605e-003
2.221629e+003,3.283907e-003
2.223558e+003,3.431630e-003
2.225486e+003,3.400805e-003
2.227415e+003,3.446491e-003
2.229343e+003,4.252967e-003
2.231272e+003,4.230148e-003
2.233200e+003,4.226970e-003
2.235129e+003,4.623830e-003
2.237057e+003,4.560206e-003
2.238986e+003,4.742229e-003
2.240914e+003,4.731141e-003
2.242843e+003,4.865049e-003
2.244771e+003,4.950702e-003
2.246700e+003,4.919971e-003
2.248628e+003,5.067179e-003
2.250557e+003,5.320115e-003
2.252485e+003,5.213195e-003
2.254414e+003,5.492424e-003
2.256342e+003,5.780360e-003
2.258271e+003,5.581993e-003
2.260199e+003,5.826667e-003
2.262128e+003,6.139726e-003
2.264056e+003,5.995212e-003
2.265985e+003,6.159856e-003
2.267913e+003,6.218337e-003
2.269842e+003,5.958528e-003
2.271770e+003,6.312864e-003
2.273699e+003,6.854774e-003
2.275627e+003,7.009508e-003
2.277556e+003,7.027254e-003
2.279484e+003,6.894731e-003
2.281413e+003,6.753634e-003
2.283341e+003,6.879078e-003
2.285270e+003,7.143615e-003
2.287198e+003,7.383070e-003
2.289127e+003,7.553940e-003
2.291055e+003,7.815684e-003
2.292984e+003,8.010653e-003
2.294912e+003,8.176806e-003
2.296841e+003,8.348124e-003
2.298769e+003,8.380822e-003
2.300698e+003,8.508257e-003
2.302626e+003,8.653983e-003
2.304555e+003,9.073925e-003
2.306483e+003,9.668144e-003
2.308412e+003,1.026433e-002
2.310340e+003,1.082757e-002
2.312269e+003,1.098363e-002
2.314197e+003,1.088295e-002
2.316125e+003,1.107162e-002
2.318054e+003,1.174214e-002
2.319983e+003,1.265195e-002
2.321911e+003,1.347407e-002
2.323840e+003,1.413247e-002
2.325768e+003,1.444051e-002
2.327697e+003,1.480143e-002
2.329625e+003,1.525117e-002
2.331553e+003,1.540512e-002
2.333482e+003,1.566322e-002
2.335411e+003,1.609052e-002
2.337339e+003,1.618581e-002
2.339268e+003,1.630018e-002
2.341196e+003,1.663796e-002
2.343125e+003,1.652866e-002
2.345053e+003,1.581666e-002
2.346981e+003,1.412045e-002
2.348910e+003,1.354473e-002
2.350839e+003,1.462562e-002
2.352767e+003,1.607467e-002
2.354696e+003,1.739483e-002
2.356624e+003,1.846884e-002
2.358552e+003,1.904895e-002
2.360481e+003,1.935236e-002
2.362409e+003,1.969093e-002
2.364338e+003,1.916778e-002
2.366267e+003,1.854314e-002
2.368195e+003,1.725517e-002
2.370124e+003,1.566652e-002
2.372052e+003,1.423479e-002
2.373980e+003,1.299178e-002
2.375909e+003,1.191933e-002
2.377838e+003,1.093768e-002
2.379766e+003,9.940353e-003
2.381695e+003,8.993612e-003
2.383623e+003,8.284932e-003
2.385552e+003,7.821014e-003
2.387480e+003,7.533003e-003
2.389408e+003,7.452266e-003
2.391337e+003,7.493257e-003
2.393266e+003,7.439154e-003
2.395194e+003,7.420212e-003
2.397123e+003,7.456750e-003
2.399051e+003,7.412426e-003
2.400979e+003,7.340102e-003
2.402908e+003,7.345157e-003
2.404836e+003,7.421054e-003
2.406765e+003,7.456884e-003
2.408694e+003,7.405786e-003
2.410622e+003,7.423245e-003
2.412551e+003,7.449738e-003
2.414479e+003,7.406258e-003
2.416407e+003,7.372623e-003
2.418336e+003,7.345090e-003
2.420264e+003,7.332520e-003
2.422193e+003,7.432649e-003
2.424122e+003,7.459278e-003
2.426050e+003,7.430863e-003
2.427979e+003,7.507887e-003
2.429907e+003,7.584723e-003
2.431835e+003,7.650444e-003
2.433764e+003,7.661674e-003
2.435692e+003,7.614126e-003
2.437621e+003,7.460558e-003
2.439550e+003,7.394529e-003
2.441478e+003,7.462413e-003
2.443406e+003,7.461570e-003
2.445335e+003,7.398607e-003
2.447263e+003,7.444783e-003
2.449192e+003,7.510315e-003
2.451121e+003,7.488065e-003
2.453049e+003,7.562234e-003
2.454978e+003,7.577912e-003
2.456906e+003,7.492111e-003
2.458834e+003,7.575148e-003
2.460763e+003,7.629739e-003
2.462691e+003,7.551614e-003
2.464620e+003,7.633853e-003
2.466549e+003,7.604954e-003
2.468477e+003,7.514528e-003
2.470406e+003,7.523193e-003
2.472334e+003,7.514394e-003
2.474262e+003,7.481896e-003
2.476191e+003,7.479334e-003
2.478119e+003,7.581183e-003
2.480048e+003,7.441649e-003
2.481977e+003,7.371679e-003
2.483905e+003,7.527441e-003
2.485833e+003,7.698131e-003
2.487762e+003,7.598952e-003
2.489690e+003,7.595210e-003
2.491619e+003,7.558121e-003
2.493547e+003,7.444177e-003
2.495476e+003,7.554614e-003
2.497405e+003,7.535936e-003
2.499333e+003,7.577912e-003
2.501261e+003,7.592917e-003
2.503190e+003,7.517226e-003
2.505118e+003,7.529632e-003
2.507047e+003,7.512000e-003
2.508975e+003,7.556469e-003
2.510904e+003,7.547534e-003
2.512833e+003,7.534622e-003
2.514761e+003,7.417549e-003
2.516689e+003,7.263242e-003
2.518618e+003,7.277158e-003
2.520546e+003,7.428099e-003
2.522475e+003,7.393889e-003
2.524403e+003,7.231033e-003
2.526332e+003,7.306337e-003
2.528260e+003,7.374476e-003
2.530189e+003,7.385362e-003
2.532117e+003,7.416605e-003
2.534046e+003,7.440132e-003
2.535974e+003,7.368983e-003
2.537903e+003,7.311088e-003
2.539831e+003,7.308090e-003
2.541760e+003,7.381992e-003
2.543688e+003,7.295251e-003
2.545617e+003,7.208832e-003
2.547545e+003,7.116602e-003
2.549474e+003,7.133476e-003
2.551402e+003,7.138260e-003
2.553331e+003,6.999878e-003
2.555259e+003,7.050153e-003
2.557188e+003,7.145030e-003
2.559116e+003,7.135801e-003
2.561045e+003,7.123170e-003
2.562973e+003,7.186766e-003
2.564902e+003,7.265904e-003
2.566830e+003,7.170563e-003
2.568759e+003,7.005400e-003
2.570687e+003,6.965028e-003
2.572616e+003,6.977452e-003
2.574544e+003,6.859049e-003
2.576473e+003,6.873826e-003
2.578401e+003,7.090298e-003
2.580330e+003,7.071875e-003
2.582258e+003,6.987621e-003
2.584187e+003,6.976813e-003
2.586115e+003,6.990988e-003
2.588044e+003,6.946005e-003
2.589972e+003,6.976442e-003
2.591901e+003,7.055373e-003
2.593829e+003,7.177873e-003
2.595758e+003,7.190775e-003
2.597686e+003,7.114985e-003
2.599615e+003,7.149476e-003
2.601543e+003,7.161333e-003
2.603472e+003,7.140079e-003
2.605400e+003,7.163725e-003
2.607329e+003,7.229214e-003
2.609257e+003,7.339024e-003
2.611186e+003,7.399955e-003
2.613114e+003,7.388126e-003
2.615043e+003,7.464772e-003
2.616971e+003,7.496425e-003
2.618900e+003,7.503168e-003
2.620828e+003,7.502898e-003
2.622757e+003,7.516113e-003
2.624685e+003,7.499123e-003
2.626614e+003,7.614329e-003
2.628542e+003,7.656919e-003
2.630471e+003,7.667306e-003
2.632399e+003,7.728553e-003
2.634328e+003,7.774630e-003
2.636256e+003,7.798614e-003
2.638185e+003,7.870002e-003
2.640113e+003,7.966746e-003
2.642042e+003,8.010956e-003
2.643970e+003,8.051966e-003
2.645899e+003,8.095477e-003
2.647827e+003,8.199058e-003
2.649756e+003,8.277975e-003
2.651684e+003,8.310498e-003
2.653613e+003,8.317151e-003
2.655541e+003,8.302764e-003
2.657470e+003,8.331135e-003
2.659398e+003,8.382645e-003
2.661327e+003,8.428420e-003
2.663255e+003,8.419636e-003
2.665184e+003,8.419569e-003
2.667112e+003,8.446291e-003
2.669041e+003,8.507885e-003
2.670969e+003,8.541271e-003
2.672898e+003,8.547184e-003
2.674826e+003,8.548265e-003
2.676755e+003,8.559586e-003
2.678683e+003,8.607914e-003
2.680612e+003,8.626706e-003
2.682540e+003,8.622109e-003
2.684469e+003,8.681227e-003
2.686397e+003,8.652359e-003
2.688326e+003,8.678320e-003
2.690254e+003,8.759927e-003
2.692183e+003,8.763849e-003
2.694111e+003,8.793603e-003
2.696040e+003,8.831913e-003
2.697968e+003,8.793738e-003
2.699897e+003,8.785319e-003
2.701825e+003,8.796138e-003
2.703754e+003,8.857545e-003
2.705682e+003,8.928769e-003
2.707611e+003,8.929377e-003
2.709539e+003,8.931982e-003
2.711468e+003,8.918555e-003
2.713396e+003,8.948793e-003
2.715325e+003,8.997873e-003
2.717253e+003,9.025072e-003
2.719182e+003,9.048449e-003
2.721110e+003,9.060764e-003
2.723039e+003,9.053186e-003
2.724967e+003,9.099605e-003
2.726896e+003,9.095139e-003
2.728824e+003,9.105527e-003
2.730753e+003,9.119197e-003
2.732681e+003,9.128976e-003
2.734610e+003,9.198518e-003
2.736538e+003,9.245156e-003
2.738467e+003,9.246104e-003
2.740395e+003,9.251587e-003
2.742324e+003,9.301244e-003
2.744252e+003,9.266278e-003
2.746181e+003,9.224341e-003
2.748109e+003,9.260862e-003
2.750038e+003,9.294610e-003
2.751966e+003,9.296201e-003
2.753895e+003,9.329748e-003
2.755823e+003,9.390960e-003
2.757752e+003,9.422381e-003
2.759680e+003,9.412664e-003
2.761609e+003,9.433116e-003
2.763537e+003,9.471754e-003
2.765466e+003,9.459698e-003
2.767394e+003,9.453162e-003
2.769323e+003,9.504535e-003
2.771251e+003,9.501352e-003
2.773180e+003,9.496882e-003
2.775108e+003,9.511681e-003
2.777037e+003,9.612382e-003
2.778965e+003,9.680816e-003
2.780894e+003,9.651239e-003
2.782822e+003,9.644531e-003
2.784750e+003,9.631522e-003
2.786679e+003,9.689286e-003
2.788608e+003,9.724050e-003
2.790536e+003,9.747770e-003
2.792465e+003,9.795383e-003
2.794393e+003,9.868015e-003
2.796322e+003,9.853507e-003
2.798250e+003,9.863066e-003
2.800178e+003,9.926828e-003
2.802107e+003,1.002101e-002
2.804036e+003,1.008232e-002
2.805964e+003,1.013645e-002
2.807893e+003,1.016212e-002
2.809821e+003,1.018349e-002
2.811750e+003,1.019991e-002
2.813678e+003,1.026715e-002
2.815606e+003,1.038991e-002
2.817535e+003,1.044791e-002
2.819464e+003,1.045463e-002
2.821392e+003,1.048868e-002
2.823321e+003,1.054788e-002
2.825249e+003,1.064695e-002
2.827177e+003,1.078440e-002
2.829106e+003,1.087775e-002
2.831034e+003,1.093993e-002
2.832963e+003,1.109820e-002
2.834892e+003,1.127853e-002
2.836820e+003,1.147832e-002
2.838749e+003,1.171208e-002
2.840677e+003,1.198223e-002
2.842605e+003,1.232260e-002
2.844534e+003,1.274000e-002
2.846462e+003,1.324217e-002
2.848391e+003,1.363395e-002
2.850320e+003,1.372508e-002
2.852248e+003,1.364561e-002
2.854177e+003,1.349441e-002
2.856105e+003,1.331360e-002
2.858033e+003,1.322485e-002
2.859962e+003,1.319134e-002
2.861890e+003,1.307226e-002
2.863819e+003,1.292419e-002
2.865748e+003,1.286906e-002
2.867676e+003,1.289480e-002
2.869604e+003,1.291053e-002
2.871533e+003,1.297976e-002
2.873461e+003,1.295890e-002
2.875390e+003,1.299687e-002
2.877319e+003,1.299605e-002
2.879247e+003,1.301558e-002
2.881176e+003,1.309531e-002
2.883104e+003,1.314301e-002
2.885032e+003,1.323346e-002
2.886961e+003,1.336479e-002
2.888889e+003,1.339923e-002
2.890818e+003,1.345507e-002
2.892747e+003,1.357395e-002
2.894675e+003,1.369116e-002
2.896604e+003,1.379547e-002
2.898532e+003,1.383771e-002
2.900460e+003,1.390154e-002
2.902389e+003,1.393672e-002
2.904317e+003,1.396111e-002
2.906246e+003,1.407616e-002
2.908175e+003,1.431502e-002
2.910103e+003,1.451797e-002
2.912031e+003,1.471648e-002
2.913960e+003,1.491691e-002
2.915888e+003,1.504922e-002
2.917817e+003,1.508593e-002
2.919745e+003,1.495744e-002
2.921674e+003,1.473921e-002
2.923603e+003,1.448408e-002
2.925531e+003,1.425945e-002
2.927459e+003,1.407904e-002
2.929388e+003,1.389946e-002
2.931316e+003,1.370039e-002
2.933245e+003,1.353040e-002
2.935173e+003,1.329464e-002
2.937102e+003,1.304750e-002
2.939031e+003,1.281483e-002
2.940959e+003,1.256486e-002
2.942887e+003,1.234053e-002
2.944816e+003,1.214283e-002
2.946744e+003,1.195737e-002
2.948673e+003,1.170915e-002
2.950601e+003,1.149428e-002
2.952530e+003,1.132080e-002
2.954458e+003,1.109062e-002
2.956387e+003,1.090676e-002
2.958315e+003,1.075356e-002
2.960244e+003,1.064380e-002
2.962172e+003,1.054208e-002
2.964101e+003,1.043322e-002
2.966029e+003,1.040104e-002
2.967958e+003,1.031777e-002
2.969886e+003,1.026837e-002
2.971815e+003,1.019557e-002
2.973743e+003,1.009941e-002
2.975672e+003,1.004071e-002
2.977600e+003,9.961543e-003
2.979529e+003,9.907437e-003
2.981457e+003,9.912997e-003
2.983386e+003,9.815717e-003
2.985314e+003,9.735605e-003
2.987243e+003,9.699383e-003
2.989171e+003,9.716697e-003
2.991100e+003,9.734825e-003
2.993028e+003,9.760342e-003
2.994957e+003,9.742551e-003
2.996885e+003,9.758207e-003
2.998814e+003,9.739366e-003
3.000742e+003,9.695283e-003
3.002671e+003,9.649410e-003
3.004599e+003,9.710835e-003
3.006528e+003,9.712496e-003
3.008456e+003,9.696266e-003
3.010385e+003,9.764883e-003
3.012313e+003,9.840323e-003
3.014242e+003,9.823207e-003
3.016170e+003,9.796975e-003
3.018099e+003,9.763290e-003
3.020027e+003,9.799551e-003
3.021956e+003,9.916522e-003
3.023884e+003,9.943201e-003
3.025813e+003,9.894318e-003
3.027741e+003,9.853677e-003
3.029670e+003,9.907539e-003
3.031598e+003,9.963610e-003
3.033527e+003,9.991073e-003
3.035455e+003,1.003068e-002
3.037384e+003,1.010864e-002
3.039312e+003,1.019632e-002
3.041241e+003,1.017729e-002
3.043169e+003,1.020954e-002
3.045098e+003,1.024103e-002
3.047026e+003,1.026291e-002
3.048955e+003,1.032680e-002
3.050883e+003,1.040698e-002
3.052812e+003,1.044482e-002
3.054740e+003,1.050436e-002
3.056669e+003,1.044730e-002
3.058597e+003,1.047517e-002
3.060526e+003,1.057277e-002
3.062454e+003,1.063595e-002
3.064383e+003,1.068621e-002
3.066311e+003,1.073569e-002
3.068240e+003,1.078148e-002
3.070168e+003,1.086885e-002
3.072097e+003,1.090846e-002
3.074025e+003,1.095229e-002
3.075954e+003,1.096429e-002
3.077882e+003,1.099199e-002
3.079811e+003,1.101530e-002
3.081739e+003,1.110656e-002
3.083668e+003,1.113433e-002
3.085596e+003,1.124184e-002
3.087525e+003,1.139794e-002
3.089453e+003,1.139943e-002
3.091382e+003,1.138977e-002
3.093310e+003,1.137828e-002
3.095239e+003,1.144580e-002
3.097167e+003,1.157264e-002
3.099096e+003,1.163876e-002
3.101024e+003,1.166259e-002
3.102953e+003,1.171147e-002
3.104881e+003,1.170857e-002
3.106810e+003,1.168720e-002
3.108738e+003,1.177894e-002
3.110667e+003,1.193983e-002
3.112595e+003,1.202229e-002
3.114524e+003,1.204249e-002
3.116452e+003,1.207193e-002
3.118381e+003,1.213594e-002
3.120309e+003,1.221568e-002
3.122238e+003,1.227587e-002
3.124166e+003,1.230890e-002
3.126095e+003,1.233951e-002
3.128023e+003,1.234967e-002
3.129952e+003,1.243504e-002
3.131880e+003,1.254245e-002
3.133809e+003,1.262646e-002
3.135737e+003,1.263537e-002
3.137666e+003,1.268360e-002
3.139594e+003,1.279357e-002
3.141523e+003,1.286108e-002
3.143451e+003,1.286135e-002
3.145380e+003,1.291910e-002
3.147308e+003,1.304989e-002
3.149237e+003,1.313772e-002
3.151165e+003,1.317570e-002
3.153094e+003,1.322191e-002
3.155022e+003,1.322909e-002
3.156951e+003,1.328159e-002
3.158879e+003,1.341666e-002
3.160808e+003,1.355943e-002
3.162736e+003,1.361098e-002
3.164665e+003,1.364999e-002
3.166593e+003,1.370822e-002
3.168522e+003,1.384185e-002
3.170450e+003,1.393056e-002
3.172379e+003,1.393459e-002
3.174307e+003,1.395653e-002
3.176236e+003,1.408222e-002
3.178164e+003,1.408821e-002
3.180093e+003,1.421401e-002
3.182021e+003,1.433307e-002
3.183950e+003,1.436187e-002
3.185878e+003,1.436314e-002
3.187807e+003,1.441869e-002
3.189735e+003,1.448299e-002
3.191664e+003,1.463080e-002
3.193592e+003,1.467254e-002
3.195521e+003,1.473571e-002
3.197449e+003,1.485172e-002
3.199378e+003,1.490964e-002
3.201306e+003,1.506161e-002
3.203235e+003,1.514370e-002
3.205163e+003,1.516937e-002
3.207092e+003,1.523937e-002
3.209020e+003,1.534553e-002
3.210948e+003,1.540574e-002
3.212877e+003,1.543320e-002
3.214806e+003,1.546304e-002
3.216734e+003,1.563729e-002
3.218663e+003,1.575564e-002
3.220591e+003,1.578556e-002
3.222520e+003,1.580116e-002
3.224448e+003,1.585384e-002
3.226376e+003,1.594286e-002
3.228305e+003,1.599308e-002
3.230234e+003,1.603688e-002
3.232162e+003,1.614076e-002
3.234091e+003,1.622890e-002
3.236019e+003,1.632457e-002
3.237948e+003,1.640012e-002
3.239876e+003,1.641908e-002
3.241804e+003,1.643491e-002
3.243733e+003,1.657031e-002
3.245662e+003,1.667308e-002
3.247590e+003,1.666588e-002
3.249519e+003,1.668395e-002
3.251447e+003,1.675138e-002
3.253375e+003,1.682470e-002
3.255304e+003,1.692284e-002
3.257232e+003,1.696601e-002
3.259161e+003,1.703661e-002
3.261090e+003,1.709568e-002
3.263018e+003,1.717175e-002
3.264947e+003,1.728917e-002
3.266875e+003,1.737793e-002
3.268803e+003,1.740549e-002
3.270732e+003,1.739352e-002
3.272660e+003,1.744329e-002
3.274589e+003,1.745274e-002
3.276518e+003,1.747857e-002
3.278446e+003,1.755723e-002
3.280375e+003,1.750458e-002
3.282303e+003,1.753846e-002
3.284231e+003,1.754747e-002
3.286160e+003,1.751959e-002
3.288088e+003,1.756596e-002
3.290017e+003,1.762486e-002
3.291946e+003,1.764390e-002
3.293874e+003,1.761129e-002
3.295802e+003,1.762030e-002
3.297731e+003,1.767237e-002
3.299659e+003,1.769312e-002
3.301588e+003,1.767010e-002
3.303516e+003,1.766506e-002
3.305445e+003,1.771610e-002
3.307374e+003,1.770316e-002
3.309302e+003,1.765895e-002
3.311230e+003,1.769978e-002
3.313159e+003,1.775828e-002
3.315087e+003,1.771520e-002
3.317016e+003,1.775735e-002
3.318944e+003,1.775810e-002
3.320873e+003,1.776829e-002
3.322802e+003,1.783453e-002
3.324730e+003,1.792741e-002
3.326658e+003,1.792061e-002
3.328587e+003,1.785190e-002
3.330515e+003,1.783847e-002
3.332444e+003,1.793366e-002
3.334372e+003,1.788038e-002
3.336301e+003,1.783874e-002
3.338229e+003,1.786795e-002
3.340158e+003,1.784154e-002
3.342086e+003,1.784869e-002
3.344015e+003,1.786740e-002
3.345943e+003,1.780654e-002
3.347872e+003,1.770164e-002
3.349800e+003,1.768480e-002
3.351729e+003,1.763655e-002
3.353657e+003,1.763528e-002
3.355586e+003,1.763938e-002
3.357514e+003,1.765609e-002
3.359443e+003,1.753580e-002
3.361371e+003,1.739590e-002
3.363300e+003,1.736255e-002
3.365229e+003,1.735100e-002
3.367157e+003,1.727241e-002
3.369085e+003,1.726286e-002
3.371014e+003,1.721718e-002
3.372942e+003,1.721667e-002
3.374871e+003,1.726810e-002
3.376799e+003,1.715496e-002
3.378728e+003,1.696370e-002
3.380656e+003,1.689421e-002
3.382585e+003,1.689910e-002
3.384513e+003,1.687864e-002
3.386442e+003,1.687864e-002
3.388370e+003,1.686676e-002
3.390299e+003,1.675837e-002
3.392227e+003,1.666085e-002
3.394156e+003,1.665772e-002
3.396084e+003,1.670589e-002
3.398013e+003,1.653665e-002
3.399941e+003,1.650574e-002
3.401870e+003,1.656260e-002
3.403798e+003,1.644544e-002
3.405727e+003,1.629505e-002
3.407655e+003,1.623327e-002
3.409584e+003,1.612814e-002
3.411512e+003,1.602564e-002
3.413441e+003,1.587141e-002
3.415369e+003,1.574993e-002
3.417298e+003,1.575825e-002
3.419226e+003,1.570160e-002
3.421155e+003,1.563114e-002
3.423083e+003,1.554078e-002
3.425012e+003,1.535191e-002
3.426940e+003,1.525423e-002
3.428869e+003,1.518069e-002
3.430797e+003,1.506096e-002
3.432726e+003,1.488824e-002
3.434654e+003,1.472910e-002
3.436583e+003,1.469756e-002
3.438511e+003,1.467021e-002
3.440440e+003,1.459588e-002
3.442368e+003,1.448357e-002
3.444297e+003,1.439632e-002
3.446225e+003,1.423096e-002
3.448154e+003,1.418697e-002
3.450082e+003,1.410152e-002
3.452011e+003,1.395372e-002
3.453939e+003,1.391530e-002
3.455868e+003,1.379807e-002
3.457796e+003,1.364790e-002
3.459725e+003,1.356011e-002
3.461653e+003,1.351396e-002
3.463582e+003,1.339643e-002
3.465510e+003,1.325235e-002
3.467439e+003,1.320596e-002
3.469367e+003,1.305713e-002
3.471296e+003,1.291378e-002
3.473224e+003,1.286719e-002
3.475153e+003,1.280736e-002
3.477081e+003,1.269694e-002
3.479010e+003,1.257622e-002
3.480938e+003,1.252738e-002
3.482867e+003,1.242737e-002
3.484795e+003,1.222959e-002
3.486724e+003,1.218835e-002
3.488652e+003,1.206753e-002
3.490581e+003,1.197096e-002
3.492509e+003,1.191143e-002
3.494438e+003,1.174792e-002
3.496366e+003,1.171511e-002
3.498295e+003,1.162794e-002
3.500223e+003,1.157114e-002
3.502152e+003,1.150367e-002
3.504080e+003,1.133171e-002
3.506009e+003,1.124027e-002
3.507937e+003,1.116411e-002
3.509866e+003,1.108025e-002
3.511794e+003,1.105068e-002
3.513723e+003,1.099545e-002
3.515651e+003,1.082265e-002
3.517580e+003,1.068855e-002
3.519508e+003,1.057280e-002
3.521437e+003,1.054449e-002
3.523365e+003,1.056414e-002
3.525294e+003,1.048922e-002
3.527222e+003,1.036891e-002
3.529151e+003,1.019716e-002
3.531079e+003,1.002528e-002
3.533008e+003,9.941201e-003
3.534936e+003,9.928726e-003
3.536865e+003,9.859168e-003
3.538793e+003,9.740959e-003
3.540722e+003,9.709819e-003
3.542650e+003,9.587654e-003
3.544579e+003,9.514831e-003
3.546507e+003,9.461492e-003
3.548436e+003,9.369968e-003
3.550364e+003,9.205828e-003
3.552293e+003,9.148466e-003
3.554221e+003,9.103733e-003
3.556150e+003,8.990634e-003
3.558078e+003,8.875333e-003
3.560007e+003,8.748906e-003
3.561935e+003,8.698196e-003
3.563864e+003,8.661520e-003
3.565792e+003,8.625962e-003
3.567721e+003,8.553639e-003
3.569649e+003,8.316476e-003
3.571578e+003,8.135009e-003
3.573506e+003,8.202063e-003
3.575435e+003,8.215097e-003
3.577363e+003,8.119918e-003
3.579292e+003,8.028845e-003
3.581220e+003,7.923112e-003
3.583149e+003,7.887648e-003
3.585077e+003,7.893790e-003
3.587006e+003,7.811164e-003
3.588934e+003,7.660865e-003
3.590863e+003,7.583678e-003
3.592791e+003,7.682954e-003
3.594720e+003,7.725754e-003
3.596648e+003,7.649871e-003
3.598577e+003,7.602830e-003
3.600505e+003,7.616453e-003
3.602434e+003,7.493695e-003
3.604362e+003,7.304484e-003
3.606291e+003,7.163657e-003
3.608219e+003,7.032609e-003
3.610148e+003,6.938565e-003
3.612076e+003,6.725669e-003
3.614005e+003,6.730043e-003
3.615933e+003,6.892274e-003
3.617862e+003,6.994961e-003
3.619790e+003,6.954792e-003
3.621719e+003,6.900555e-003
3.623647e+003,6.943109e-003
3.625576e+003,6.943951e-003
3.627504e+003,6.964894e-003
3.629433e+003,6.895068e-003
3.631361e+003,6.708507e-003
3.633290e+003,6.582641e-003
3.635218e+003,6.361715e-003
3.637146e+003,6.254976e-003
3.639075e+003,6.323320e-003
3.641004e+003,6.213464e-003
3.642932e+003,5.999310e-003
3.644861e+003,5.857932e-003
3.646789e+003,5.874960e-003
3.648718e+003,5.897899e-003
3.650646e+003,5.855447e-003
3.652574e+003,5.773040e-003
3.654503e+003,5.816794e-003
3.656432e+003,5.734898e-003
3.658360e+003,5.647412e-003
3.660289e+003,5.539304e-003
3.662217e+003,5.486115e-003
3.664146e+003,5.551822e-003
3.666074e+003,5.621297e-003
3.668002e+003,5.531686e-003
3.669931e+003,5.475244e-003
3.671860e+003,5.456151e-003
3.673788e+003,5.572428e-003
3.675717e+003,5.580617e-003
3.677645e+003,5.519806e-003
3.679573e+003,5.534001e-003
3.681502e+003,5.549875e-003
3.683430e+003,5.481485e-003
3.685359e+003,5.445750e-003
3.687288e+003,5.559104e-003
3.689216e+003,5.598741e-003
3.691145e+003,5.514605e-003
3.693073e+003,5.533766e-003
3.695001e+003,5.646741e-003
3.696930e+003,5.675341e-003
3.698858e+003,5.687091e-003
3.700787e+003,5.753600e-003
3.702716e+003,5.859376e-003
3.704644e+003,5.801381e-003
3.706573e+003,5.703406e-003
3.708501e+003,5.628883e-003
3.710429e+003,5.596191e-003
3.712358e+003,5.525410e-003
3.714286e+003,5.332594e-003
3.716215e+003,5.207528e-003
3.718144e+003,5.323437e-003
3.720072e+003,5.534706e-003
3.722000e+003,5.651641e-003
3.723929e+003,5.751417e-003
3.725857e+003,5.880401e-003
3.727786e+003,5.918119e-003
3.729714e+003,5.891921e-003
3.731643e+003,5.911300e-003
3.733572e+003,5.876102e-003
3.735500e+003,5.809138e-003
3.737428e+003,5.564071e-003
3.739357e+003,5.396364e-003
3.741285e+003,5.348158e-003
3.743214e+003,5.394452e-003
3.745142e+003,5.297643e-003
3.747071e+003,5.241298e-003
3.749000e+003,5.330682e-003
3.750928e+003,5.269704e-003
3.752856e+003,5.137348e-003
3.754785e+003,5.143919e-003
3.756713e+003,5.228756e-003
3.758642e+003,5.300930e-003
3.760570e+003,5.152470e-003
3.762499e+003,5.005166e-003
3.764427e+003,5.095674e-003
3.766356e+003,5.180467e-003
3.768284e+003,5.338296e-003
3.770213e+003,5.296502e-003
3.772141e+003,5.218729e-003
3.774070e+003,5.199950e-003
3.775998e+003,5.155990e-003
3.777927e+003,5.203102e-003
3.779855e+003,5.242103e-003
3.781784e+003,5.226207e-003
3.783712e+003,5.246832e-003
3.785641e+003,5.257362e-003
3.787569e+003,5.294356e-003
3.789498e+003,5.269872e-003
3.791426e+003,5.297576e-003
3.793355e+003,5.280034e-003
3.795283e+003,5.282248e-003
3.797212e+003,5.287379e-003
3.799140e+003,5.333500e-003
3.801069e+003,5.439376e-003
3.802997e+003,5.422667e-003
3.804926e+003,5.377276e-003
3.806854e+003,5.374995e-003
3.808783e+003,5.375330e-003
3.810711e+003,5.327059e-003
3.812640e+003,5.292511e-003
3.814568e+003,5.335210e-003
3.816497e+003,5.337793e-003
3.818425e+003,5.360737e-003
3.820354e+003,5.395459e-003
3.822282e+003,5.313776e-003
3.824211e+003,5.371975e-003
3.826139e+003,5.457426e-003
3.828068e+003,5.375833e-003
3.829996e+003,5.346447e-003
3.831925e+003,5.385562e-003
3.833853e+003,5.444475e-003
3.835782e+003,5.489202e-003
3.837710e+003,5.442529e-003
3.839639e+003,5.429075e-003
3.841567e+003,5.444374e-003
3.843496e+003,5.364528e-003
3.845424e+003,5.376907e-003
3.847353e+003,5.451991e-003
3.849281e+003,5.487961e-003
3.851210e+003,5.604145e-003
3.853138e+003,5.679369e-003
3.855067e+003,5.606898e-003
3.856995e+003,5.498564e-003
3.858924e+003,5.454407e-003
3.860852e+003,5.521283e-003
3.862781e+003,5.546049e-003
3.864709e+003,5.511618e-003
3.866638e+003,5.540680e-003
3.868566e+003,5.575818e-003
3.870495e+003,5.505343e-003
3.872423e+003,5.488800e-003
3.874352e+003,5.490511e-003
3.876280e+003,5.462527e-003
3.878209e+003,5.489102e-003
3.880137e+003,5.490209e-003
3.882066e+003,5.524403e-003
3.883994e+003,5.585014e-003
3.885923e+003,5.614349e-003
3.887851e+003,5.579510e-003
3.889780e+003,5.427129e-003
3.891708e+003,5.451890e-003
3.893637e+003,5.461688e-003
3.895565e+003,5.543633e-003
3.897494e+003,5.586356e-003
3.899422e+003,5.621733e-003
3.901351e+003,5.689709e-003
3.903279e+003,5.679168e-003
3.905208e+003,5.630192e-003
3.907136e+003,5.506920e-003
3.909065e+003,5.469841e-003
3.910993e+003,5.565749e-003
3.912922e+003,5.624721e-003
3.914850e+003,5.632206e-003
3.916779e+003,5.603642e-003
3.918707e+003,5.541049e-003
3.920636e+003,5.583974e-003
3.922564e+003,5.586960e-003
3.924493e+003,5.616665e-003
3.926421e+003,5.683297e-003
3.928350e+003,5.685949e-003
3.930278e+003,5.707468e-003
3.932207e+003,5.705924e-003
3.934135e+003,5.682391e-003
3.936064e+003,5.668325e-003
3.937992e+003,5.619316e-003
3.939921e+003,5.624754e-003
3.941849e+003,5.665706e-003
3.943778e+003,5.648385e-003
3.945706e+003,5.544170e-003
3.947635e+003,5.587229e-003
3.949563e+003,5.661846e-003
3.951492e+003,5.648687e-003
3.953420e+003,5.688937e-003
3.955349e+003,5.624855e-003
3.957277e+003,5.611227e-003
3.959206e+003,5.677959e-003
3.961134e+003,5.702601e-003
3.963063e+003,5.677624e-003
3.964991e+003,5.699277e-003
3.966920e+003,5.685782e-003
3.968848e+003,5.704883e-003
3.970777e+003,5.686788e-003
3.972705e+003,5.680544e-003
3.974634e+003,5.732749e-003
3.976562e+003,5.741512e-003
3.978491e+003,5.644122e-003
3.980419e+003,5.534673e-003
3.982348e+003,5.557124e-003
3.984276e+003,5.616027e-003
3.986205e+003,5.637375e-003
3.988133e+003,5.645767e-003
3.990062e+003,5.757931e-003
3.991990e+003,5.827137e-003
3.993919e+003,5.820085e-003
3.995847e+003,5.733622e-003
3.997776e+003,5.652212e-003
3.999704e+003,5.631803e-003
4.001633e+003,0.000000e+000
