3.991989e+002,3.415267e-002
4.011274e+002,3.226746e-002
4.030559e+002,3.287639e-002
4.049844e+002,3.174477e-002
4.069129e+002,3.207848e-002
4.088414e+002,3.068796e-002
4.107699e+002,3.178659e-002
4.126984e+002,3.317685e-002
4.146269e+002,3.333041e-002
4.165554e+002,3.293679e-002
4.184839e+002,3.328358e-002
4.204124e+002,3.297075e-002
4.223409e+002,3.314109e-002
4.242694e+002,3.261571e-002
4.261979e+002,3.196342e-002
4.281264e+002,3.155792e-002
4.300549e+002,3.260475e-002
4.319834e+002,3.259175e-002
4.339119e+002,3.221542e-002
4.358404e+002,3.090308e-002
4.377689e+002,3.007122e-002
4.396974e+002,3.065816e-002
4.416259e+002,3.188089e-002
4.435544e+002,3.149578e-002
4.454829e+002,3.104022e-002
4.474114e+002,3.055964e-002
4.493399e+002,3.004157e-002
4.512684e+002,3.009466e-002
4.531969e+002,3.029978e-002
4.551254e+002,3.044689e-002
4.570539e+002,3.049399e-002
4.589824e+002,2.973529e-002
4.609109e+002,2.983525e-002
4.628394e+002,2.989875e-002
4.647679e+002,2.985232e-002
4.666964e+002,2.950826e-002
4.686249e+002,2.946989e-002
4.705533e+002,2.914753e-002
4.724819e+002,2.941925e-002
4.744103e+002,2.973709e-002
4.763389e+002,2.994837e-002
4.782673e+002,3.002229e-002
4.801959e+002,3.019627e-002
4.821243e+002,2.989608e-002
4.840529e+002,2.966078e-002
4.859813e+002,2.985182e-002
4.879099e+002,3.022571e-002
4.898383e+002,3.042209e-002
4.917668e+002,3.051347e-002
4.936953e+002,3.043321e-002
4.956238e+002,3.061308e-002
4.975523e+002,3.020941e-002
4.994808e+002,2.985555e-002
5.014093e+002,2.994394e-002
5.033378e+002,2.988760e-002
5.052663e+002,2.957256e-002
5.071948e+002,2.986052e-002
5.091233e+002,2.987706e-002
5.110518e+002,2.989601e-002
5.129803e+002,3.018241e-002
5.149088e+002,3.046658e-002
5.168373e+002,3.045923e-002
5.187658e+002,3.049836e-002
5.206943e+002,3.034281e-002
5.226228e+002,3.080710e-002
5.245513e+002,3.103638e-002
5.264798e+002,3.094528e-002
5.284083e+002,3.035144e-002
5.303368e+002,3.031748e-002
5.322653e+002,3.036203e-002
5.341938e+002,3.021261e-002
5.361223e+002,2.979461e-002
5.380508e+002,2.956543e-002
5.399792e+002,2.942152e-002
5.419078e+002,2.951312e-002
5.438363e+002,2.940504e-002
5.457648e+002,2.954014e-002
5.476932e+002,2.934821e-002
5.496218e+002,2.944468e-002
5.515503e+002,2.951255e-002
5.534788e+002,2.992945e-002
5.554072e+002,3.007878e-002
5.573358e+002,3.030781e-002
5.592643e+002,3.012552e-002
5.611927e+002,2.991216e-002
5.631212e+002,2.961154e-002
5.650497e+002,2.964843e-002
5.669783e+002,2.954447e-002
5.689067e+002,2.918871e-002
5.708352e+002,2.908397e-002
5.727637e+002,2.920933e-002
5.746923e+002,2.889818e-002
5.766207e+002,2.875432e-002
5.785492e+002,2.894019e-002
5.804777e+002,2.992132e-002
5.824063e+002,2.909626e-002
5.843347e+002,2.817984e-002
5.862632e+002,2.822627e-002
5.881917e+002,2.830452e-002
5.901202e+002,2.833076e-002
5.920487e+002,2.829034e-002
5.939772e+002,2.802084e-002
5.959057e+002,2.767268e-002
5.978342e+002,2.746971e-002
5.997627e+002,2.736429e-002
6.016912e+002,2.741889e-002
6.036197e+002,2.728945e-002
6.055482e+002,2.707805e-002
6.074767e+002,2.695393e-002
6.094052e+002,2.666479e-002
6.113337e+002,2.646757e-002
6.132622e+002,2.642405e-002
6.151907e+002,2.636253e-002
6.171192e+002,2.639757e-002
6.190477e+002,2.587532e-002
6.209762e+002,2.527809e-002
6.229047e+002,2.512917e-002
6.248332e+002,2.492661e-002
6.267617e+002,2.449688e-002
6.286902e+002,2.417577e-002
6.306187e+002,2.410869e-002
6.325472e+002,2.398318e-002
6.344756e+002,2.413209e-002
6.364042e+002,2.418863e-002
6.383326e+002,2.406803e-002
6.402612e+002,2.393585e-002
6.421896e+002,2.406404e-002
6.441182e+002,2.430555e-002
6.460466e+002,2.452345e-002
6.479752e+002,2.492671e-002
6.499036e+002,2.502158e-002
6.518322e+002,2.482552e-002
6.537606e+002,2.465491e-002
6.556891e+002,2.439137e-002
6.576177e+002,2.418951e-002
6.595461e+002,2.409055e-002
6.614746e+002,2.384822e-002
6.634031e+002,2.329141e-002
6.653317e+002,2.303960e-002
6.672601e+002,2.560777e-002
6.691886e+002,2.681392e-002
6.711171e+002,2.334962e-002
6.730457e+002,2.218862e-002
6.749741e+002,2.193933e-002
6.769026e+002,2.189385e-002
6.788311e+002,2.176943e-002
6.807596e+002,2.139272e-002
6.826881e+002,2.101905e-002
6.846166e+002,2.059189e-002
6.865451e+002,2.017430e-002
6.884736e+002,2.004916e-002
6.904021e+002,1.992294e-002
6.923306e+002,1.962447e-002
6.942591e+002,1.941944e-002
6.961876e+002,1.924775e-002
6.981161e+002,1.886336e-002
7.000446e+002,1.860812e-002
7.019731e+002,1.847243e-002
7.039016e+002,1.824282e-002
7.058301e+002,1.799886e-002
7.077585e+002,1.780467e-002
7.096871e+002,1.775103e-002
7.116156e+002,1.776811e-002
7.135441e+002,1.762327e-002
7.154725e+002,1.749572e-002
7.174011e+002,1.736986e-002
7.193296e+002,1.779601e-002
7.212581e+002,1.773060e-002
7.231865e+002,1.725262e-002
7.251151e+002,1.712270e-002
7.270436e+002,1.696346e-002
7.289720e+002,1.665923e-002
7.309005e+002,1.650574e-002
7.328290e+002,1.643491e-002
7.347576e+002,1.638020e-002
7.366860e+002,1.627118e-002
7.386145e+002,1.604479e-002
7.405430e+002,1.588852e-002
7.424716e+002,1.566333e-002
7.444000e+002,1.548848e-002
7.463285e+002,1.529497e-002
7.482570e+002,1.510078e-002
7.501855e+002,1.495099e-002
7.521140e+002,1.488275e-002
7.540425e+002,1.482484e-002
7.559710e+002,1.470277e-002
7.578995e+002,1.461778e-002
7.598280e+002,1.453472e-002
7.617565e+002,1.451814e-002
7.636850e+002,1.437886e-002
7.656135e+002,1.423089e-002
7.675420e+002,1.414380e-002
7.694705e+002,1.419268e-002
7.713990e+002,1.420994e-002
7.733275e+002,1.405019e-002
7.752560e+002,1.405334e-002
7.771844e+002,1.402620e-002
7.791130e+002,1.393620e-002
7.810415e+002,1.393381e-002
7.829700e+002,1.391526e-002
7.848984e+002,1.377621e-002
7.868270e+002,1.377994e-002
7.887555e+002,1.385837e-002
7.906840e+002,1.380128e-002
7.926124e+002,1.359864e-002
7.945410e+002,1.358072e-002
7.964695e+002,1.356811e-002
7.983979e+002,1.360182e-002
8.003264e+002,1.361559e-002
8.022549e+002,1.358000e-002
8.041835e+002,1.362592e-002
8.061119e+002,1.369834e-002
8.080404e+002,1.377406e-002
8.099689e+002,1.373220e-002
8.118975e+002,1.367416e-002
8.138259e+002,1.363973e-002
8.157545e+002,1.363057e-002
8.176830e+002,1.370833e-002
8.196115e+002,1.378004e-002
8.215399e+002,1.366425e-002
8.234684e+002,1.354008e-002
8.253970e+002,1.357990e-002
8.273254e+002,1.367286e-002
8.292539e+002,1.365837e-002
8.311824e+002,1.376120e-002
8.331110e+002,1.371185e-002
8.350394e+002,1.360677e-002
8.369679e+002,1.365402e-002
8.388964e+002,1.372871e-002
8.408250e+002,1.366596e-002
8.427534e+002,1.363813e-002
8.446819e+002,1.375613e-002
8.466104e+002,1.381216e-002
8.485389e+002,1.367878e-002
8.504674e+002,1.359747e-002
8.523959e+002,1.354879e-002
8.543244e+002,1.355074e-002
8.562529e+002,1.364558e-002
8.581814e+002,1.379752e-002
8.601099e+002,1.388242e-002
8.620384e+002,1.383248e-002
8.639669e+002,1.378138e-002
8.658954e+002,1.385095e-002
8.678239e+002,1.395485e-002
8.697524e+002,1.408722e-002
8.716809e+002,1.427057e-002
8.736094e+002,1.440996e-002
8.755378e+002,1.451430e-002
8.774664e+002,1.466935e-002
8.793949e+002,1.488076e-002
8.813234e+002,1.521305e-002
8.832518e+002,1.554521e-002
8.851804e+002,1.595207e-002
8.871089e+002,1.645756e-002
8.890374e+002,1.716248e-002
8.909658e+002,1.792668e-002
8.928943e+002,1.845802e-002
8.948229e+002,1.872732e-002
8.967513e+002,1.885205e-002
8.986798e+002,1.862607e-002
9.006083e+002,1.813381e-002
9.025369e+002,1.755778e-002
9.044653e+002,1.693138e-002
9.063938e+002,1.644572e-002
9.083223e+002,1.608577e-002
9.102509e+002,1.582714e-002
9.121793e+002,1.577007e-002
9.141078e+002,1.577312e-002
9.160364e+002,1.582281e-002
9.179648e+002,1.588013e-002
9.198933e+002,1.603585e-002
9.218218e+002,1.624449e-002
9.237504e+002,1.642727e-002
9.256788e+002,1.659114e-002
9.276073e+002,1.684781e-002
9.295358e+002,1.723645e-002
9.314644e+002,1.752269e-002
9.333928e+002,1.778582e-002
9.353213e+002,1.821597e-002
9.372498e+002,1.870362e-002
9.391783e+002,1.910795e-002
9.411068e+002,1.967308e-002
9.430353e+002,2.027598e-002
9.449637e+002,2.092631e-002
9.468923e+002,2.169039e-002
9.488208e+002,2.249789e-002
9.507493e+002,2.331008e-002
9.526777e+002,2.406642e-002
9.546063e+002,2.488759e-002
9.565348e+002,2.574170e-002
9.584633e+002,2.651364e-002
9.603917e+002,2.728645e-002
9.623203e+002,2.803258e-002
9.642488e+002,2.878955e-002
9.661772e+002,2.938490e-002
9.681057e+002,2.996119e-002
9.700343e+002,3.059811e-002
9.719628e+002,3.114768e-002
9.738912e+002,3.166999e-002
9.758197e+002,3.224108e-002
9.777483e+002,3.286074e-002
9.796768e+002,3.333775e-002
9.816052e+002,3.385511e-002
9.835337e+002,3.428395e-002
9.854623e+002,3.454337e-002
9.873907e+002,3.467090e-002
9.893192e+002,3.474448e-002
9.912477e+002,3.457218e-002
9.931763e+002,3.441086e-002
9.951047e+002,3.428227e-002
9.970332e+002,3.423117e-002
9.989617e+002,3.427700e-002
1.000890e+003,3.446169e-002
1.002819e+003,3.474911e-002
1.004747e+003,3.500719e-002
1.006676e+003,3.512368e-002
1.008604e+003,3.533206e-002
1.010533e+003,3.562322e-002
1.012461e+003,3.598570e-002
1.014390e+003,3.631180e-002
1.016318e+003,3.682663e-002
1.018247e+003,3.737475e-002
1.020175e+003,3.789912e-002
1.022104e+003,3.835539e-002
1.024032e+003,3.883678e-002
1.025961e+003,3.927655e-002
1.027889e+003,3.967277e-002
1.029818e+003,4.000249e-002
1.031746e+003,4.011884e-002
1.033675e+003,3.997898e-002
1.035603e+003,3.968997e-002
1.037532e+003,3.928028e-002
1.039460e+003,3.885674e-002
1.041389e+003,3.832861e-002
1.043317e+003,3.771744e-002
1.045246e+003,3.707007e-002
1.047174e+003,3.640274e-002
1.049103e+003,3.575038e-002
1.051031e+003,3.512698e-002
1.052960e+003,3.440954e-002
1.054888e+003,3.362603e-002
1.056817e+003,3.282464e-002
1.058745e+003,3.204681e-002
1.060674e+003,3.135091e-002
1.062602e+003,3.074696e-002
1.064531e+003,3.009824e-002
1.066459e+003,2.955681e-002
1.068388e+003,2.909431e-002
1.070316e+003,2.865128e-002
1.072245e+003,2.828380e-002
1.074173e+003,2.795801e-002
1.076102e+003,2.762353e-002
1.078030e+003,2.721910e-002
1.079959e+003,2.681600e-002
1.081887e+003,2.638862e-002
1.083816e+003,2.600926e-002
1.085744e+003,2.572346e-002
1.087673e+003,2.541023e-002
1.089601e+003,2.513127e-002
1.091530e+003,2.482524e-002
1.093458e+003,2.447546e-002
1.095387e+003,2.407977e-002
1.097315e+003,2.371897e-002
1.099244e+003,2.342480e-002
1.101172e+003,2.320699e-002
1.103101e+003,2.302468e-002
1.105029e+003,2.291384e-002
1.106958e+003,2.265656e-002
1.108886e+003,2.221902e-002
1.110815e+003,2.172637e-002
1.112743e+003,2.114778e-002
1.114672e+003,2.053387e-002
1.116600e+003,1.992919e-002
1.118529e+003,1.939144e-002
1.120457e+003,1.887617e-002
1.122386e+003,1.834273e-002
1.124314e+003,1.779677e-002
1.126243e+003,1.718819e-002
1.128171e+003,1.660663e-002
1.130100e+003,1.602949e-002
1.132028e+003,1.552622e-002
1.133957e+003,1.510572e-002
1.135885e+003,1.475460e-002
1.137814e+003,1.444531e-002
1.139742e+003,1.426855e-002
1.141671e+003,1.421685e-002
1.143599e+003,1.423147e-002
1.145528e+003,1.442743e-002
1.147456e+003,1.473338e-002
1.149385e+003,1.509022e-002
1.151313e+003,1.551156e-002
1.153242e+003,1.588309e-002
1.155170e+003,1.624758e-002
1.157099e+003,1.662994e-002
1.159027e+003,1.692959e-002
1.160956e+003,1.709957e-002
1.162884e+003,1.712508e-002
1.164813e+003,1.691771e-002
1.166741e+003,1.654470e-002
1.168670e+003,1.602591e-002
1.170598e+003,1.538888e-002
1.172526e+003,1.467107e-002
1.174455e+003,1.395314e-002
1.176384e+003,1.324210e-002
1.178312e+003,1.266794e-002
1.180240e+003,1.213853e-002
1.182169e+003,1.169322e-002
1.184098e+003,1.131226e-002
1.186026e+003,1.102193e-002
1.187954e+003,1.079007e-002
1.189883e+003,1.074126e-002
1.191812e+003,1.066685e-002
1.193740e+003,1.064529e-002
1.195668e+003,1.077329e-002
1.197597e+003,1.098067e-002
1.199526e+003,1.114667e-002
1.201454e+003,1.128665e-002
1.203382e+003,1.133651e-002
1.205311e+003,1.137885e-002
1.207240e+003,1.139658e-002
1.209168e+003,1.137960e-002
1.211096e+003,1.144679e-002
1.213025e+003,1.157250e-002
1.214953e+003,1.166191e-002
1.216882e+003,1.178282e-002
1.218810e+003,1.196670e-002
1.220739e+003,1.209243e-002
1.222667e+003,1.228528e-002
1.224596e+003,1.260228e-002
1.226524e+003,1.291535e-002
1.228453e+003,1.323021e-002
1.230381e+003,1.358520e-002
1.232310e+003,1.391502e-002
1.234238e+003,1.416697e-002
1.236167e+003,1.438458e-002
1.238095e+003,1.461199e-002
1.240024e+003,1.480773e-002
1.241952e+003,1.492623e-002
1.243881e+003,1.497788e-002
1.245809e+003,1.496447e-002
1.247738e+003,1.487929e-002
1.249666e+003,1.471251e-002
1.251595e+003,1.459533e-002
1.253523e+003,1.439780e-002
1.255452e+003,1.418830e-002
1.257380e+003,1.395861e-002
1.259309e+003,1.369167e-002
1.261237e+003,1.341731e-002
1.263166e+003,1.314271e-002
1.265094e+003,1.285951e-002
1.267023e+003,1.261186e-002
1.268951e+003,1.239191e-002
1.270880e+003,1.211857e-002
1.272808e+003,1.186494e-002
1.274737e+003,1.167750e-002
1.276665e+003,1.148941e-002
1.278594e+003,1.132403e-002
1.280522e+003,1.120675e-002
1.282451e+003,1.106903e-002
1.284379e+003,1.096405e-002
1.286308e+003,1.087850e-002
1.288236e+003,1.075638e-002
1.290165e+003,1.071837e-002
1.292093e+003,1.076983e-002
1.294022e+003,1.085071e-002
1.295950e+003,1.089127e-002
1.297879e+003,1.096042e-002
1.299807e+003,1.108151e-002
1.301736e+003,1.124534e-002
1.303664e+003,1.143753e-002
1.305593e+003,1.158377e-002
1.307521e+003,1.172903e-002
1.309450e+003,1.187877e-002
1.311378e+003,1.202079e-002
1.313307e+003,1.215700e-002
1.315235e+003,1.219881e-002
1.317164e+003,1.218501e-002
1.319092e+003,1.210211e-002
1.321021e+003,1.200880e-002
1.322949e+003,1.190908e-002
1.324878e+003,1.179797e-002
1.326806e+003,1.172988e-002
1.328735e+003,1.169802e-002
1.330663e+003,1.165006e-002
1.332592e+003,1.160766e-002
1.334520e+003,1.160139e-002
1.336449e+003,1.164434e-002
1.338377e+003,1.163560e-002
1.340306e+003,1.158043e-002
1.342234e+003,1.155311e-002
1.344163e+003,1.159343e-002
1.346091e+003,1.161297e-002
1.348020e+003,1.164625e-002
1.349948e+003,1.170997e-002
1.351877e+003,1.180570e-002
1.353805e+003,1.190254e-002
1.355734e+003,1.198343e-002
1.357662e+003,1.205418e-002
1.359591e+003,1.214180e-002
1.361519e+003,1.228494e-002
1.363448e+003,1.235897e-002
1.365376e+003,1.233583e-002
1.367305e+003,1.233733e-002
1.369233e+003,1.235018e-002
1.371162e+003,1.231514e-002
1.373090e+003,1.221929e-002
1.375019e+003,1.202781e-002
1.376947e+003,1.181993e-002
1.378876e+003,1.162525e-002
1.380804e+003,1.143444e-002
1.382733e+003,1.118196e-002
1.384661e+003,1.092076e-002
1.386590e+003,1.077261e-002
1.388518e+003,1.054686e-002
1.390447e+003,1.031692e-002
1.392375e+003,1.020117e-002
1.394304e+003,1.014310e-002
1.396232e+003,1.005774e-002
1.398161e+003,1.000986e-002
1.400089e+003,9.922827e-003
1.402018e+003,9.866524e-003
1.403946e+003,9.909539e-003
1.405875e+003,9.994463e-003
1.407803e+003,1.007696e-002
1.409732e+003,1.014839e-002
1.411660e+003,1.029063e-002
1.413589e+003,1.045362e-002
1.415517e+003,1.060142e-002
1.417446e+003,1.077152e-002
1.419374e+003,1.087931e-002
1.421303e+003,1.085672e-002
1.423231e+003,1.087958e-002
1.425160e+003,1.089263e-002
1.427088e+003,1.089018e-002
1.429017e+003,1.091713e-002
1.430945e+003,1.081062e-002
1.432874e+003,1.060777e-002
1.434802e+003,1.050175e-002
1.436731e+003,1.045609e-002
1.438659e+003,1.027638e-002
1.440588e+003,1.016141e-002
1.442516e+003,1.005350e-002
1.444445e+003,9.986157e-003
1.446373e+003,9.959745e-003
1.448302e+003,9.951134e-003
1.450230e+003,9.920387e-003
1.452159e+003,9.898793e-003
1.454087e+003,9.929912e-003
1.456016e+003,1.004102e-002
1.457944e+003,9.975511e-003
1.459873e+003,9.849779e-003
1.461801e+003,9.780980e-003
1.463730e+003,9.742077e-003
1.465658e+003,9.527363e-003
1.467587e+003,9.178416e-003
1.469515e+003,8.802596e-003
1.471444e+003,8.498830e-003
1.473372e+003,8.164955e-003
1.475301e+003,7.787752e-003
1.477229e+003,7.507415e-003
1.479158e+003,7.322613e-003
1.481086e+003,7.203980e-003
1.483015e+003,7.079554e-003
1.484943e+003,7.032642e-003
1.486872e+003,7.055239e-003
1.488800e+003,7.143817e-003
1.490729e+003,7.255964e-003
1.492657e+003,7.337575e-003
1.494586e+003,7.430728e-003
1.496514e+003,7.541027e-003
1.498443e+003,7.573833e-003
1.500371e+003,7.586712e-003
1.502300e+003,7.617229e-003
1.504228e+003,7.806070e-003
1.506157e+003,8.032490e-003
1.508085e+003,8.052742e-003
1.510014e+003,8.075257e-003
1.511942e+003,8.218473e-003
1.513871e+003,8.286519e-003
1.515799e+003,8.287802e-003
1.517728e+003,8.154692e-003
1.519656e+003,8.039274e-003
1.521585e+003,7.870913e-003
1.523513e+003,7.544736e-003
1.525442e+003,7.410269e-003
1.527370e+003,7.321467e-003
1.529299e+003,7.277696e-003
1.531227e+003,7.243162e-003
1.533156e+003,7.272912e-003
1.535084e+003,7.214155e-003
1.537013e+003,7.263680e-003
1.538941e+003,7.468413e-003
1.540870e+003,7.478121e-003
1.542798e+003,7.336025e-003
1.544727e+003,7.291511e-003
1.546655e+003,7.252023e-003
1.548584e+003,7.242757e-003
1.550512e+003,7.295892e-003
1.552441e+003,7.349336e-003
1.554369e+003,7.405685e-003
1.556298e+003,7.480919e-003
1.558226e+003,7.676783e-003
1.560155e+003,7.611395e-003
1.562083e+003,7.431671e-003
1.564012e+003,7.441110e-003
1.565940e+003,7.500370e-003
1.567869e+003,7.605865e-003
1.569797e+003,7.682280e-003
1.571726e+003,7.723595e-003
1.573654e+003,7.827154e-003
1.575583e+003,8.027900e-003
1.577511e+003,8.104051e-003
1.579440e+003,8.175591e-003
1.581368e+003,8.333735e-003
1.583297e+003,8.508393e-003
1.585225e+003,8.671491e-003
1.587154e+003,8.771422e-003
1.589082e+003,8.902997e-003
1.591010e+003,8.993003e-003
1.592939e+003,9.082722e-003
1.594868e+003,9.186300e-003
1.596796e+003,9.243634e-003
1.598724e+003,9.284048e-003
1.600653e+003,9.346675e-003
1.602582e+003,9.417438e-003
1.604510e+003,9.461763e-003
1.606438e+003,9.439413e-003
1.608367e+003,9.389537e-003
1.610296e+003,9.356358e-003
1.612224e+003,9.383071e-003
1.614152e+003,9.492411e-003
1.616081e+003,9.670516e-003
1.618010e+003,9.692505e-003
1.619938e+003,9.731200e-003
1.621866e+003,9.845373e-003
1.623795e+003,9.939642e-003
1.625724e+003,9.967882e-003
1.627652e+003,1.001728e-002
1.629580e+003,1.003163e-002
1.631509e+003,1.002352e-002
1.633438e+003,1.009015e-002
1.635366e+003,1.016365e-002
1.637294e+003,1.003668e-002
1.639223e+003,9.897166e-003
1.641151e+003,9.819648e-003
1.643080e+003,9.788096e-003
1.645008e+003,9.877777e-003
1.646937e+003,9.870862e-003
1.648865e+003,9.786571e-003
1.650794e+003,9.870896e-003
1.652722e+003,9.990836e-003
1.654651e+003,9.727507e-003
1.656579e+003,9.456853e-003
1.658508e+003,9.278598e-003
1.660436e+003,9.096628e-003
1.662365e+003,8.984647e-003
1.664293e+003,8.820382e-003
1.666222e+003,8.585237e-003
1.668150e+003,8.470144e-003
1.670079e+003,8.373390e-003
1.672007e+003,8.279866e-003
1.673936e+003,8.227658e-003
1.675864e+003,8.187577e-003
1.677793e+003,8.061249e-003
1.679721e+003,8.006299e-003
1.681650e+003,8.019529e-003
1.683578e+003,8.199530e-003
1.685507e+003,8.103579e-003
1.687435e+003,7.923112e-003
1.689364e+003,7.964686e-003
1.691292e+003,7.991888e-003
1.693221e+003,7.976836e-003
1.695149e+003,8.081806e-003
1.697078e+003,8.061958e-003
1.699006e+003,8.168332e-003
1.700935e+003,8.213374e-003
1.702863e+003,8.099731e-003
1.704792e+003,8.190515e-003
1.706720e+003,8.299758e-003
1.708649e+003,8.354677e-003
1.710577e+003,8.421663e-003
1.712506e+003,8.601797e-003
1.714434e+003,8.803780e-003
1.716363e+003,9.093819e-003
1.718291e+003,9.204474e-003
1.720220e+003,9.241569e-003
1.722148e+003,9.453738e-003
1.724077e+003,9.688101e-003
1.726005e+003,9.870421e-003
1.727934e+003,1.008134e-002
1.729862e+003,1.025497e-002
1.731791e+003,1.030376e-002
1.733719e+003,1.023533e-002
1.735648e+003,9.863405e-003
1.737576e+003,9.313770e-003
1.739505e+003,8.825217e-003
1.741433e+003,8.251363e-003
1.743362e+003,7.643430e-003
1.745290e+003,7.146882e-003
1.747219e+003,6.808458e-003
1.749147e+003,6.588831e-003
1.751076e+003,6.399240e-003
1.753004e+003,6.166545e-003
1.754933e+003,5.975526e-003
1.756861e+003,5.899344e-003
1.758790e+003,5.842954e-003
1.760718e+003,5.809944e-003
1.762647e+003,5.690582e-003
1.764575e+003,5.601494e-003
1.766504e+003,5.547626e-003
1.768432e+003,5.534538e-003
1.770361e+003,5.539740e-003
1.772289e+003,5.624922e-003
1.774218e+003,5.533867e-003
1.776146e+003,5.428907e-003
1.778075e+003,5.449542e-003
1.780003e+003,5.528733e-003
1.781932e+003,5.488934e-003
1.783860e+003,5.446522e-003
1.785789e+003,5.458601e-003
1.787717e+003,5.539572e-003
1.789646e+003,5.533163e-003
1.791574e+003,5.564977e-003
1.793503e+003,5.536250e-003
1.795431e+003,5.525981e-003
1.797360e+003,5.532558e-003
1.799288e+003,5.583671e-003
1.801217e+003,5.545110e-003
1.803145e+003,5.441288e-003
1.805074e+003,5.438101e-003
1.807002e+003,5.439811e-003
1.808931e+003,5.464976e-003
1.810859e+003,5.464137e-003
1.812788e+003,5.466218e-003
1.814716e+003,5.449273e-003
1.816645e+003,5.436859e-003
1.818573e+003,5.425586e-003
1.820502e+003,5.545814e-003
1.822430e+003,5.616799e-003
1.824359e+003,5.560044e-003
1.826287e+003,5.456991e-003
1.828216e+003,5.503430e-003
1.830144e+003,5.585283e-003
1.832073e+003,5.537458e-003
1.834001e+003,5.532088e-003
1.835930e+003,5.556151e-003
1.837858e+003,5.545579e-003
1.839787e+003,5.599110e-003
1.841715e+003,5.634858e-003
1.843644e+003,5.701258e-003
1.845572e+003,5.602098e-003
1.847501e+003,5.514907e-003
1.849429e+003,5.610120e-003
1.851358e+003,5.638751e-003
1.853286e+003,5.691690e-003
1.855215e+003,5.679772e-003
1.857143e+003,5.708140e-003
1.859072e+003,5.709651e-003
1.861000e+003,5.808902e-003
1.862929e+003,5.820656e-003
1.864857e+003,5.701661e-003
1.866786e+003,5.610657e-003
1.868714e+003,5.524907e-003
1.870643e+003,5.609146e-003
1.872571e+003,5.753264e-003
1.874500e+003,5.650198e-003
1.876428e+003,5.570616e-003
1.878357e+003,5.637308e-003
1.880285e+003,5.651373e-003
1.882214e+003,5.698774e-003
1.884142e+003,5.721368e-003
1.886071e+003,5.604615e-003
1.887999e+003,5.658892e-003
1.889928e+003,5.781771e-003
1.891856e+003,5.727478e-003
1.893785e+003,5.623546e-003
1.895713e+003,5.592264e-003
1.897642e+003,5.659530e-003
1.899570e+003,5.593707e-003
1.901499e+003,5.458164e-003
1.903427e+003,5.384790e-003
1.905356e+003,5.555312e-003
1.907284e+003,5.788452e-003
1.909213e+003,5.545445e-003
1.911141e+003,5.558467e-003
1.913070e+003,5.618511e-003
1.914998e+003,5.443804e-003
1.916927e+003,5.355571e-003
1.918855e+003,5.346246e-003
1.920784e+003,5.279967e-003
1.922712e+003,5.243109e-003
1.924641e+003,5.511618e-003
1.926569e+003,5.441724e-003
1.928498e+003,5.187777e-003
1.930426e+003,5.296771e-003
1.932355e+003,5.461017e-003
1.934283e+003,5.242606e-003
1.936212e+003,5.162729e-003
1.938140e+003,5.282348e-003
1.940069e+003,5.179998e-003
1.941997e+003,4.801960e-003
1.943926e+003,4.427028e-003
1.945854e+003,4.143533e-003
1.947783e+003,4.295497e-003
1.949711e+003,4.765343e-003
1.951640e+003,5.081292e-003
1.953568e+003,4.636824e-003
1.955497e+003,4.380034e-003
1.957425e+003,4.384151e-003
1.959354e+003,4.428702e-003
1.961282e+003,3.913246e-003
1.963211e+003,3.701928e-003
1.965139e+003,3.342235e-003
1.967068e+003,3.779664e-003
1.968996e+003,3.684417e-003
1.970925e+003,3.312619e-003
1.972853e+003,3.353621e-003
1.974782e+003,3.022911e-003
1.976710e+003,3.076833e-003
1.978639e+003,3.269585e-003
1.980567e+003,3.999681e-003
1.982496e+003,4.583679e-003
1.984424e+003,4.556155e-003
1.986353e+003,3.844946e-003
1.988281e+003,3.555383e-003
1.990210e+003,3.055777e-003
1.992138e+003,3.775887e-003
1.994067e+003,4.470546e-003
1.995995e+003,4.273613e-003
1.997924e+003,4.522941e-003
1.999852e+003,4.528733e-003
2.001781e+003,4.258488e-003
2.003709e+003,3.129326e-003
2.005638e+003,2.728227e-003
2.007566e+003,2.622309e-003
2.009495e+003,2.554978e-003
2.011423e+003,3.307511e-003
2.013352e+003,2.847077e-003
2.015280e+003,2.155374e-003
2.017208e+003,2.008951e-003
2.019137e+003,1.423582e-003
2.021066e+003,1.482426e-003
2.022994e+003,1.910397e-003
2.024922e+003,1.756836e-003
2.026851e+003,2.125906e-003
2.028780e+003,1.697756e-003
2.030708e+003,1.552317e-003
2.032636e+003,1.938453e-003
2.034565e+003,2.027958e-003
2.036494e+003,1.966078e-003
2.038422e+003,2.631843e-003
2.040350e+003,3.903584e-003
2.042279e+003,4.051684e-003
2.044208e+003,3.275360e-003
2.046136e+003,2.708788e-003
2.048064e+003,2.913552e-003
2.049993e+003,3.720676e-003
2.051921e+003,4.184748e-003
2.053850e+003,4.247413e-003
2.055778e+003,4.122392e-003
2.057707e+003,3.704234e-003
2.059635e+003,3.750152e-003
2.061564e+003,3.743635e-003
2.063492e+003,4.319524e-003
2.065421e+003,5.103586e-003
2.067349e+003,5.121556e-003
2.069278e+003,4.855667e-003
2.071206e+003,4.617534e-003
2.073135e+003,4.950300e-003
2.075063e+003,5.175773e-003
2.076992e+003,4.756834e-003
2.078920e+003,4.384553e-003
2.080849e+003,4.641245e-003
2.082777e+003,4.939442e-003
2.084706e+003,4.954758e-003
2.086634e+003,5.016428e-003
2.088563e+003,4.964175e-003
2.090491e+003,4.971180e-003
2.092420e+003,5.177215e-003
2.094348e+003,5.347219e-003
2.096277e+003,5.051893e-003
2.098205e+003,4.703641e-003
2.100134e+003,5.115488e-003
2.102062e+003,5.509001e-003
2.103991e+003,5.308007e-003
2.105919e+003,5.039523e-003
2.107848e+003,5.049949e-003
2.109776e+003,5.125781e-003
2.111705e+003,5.248006e-003
2.113633e+003,5.289660e-003
2.115562e+003,5.221412e-003
2.117490e+003,5.192707e-003
2.119419e+003,5.138890e-003
2.121347e+003,5.007512e-003
2.123276e+003,5.204846e-003
2.125204e+003,5.370533e-003
2.127133e+003,5.169201e-003
2.129061e+003,4.861397e-003
2.130990e+003,4.648043e-003
2.132918e+003,4.843337e-003
2.134847e+003,4.648579e-003
2.136775e+003,4.040113e-003
2.138704e+003,4.458193e-003
2.140632e+003,4.490700e-003
2.142561e+003,4.082622e-003
2.144489e+003,3.686623e-003
2.146418e+003,3.696815e-003
2.148346e+003,3.826761e-003
2.150275e+003,3.666306e-003
2.152203e+003,3.430027e-003
2.154132e+003,3.222849e-003
2.156060e+003,2.435075e-003
2.157989e+003,1.566816e-003
2.159917e+003,1.333337e-003
2.161846e+003,1.261587e-003
2.163774e+003,2.022066e-003
2.165703e+003,3.595706e-003
2.167631e+003,3.462356e-003
2.169560e+003,3.214337e-003
2.171488e+003,3.270553e-003
2.173417e+003,3.211099e-003
2.175345e+003,3.294891e-003
2.177274e+003,2.879329e-003
2.179202e+003,2.728727e-003
2.181131e+003,3.125121e-003
2.183059e+003,2.913752e-003
2.184988e+003,2.962356e-003
2.186916e+003,3.574057e-003
2.188845e+003,4.050581e-003
2.190773e+003,4.197896e-003
2.192702e+003,3.938590e-003
2.194630e+003,3.652606e-003
2.196559e+003,3.558924e-003
2.198487e+003,3.785146e-003
2.200416e+003,3.902714e-003
2.202344e+003,3.728696e-003
2.204273e+003,4.065698e-003
2.206201e+003,4.271371e-003
2.208130e+003,4.240186e-003
2.210058e+003,4.004162e-003
2.211987e+003,3.140907e-003
2.213915e+003,3.426587e-003
2.215844e+003,3.421310e-003
2.217772e+003,3.470873e-003
2.219701e+003,3.438042e-003
2.221629e+003,3.307812e-003
2.223558e+003,3.421744e-003
2.225486e+003,3.616955e-003
2.227415e+003,3.969385e-003
2.229343e+003,4.236371e-003
2.231272e+003,4.330702e-003
2.233200e+003,4.519559e-003
2.235129e+003,4.673832e-003
2.237057e+003,4.685119e-003
2.238986e+003,4.788190e-003
2.240914e+003,4.891890e-003
2.242843e+003,4.944603e-003
2.244771e+003,4.773148e-003
2.246700e+003,5.030573e-003
2.248628e+003,5.250957e-003
2.250557e+003,5.063190e-003
2.252485e+003,4.917659e-003
2.254414e+003,5.239219e-003
2.256342e+003,5.427062e-003
2.258271e+003,5.242606e-003
2.260199e+003,5.448199e-003
2.262128e+003,5.733790e-003
2.264056e+003,5.501484e-003
2.265985e+003,5.687964e-003
2.267913e+003,5.877143e-003
2.269842e+003,5.778513e-003
2.271770e+003,5.856959e-003
2.273699e+003,6.030857e-003
2.275627e+003,5.900116e-003
2.277556e+003,5.888260e-003
2.279484e+003,5.876672e-003
2.281413e+003,6.082499e-003
2.283341e+003,6.254270e-003
2.285270e+003,6.349477e-003
2.287198e+003,6.527710e-003
2.289127e+003,6.817849e-003
2.291055e+003,7.080564e-003
2.292984e+003,7.352503e-003
2.294912e+003,7.561526e-003
2.296841e+003,7.722617e-003
2.298769e+003,7.925676e-003
2.300698e+003,8.184843e-003
2.302626e+003,8.308066e-003
2.304555e+003,8.728655e-003
2.306483e+003,9.499456e-003
2.308412e+003,1.024462e-002
2.310340e+003,1.061453e-002
2.312269e+003,1.087890e-002
2.314197e+003,1.098855e-002
2.316125e+003,1.123371e-002
2.318054e+003,1.204007e-002
2.319983e+003,1.329618e-002
2.321911e+003,1.428091e-002
2.323840e+003,1.495651e-002
2.325768e+003,1.546067e-002
2.327697e+003,1.589124e-002
2.329625e+003,1.659875e-002
2.331553e+003,1.702582e-002
2.333482e+003,1.712418e-002
2.335411e+003,1.754074e-002
2.337339e+003,1.787106e-002
2.339268e+003,1.811067e-002
2.341196e+003,1.865675e-002
2.343125e+003,1.845563e-002
2.345053e+003,1.723218e-002
2.346981e+003,1.481528e-002
2.348910e+003,1.392265e-002
2.350839e+003,1.541679e-002
2.352767e+003,1.763359e-002
2.354696e+003,1.965578e-002
2.356624e+003,2.135116e-002
2.358552e+003,2.217062e-002
2.360481e+003,2.212686e-002
2.362409e+003,2.210476e-002
2.364338e+003,2.154719e-002
2.366267e+003,2.071764e-002
2.368195e+003,1.914046e-002
2.370124e+003,1.730220e-002
2.372052e+003,1.542362e-002
2.373980e+003,1.387339e-002
2.375909e+003,1.243255e-002
2.377838e+003,1.096609e-002
2.379766e+003,9.711751e-003
2.381695e+003,8.410987e-003
2.383623e+003,7.261456e-003
2.385552e+003,6.630682e-003
2.387480e+003,6.273767e-003
2.389408e+003,6.112540e-003
2.391337e+003,6.093117e-003
2.393266e+003,6.052326e-003
2.395194e+003,6.137407e-003
2.397123e+003,6.113044e-003
2.399051e+003,6.037106e-003
2.400979e+003,6.024003e-003
2.402908e+003,6.025683e-003
2.404836e+003,6.107634e-003
2.406765e+003,6.063851e-003
2.408694e+003,6.064321e-003
2.410622e+003,6.132971e-003
2.412551e+003,6.124873e-003
2.414479e+003,6.061432e-003
2.416407e+003,6.031160e-003
2.418336e+003,6.042448e-003
2.420264e+003,5.942505e-003
2.422193e+003,5.981774e-003
2.424122e+003,5.985470e-003
2.426050e+003,5.874859e-003
2.427979e+003,5.954497e-003
2.429907e+003,6.001830e-003
2.431835e+003,5.928867e-003
2.433764e+003,5.924434e-003
2.435692e+003,5.940322e-003
2.437621e+003,5.951138e-003
2.439550e+003,6.002939e-003
2.441478e+003,6.010666e-003
2.443406e+003,5.991517e-003
2.445335e+003,6.075914e-003
2.447263e+003,6.030723e-003
2.449192e+003,6.099132e-003
2.451121e+003,6.092513e-003
2.453049e+003,6.109382e-003
2.454978e+003,6.083911e-003
2.456906e+003,6.004417e-003
2.458834e+003,6.043188e-003
2.460763e+003,6.237396e-003
2.462691e+003,6.236623e-003
2.464620e+003,6.079072e-003
2.466549e+003,6.039592e-003
2.468477e+003,6.078971e-003
2.470406e+003,6.072957e-003
2.472334e+003,6.018628e-003
2.474262e+003,5.967128e-003
2.476191e+003,5.954632e-003
2.478119e+003,5.996690e-003
2.480048e+003,5.940087e-003
2.481977e+003,5.998807e-003
2.483905e+003,6.075544e-003
2.485833e+003,6.006399e-003
2.487762e+003,5.951541e-003
2.489690e+003,5.933671e-003
2.491619e+003,5.987250e-003
2.493547e+003,5.997194e-003
2.495476e+003,5.938508e-003
2.497405e+003,5.886278e-003
2.499333e+003,5.982581e-003
2.501261e+003,5.972771e-003
2.503190e+003,5.946032e-003
2.505118e+003,5.946872e-003
2.507047e+003,5.888562e-003
2.508975e+003,5.824753e-003
2.510904e+003,5.892189e-003
2.512833e+003,5.997093e-003
2.514761e+003,6.004316e-003
2.516689e+003,5.881576e-003
2.518618e+003,5.918757e-003
2.520546e+003,6.010430e-003
2.522475e+003,6.001293e-003
2.524403e+003,5.875262e-003
2.526332e+003,5.880065e-003
2.528260e+003,5.851451e-003
2.530189e+003,5.873112e-003
2.532117e+003,5.884095e-003
2.534046e+003,5.959805e-003
2.535974e+003,6.019804e-003
2.537903e+003,5.957722e-003
2.539831e+003,5.900855e-003
2.541760e+003,5.874993e-003
2.543688e+003,5.779051e-003
2.545617e+003,5.868881e-003
2.547545e+003,5.864213e-003
2.549474e+003,5.838790e-003
2.551402e+003,5.921109e-003
2.553331e+003,5.823577e-003
2.555259e+003,5.780729e-003
2.557188e+003,5.822973e-003
2.559116e+003,5.816425e-003
2.561045e+003,5.757293e-003
2.562973e+003,5.725464e-003
2.564902e+003,5.814746e-003
2.566830e+003,5.753734e-003
2.568759e+003,5.541653e-003
2.570687e+003,5.525310e-003
2.572616e+003,5.591962e-003
2.574544e+003,5.511182e-003
2.576473e+003,5.599748e-003
2.578401e+003,5.701627e-003
2.580330e+003,5.768104e-003
2.582258e+003,5.793993e-003
2.584187e+003,5.704716e-003
2.586115e+003,5.701056e-003
2.588044e+003,5.750007e-003
2.589972e+003,5.793825e-003
2.591901e+003,5.794765e-003
2.593829e+003,5.799534e-003
2.595758e+003,5.847857e-003
2.597686e+003,5.777002e-003
2.599615e+003,5.773309e-003
2.601543e+003,5.804235e-003
2.603472e+003,5.819346e-003
2.605400e+003,5.876672e-003
2.607329e+003,5.809540e-003
2.609257e+003,5.814947e-003
2.611186e+003,5.988930e-003
2.613114e+003,6.046245e-003
2.615043e+003,6.072923e-003
2.616971e+003,6.102056e-003
2.618900e+003,6.126083e-003
2.620828e+003,6.142784e-003
2.622757e+003,6.151354e-003
2.624685e+003,6.156933e-003
2.626614e+003,6.184055e-003
2.628542e+003,6.197431e-003
2.630471e+003,6.210909e-003
2.632399e+003,6.254203e-003
2.634328e+003,6.327220e-003
2.636256e+003,6.381957e-003
2.638185e+003,6.432834e-003
2.640113e+003,6.476856e-003
2.642042e+003,6.494076e-003
2.643970e+003,6.552501e-003
2.645899e+003,6.531477e-003
2.647827e+003,6.590042e-003
2.649756e+003,6.647538e-003
2.651684e+003,6.645822e-003
2.653613e+003,6.679300e-003
2.655541e+003,6.717525e-003
2.657470e+003,6.724861e-003
2.659398e+003,6.780591e-003
2.661327e+003,6.807482e-003
2.663255e+003,6.779985e-003
2.665184e+003,6.763764e-003
2.667112e+003,6.805698e-003
2.669041e+003,6.814954e-003
2.670969e+003,6.791596e-003
2.672898e+003,6.788769e-003
2.674826e+003,6.834275e-003
2.676755e+003,6.850297e-003
2.678683e+003,6.811925e-003
2.680612e+003,6.805766e-003
2.682540e+003,6.822595e-003
2.684469e+003,6.876991e-003
2.686397e+003,6.849455e-003
2.688326e+003,6.815897e-003
2.690254e+003,6.819902e-003
2.692183e+003,6.836160e-003
2.694111e+003,6.879650e-003
2.696040e+003,6.968328e-003
2.697968e+003,6.972435e-003
2.699897e+003,6.924626e-003
2.701825e+003,6.899849e-003
2.703754e+003,6.912574e-003
2.705682e+003,6.915907e-003
2.707611e+003,6.927589e-003
2.709539e+003,6.941998e-003
2.711468e+003,6.965062e-003
2.713396e+003,6.954792e-003
2.715325e+003,6.967183e-003
2.717253e+003,7.046180e-003
2.719182e+003,7.037895e-003
2.721110e+003,7.023314e-003
2.723039e+003,7.041364e-003
2.724967e+003,7.023314e-003
2.726896e+003,7.036077e-003
2.728824e+003,7.030824e-003
2.730753e+003,7.035235e-003
2.732681e+003,7.086222e-003
2.734610e+003,7.091645e-003
2.736538e+003,7.083225e-003
2.738467e+003,7.102220e-003
2.740395e+003,7.149476e-003
2.742324e+003,7.175043e-003
2.744252e+003,7.179355e-003
2.746181e+003,7.217692e-003
2.748109e+003,7.185486e-003
2.750038e+003,7.115625e-003
2.751966e+003,7.134959e-003
2.753895e+003,7.204385e-003
2.755823e+003,7.243263e-003
2.757752e+003,7.257177e-003
2.759680e+003,7.217288e-003
2.761609e+003,7.213851e-003
2.763537e+003,7.245082e-003
2.765466e+003,7.217860e-003
2.767394e+003,7.235379e-003
2.769323e+003,7.274799e-003
2.771251e+003,7.307955e-003
2.773180e+003,7.324230e-003
2.775108e+003,7.338990e-003
2.777037e+003,7.310853e-003
2.778965e+003,7.311055e-003
2.780894e+003,7.373162e-003
2.782822e+003,7.429076e-003
2.784750e+003,7.449738e-003
2.786679e+003,7.424694e-003
2.788608e+003,7.416875e-003
2.790536e+003,7.452502e-003
2.792465e+003,7.483717e-003
2.794393e+003,7.461603e-003
2.796322e+003,7.460963e-003
2.798250e+003,7.515978e-003
2.800178e+003,7.543893e-003
2.802107e+003,7.573260e-003
2.804036e+003,7.664001e-003
2.805964e+003,7.671859e-003
2.807893e+003,7.621106e-003
2.809821e+003,7.651928e-003
2.811750e+003,7.758405e-003
2.813678e+003,7.780499e-003
2.815606e+003,7.804450e-003
2.817535e+003,7.880124e-003
2.819464e+003,7.844563e-003
2.821392e+003,7.837174e-003
2.823321e+003,7.936914e-003
2.825249e+003,8.026179e-003
2.827177e+003,8.124442e-003
2.829106e+003,8.174511e-003
2.831034e+003,8.204967e-003
2.832963e+003,8.284864e-003
2.834892e+003,8.388151e-003
2.836820e+003,8.497985e-003
2.838749e+003,8.597065e-003
2.840677e+003,8.723888e-003
2.842605e+003,8.866575e-003
2.844534e+003,9.065703e-003
2.846462e+003,9.262453e-003
2.848391e+003,9.429154e-003
2.850320e+003,9.569227e-003
2.852248e+003,9.679359e-003
2.854177e+003,9.709751e-003
2.856105e+003,9.675700e-003
2.858033e+003,9.629083e-003
2.859962e+003,9.598290e-003
2.861890e+003,9.563028e-003
2.863819e+003,9.446898e-003
2.865748e+003,9.331272e-003
2.867676e+003,9.290548e-003
2.869604e+003,9.248236e-003
2.871533e+003,9.222886e-003
2.873461e+003,9.194051e-003
2.875390e+003,9.225559e-003
2.877319e+003,9.280561e-003
2.879247e+003,9.311874e-003
2.881176e+003,9.243329e-003
2.883104e+003,9.251046e-003
2.885032e+003,9.338720e-003
2.886961e+003,9.372474e-003
2.888889e+003,9.388590e-003
2.890818e+003,9.406433e-003
2.892747e+003,9.437382e-003
2.894675e+003,9.494443e-003
2.896604e+003,9.554221e-003
2.898532e+003,9.598120e-003
2.900460e+003,9.677462e-003
2.902389e+003,9.708260e-003
2.904317e+003,9.631285e-003
2.906246e+003,9.646293e-003
2.908175e+003,9.770169e-003
2.910103e+003,9.821749e-003
2.912031e+003,9.807481e-003
2.913960e+003,9.832697e-003
2.915888e+003,9.850898e-003
2.917817e+003,9.899471e-003
2.919745e+003,9.942252e-003
2.921674e+003,9.906895e-003
2.923603e+003,9.853372e-003
2.925531e+003,9.797517e-003
2.927459e+003,9.741162e-003
2.929388e+003,9.703449e-003
2.931316e+003,9.582335e-003
2.933245e+003,9.455160e-003
2.935173e+003,9.329748e-003
2.937102e+003,9.230128e-003
2.939031e+003,9.108809e-003
2.940959e+003,8.950382e-003
2.942887e+003,8.761144e-003
2.944816e+003,8.558269e-003
2.946744e+003,8.343666e-003
2.948673e+003,8.187105e-003
2.950601e+003,8.119075e-003
2.952530e+003,7.953989e-003
2.954458e+003,7.796523e-003
2.956387e+003,7.662585e-003
2.958315e+003,7.515978e-003
2.960244e+003,7.467940e-003
2.962172e+003,7.396181e-003
2.964101e+003,7.362883e-003
2.966029e+003,7.330734e-003
2.967958e+003,7.279348e-003
2.969886e+003,7.306405e-003
2.971815e+003,7.343236e-003
2.973743e+003,7.290467e-003
2.975672e+003,7.243532e-003
2.977600e+003,7.231976e-003
2.979529e+003,7.204856e-003
2.981457e+003,7.215569e-003
2.983386e+003,7.179490e-003
2.985314e+003,7.120307e-003
2.987243e+003,7.114985e-003
2.989171e+003,7.120644e-003
2.991100e+003,7.140887e-003
2.993028e+003,7.121351e-003
2.994957e+003,7.076961e-003
2.996885e+003,7.072650e-003
2.998814e+003,7.076893e-003
3.000742e+003,7.077028e-003
3.002671e+003,7.069585e-003
3.004599e+003,7.062580e-003
3.006528e+003,7.038198e-003
3.008456e+003,7.133409e-003
3.010385e+003,7.236760e-003
3.012313e+003,7.234773e-003
3.014242e+003,7.171944e-003
3.016170e+003,7.145838e-003
3.018099e+003,7.180803e-003
3.020027e+003,7.200208e-003
3.021956e+003,7.168374e-003
3.023884e+003,7.146209e-003
3.025813e+003,7.147556e-003
3.027741e+003,7.182117e-003
3.029670e+003,7.251854e-003
3.031598e+003,7.317895e-003
3.033527e+003,7.284368e-003
3.035455e+003,7.236963e-003
3.037384e+003,7.338619e-003
3.039312e+003,7.415796e-003
3.041241e+003,7.421155e-003
3.043169e+003,7.426481e-003
3.045098e+003,7.471683e-003
3.047026e+003,7.483042e-003
3.048955e+003,7.538263e-003
3.050883e+003,7.623366e-003
3.052812e+003,7.666294e-003
3.054740e+003,7.614362e-003
3.056669e+003,7.578890e-003
3.058597e+003,7.644914e-003
3.060526e+003,7.665249e-003
3.062454e+003,7.739144e-003
3.064383e+003,7.777261e-003
3.066311e+003,7.755538e-003
3.068240e+003,7.807014e-003
3.070168e+003,7.828740e-003
3.072097e+003,7.891663e-003
3.074025e+003,8.013691e-003
3.075954e+003,8.009674e-003
3.077882e+003,7.974305e-003
3.079811e+003,7.998334e-003
3.081739e+003,8.070058e-003
3.083668e+003,8.145408e-003
3.085596e+003,8.156143e-003
3.087525e+003,8.179170e-003
3.089453e+003,8.155299e-003
3.091382e+003,8.159621e-003
3.093310e+003,8.165428e-003
3.095239e+003,8.230494e-003
3.097167e+003,8.306039e-003
3.099096e+003,8.347753e-003
3.101024e+003,8.375045e-003
3.102953e+003,8.432001e-003
3.104881e+003,8.388186e-003
3.106810e+003,8.420142e-003
3.108738e+003,8.466225e-003
3.110667e+003,8.540899e-003
3.112595e+003,8.619034e-003
3.114524e+003,8.568474e-003
3.116452e+003,8.637386e-003
3.118381e+003,8.678928e-003
3.120309e+003,8.789985e-003
3.122238e+003,8.808345e-003
3.124166e+003,8.777982e-003
3.126095e+003,8.783019e-003
3.128023e+003,8.849666e-003
3.129952e+003,8.950991e-003
3.131880e+003,8.973383e-003
3.133809e+003,8.932388e-003
3.135737e+003,8.985425e-003
3.137666e+003,9.069357e-003
3.139594e+003,9.093819e-003
3.141523e+003,9.163458e-003
3.143451e+003,9.163017e-003
3.145380e+003,9.115677e-003
3.147308e+003,9.192798e-003
3.149237e+003,9.311637e-003
3.151165e+003,9.326329e-003
3.153094e+003,9.308624e-003
3.155022e+003,9.365194e-003
3.156951e+003,9.448455e-003
3.158879e+003,9.449810e-003
3.160808e+003,9.502876e-003
3.162736e+003,9.576543e-003
3.164665e+003,9.554730e-003
3.166593e+003,9.550936e-003
3.168522e+003,9.584300e-003
3.170450e+003,9.678952e-003
3.172379e+003,9.829409e-003
3.174307e+003,9.863100e-003
3.176236e+003,9.870285e-003
3.178164e+003,9.837374e-003
3.180093e+003,9.849779e-003
3.182021e+003,9.923980e-003
3.183950e+003,1.001742e-002
3.185878e+003,1.002922e-002
3.187807e+003,1.003895e-002
3.189735e+003,1.010253e-002
3.191664e+003,1.015693e-002
3.193592e+003,1.024347e-002
3.195521e+003,1.032785e-002
3.197449e+003,1.034865e-002
3.199378e+003,1.037563e-002
3.201306e+003,1.040277e-002
3.203235e+003,1.042225e-002
3.205163e+003,1.047160e-002
3.207092e+003,1.046380e-002
3.209020e+003,1.049574e-002
3.210948e+003,1.058183e-002
3.212877e+003,1.066278e-002
3.214806e+003,1.066950e-002
3.216734e+003,1.071494e-002
3.218663e+003,1.071019e-002
3.220591e+003,1.076049e-002
3.222520e+003,1.086851e-002
3.224448e+003,1.088322e-002
3.226376e+003,1.088998e-002
3.228305e+003,1.091699e-002
3.230234e+003,1.099008e-002
3.232162e+003,1.110693e-002
3.234091e+003,1.108117e-002
3.236019e+003,1.107539e-002
3.237948e+003,1.112515e-002
3.239876e+003,1.117384e-002
3.241804e+003,1.120080e-002
3.243733e+003,1.125595e-002
3.245662e+003,1.129152e-002
3.247590e+003,1.124979e-002
3.249519e+003,1.125435e-002
3.251447e+003,1.123092e-002
3.253375e+003,1.128203e-002
3.255304e+003,1.138175e-002
3.257232e+003,1.136869e-002
3.259161e+003,1.135147e-002
3.261090e+003,1.149710e-002
3.263018e+003,1.152364e-002
3.264947e+003,1.156464e-002
3.266875e+003,1.158251e-002
3.268803e+003,1.159272e-002
3.270732e+003,1.163087e-002
3.272660e+003,1.167607e-002
3.274589e+003,1.163032e-002
3.276518e+003,1.160990e-002
3.278446e+003,1.161885e-002
3.280375e+003,1.160344e-002
3.282303e+003,1.162130e-002
3.284231e+003,1.167450e-002
3.286160e+003,1.161191e-002
3.288088e+003,1.158390e-002
3.290017e+003,1.155365e-002
3.291946e+003,1.163260e-002
3.293874e+003,1.170418e-002
3.295802e+003,1.170581e-002
3.297731e+003,1.167746e-002
3.299659e+003,1.173533e-002
3.301588e+003,1.174694e-002
3.303516e+003,1.171984e-002
3.305445e+003,1.171048e-002
3.307374e+003,1.172256e-002
3.309302e+003,1.161320e-002
3.311230e+003,1.161487e-002
3.313159e+003,1.169142e-002
3.315087e+003,1.176134e-002
3.317016e+003,1.174952e-002
3.318944e+003,1.166626e-002
3.320873e+003,1.168056e-002
3.322802e+003,1.168839e-002
3.324730e+003,1.166538e-002
3.326658e+003,1.165895e-002
3.328587e+003,1.156553e-002
3.330515e+003,1.158173e-002
3.332444e+003,1.167123e-002
3.334372e+003,1.169091e-002
3.336301e+003,1.170884e-002
3.338229e+003,1.171439e-002
3.340158e+003,1.163185e-002
3.342086e+003,1.159946e-002
3.344015e+003,1.163209e-002
3.345943e+003,1.163461e-002
3.347872e+003,1.155243e-002
3.349800e+003,1.149247e-002
3.351729e+003,1.152541e-002
3.353657e+003,1.154872e-002
3.355586e+003,1.150979e-002
3.357514e+003,1.145315e-002
3.359443e+003,1.148394e-002
3.361371e+003,1.147268e-002
3.363300e+003,1.143597e-002
3.365229e+003,1.144366e-002
3.367157e+003,1.130475e-002
3.369085e+003,1.125911e-002
3.371014e+003,1.132933e-002
3.372942e+003,1.132138e-002
3.374871e+003,1.126594e-002
3.376799e+003,1.115575e-002
3.378728e+003,1.110534e-002
3.380656e+003,1.114660e-002
3.382585e+003,1.109772e-002
3.384513e+003,1.107654e-002
3.386442e+003,1.109242e-002
3.388370e+003,1.111625e-002
3.390299e+003,1.100449e-002
3.392227e+003,1.093660e-002
3.394156e+003,1.091308e-002
3.396084e+003,1.087490e-002
3.398013e+003,1.072985e-002
3.399941e+003,1.067582e-002
3.401870e+003,1.076286e-002
3.403798e+003,1.072065e-002
3.405727e+003,1.070383e-002
3.407655e+003,1.071294e-002
3.409584e+003,1.054869e-002
3.411512e+003,1.047805e-002
3.413441e+003,1.037121e-002
3.415369e+003,1.033616e-002
3.417298e+003,1.033586e-002
3.419226e+003,1.027672e-002
3.421155e+003,1.022634e-002
3.423083e+003,1.014856e-002
3.425012e+003,1.007455e-002
3.426940e+003,1.002403e-002
3.428869e+003,9.956932e-003
3.430797e+003,9.883878e-003
3.432726e+003,9.808871e-003
3.434654e+003,9.758614e-003
3.436583e+003,9.719476e-003
3.438511e+003,9.715681e-003
3.440440e+003,9.714020e-003
3.442368e+003,9.659098e-003
3.444297e+003,9.462779e-003
3.446225e+003,9.366211e-003
3.448154e+003,9.371052e-003
3.450082e+003,9.352093e-003
3.452011e+003,9.251181e-003
3.453939e+003,9.238184e-003
3.455868e+003,9.251622e-003
3.457796e+003,9.097304e-003
3.459725e+003,9.042122e-003
3.461653e+003,8.962931e-003
3.463582e+003,8.867927e-003
3.465510e+003,8.821363e-003
3.467439e+003,8.788260e-003
3.469367e+003,8.742617e-003
3.471296e+003,8.722637e-003
3.473224e+003,8.581486e-003
3.475153e+003,8.534681e-003
3.477081e+003,8.502986e-003
3.479010e+003,8.482578e-003
3.480938e+003,8.358257e-003
3.482867e+003,8.276252e-003
3.484795e+003,8.149999e-003
3.486724e+003,8.053046e-003
3.488652e+003,8.053215e-003
3.490581e+003,8.094701e-003
3.492509e+003,8.050683e-003
3.494438e+003,7.938567e-003
3.496366e+003,7.958376e-003
3.498295e+003,7.932662e-003
3.500223e+003,7.864570e-003
3.502152e+003,7.816358e-003
3.504080e+003,7.839536e-003
3.506009e+003,7.755099e-003
3.507937e+003,7.602324e-003
3.509866e+003,7.538263e-003
3.511794e+003,7.517327e-003
3.513723e+003,7.457322e-003
3.515651e+003,7.370702e-003
3.517580e+003,7.323017e-003
3.519508e+003,7.320456e-003
3.521437e+003,7.261321e-003
3.523365e+003,7.259131e-003
3.525294e+003,7.254145e-003
3.527222e+003,7.155607e-003
3.529151e+003,7.033888e-003
3.531079e+003,6.964489e-003
3.533008e+003,6.928801e-003
3.534936e+003,6.968698e-003
3.536865e+003,6.964759e-003
3.538793e+003,6.857567e-003
3.540722e+003,6.726375e-003
3.542650e+003,6.679805e-003
3.544579e+003,6.623920e-003
3.546507e+003,6.608982e-003
3.548436e+003,6.646293e-003
3.550364e+003,6.516913e-003
3.552293e+003,6.422611e-003
3.554221e+003,6.452675e-003
3.556150e+003,6.429976e-003
3.558078e+003,6.375939e-003
3.560007e+003,6.331792e-003
3.561935e+003,6.272557e-003
3.563864e+003,6.271616e-003
3.565792e+003,6.283011e-003
3.567721e+003,6.222337e-003
3.569649e+003,6.014025e-003
3.571578e+003,5.981842e-003
3.573506e+003,6.071949e-003
3.575435e+003,5.987384e-003
3.577363e+003,5.876135e-003
3.579292e+003,5.862433e-003
3.581220e+003,5.844835e-003
3.583149e+003,5.806283e-003
3.585077e+003,5.835398e-003
3.587006e+003,5.913921e-003
3.588934e+003,5.863407e-003
3.590863e+003,5.781972e-003
3.592791e+003,5.846816e-003
3.594720e+003,5.844398e-003
3.596648e+003,5.817096e-003
3.598577e+003,5.838152e-003
3.600505e+003,5.887655e-003
3.602434e+003,5.890745e-003
3.604362e+003,5.759609e-003
3.606291e+003,5.687091e-003
3.608219e+003,5.587732e-003
3.610148e+003,5.329105e-003
3.612076e+003,5.150424e-003
3.614005e+003,5.205717e-003
3.615933e+003,5.430384e-003
3.617862e+003,5.625392e-003
3.619790e+003,5.595318e-003
3.621719e+003,5.535914e-003
3.623647e+003,5.545848e-003
3.625576e+003,5.592868e-003
3.627504e+003,5.658892e-003
3.629433e+003,5.545009e-003
3.631361e+003,5.372613e-003
3.633290e+003,5.238246e-003
3.635218e+003,5.171079e-003
3.637146e+003,5.103888e-003
3.639075e+003,4.972822e-003
3.641004e+003,4.859521e-003
3.642932e+003,4.860827e-003
3.644861e+003,4.801725e-003
3.646789e+003,4.771172e-003
3.648718e+003,4.728126e-003
3.650646e+003,4.636422e-003
3.652574e+003,4.496123e-003
3.654503e+003,4.450795e-003
3.656432e+003,4.486682e-003
3.658360e+003,4.479618e-003
3.660289e+003,4.432719e-003
3.662217e+003,4.441957e-003
3.664146e+003,4.441121e-003
3.666074e+003,4.493847e-003
3.668002e+003,4.529101e-003
3.669931e+003,4.534257e-003
3.671860e+003,4.444837e-003
3.673788e+003,4.632571e-003
3.675717e+003,4.720992e-003
3.677645e+003,4.537472e-003
3.679573e+003,4.491871e-003
3.681502e+003,4.508477e-003
3.683430e+003,4.457289e-003
3.685359e+003,4.463281e-003
3.687288e+003,4.693459e-003
3.689216e+003,4.802395e-003
3.691145e+003,4.800050e-003
3.693073e+003,4.799279e-003
3.695001e+003,4.782964e-003
3.696930e+003,4.897787e-003
3.698858e+003,4.975000e-003
3.700787e+003,5.056753e-003
3.702716e+003,5.103653e-003
3.704644e+003,5.010964e-003
3.706573e+003,4.889778e-003
3.708501e+003,4.717374e-003
3.710429e+003,4.657655e-003
3.712358e+003,4.533889e-003
3.714286e+003,4.370796e-003
3.716215e+003,4.377223e-003
3.718144e+003,4.558566e-003
3.720072e+003,4.794522e-003
3.722000e+003,4.954858e-003
3.723929e+003,5.031412e-003
3.725857e+003,5.151564e-003
3.727786e+003,5.205080e-003
3.729714e+003,5.238984e-003
3.731643e+003,5.258569e-003
3.733572e+003,5.047066e-003
3.735500e+003,4.988106e-003
3.737428e+003,4.898524e-003
3.739357e+003,4.710909e-003
3.741285e+003,4.520195e-003
3.743214e+003,4.598279e-003
3.745142e+003,4.536936e-003
3.747071e+003,4.453473e-003
3.749000e+003,4.555519e-003
3.750928e+003,4.501078e-003
3.752856e+003,4.375114e-003
3.754785e+003,4.286563e-003
3.756713e+003,4.281075e-003
3.758642e+003,4.309719e-003
3.760570e+003,4.292285e-003
3.762499e+003,4.242193e-003
3.764427e+003,4.333179e-003
3.766356e+003,4.337563e-003
3.768284e+003,4.343620e-003
3.770213e+003,4.329464e-003
3.772141e+003,4.300985e-003
3.774070e+003,4.304064e-003
3.775998e+003,4.335990e-003
3.777927e+003,4.319826e-003
3.779855e+003,4.337261e-003
3.781784e+003,4.257217e-003
3.783712e+003,4.295932e-003
3.785641e+003,4.280406e-003
3.787569e+003,4.364872e-003
3.789498e+003,4.368922e-003
3.791426e+003,4.356807e-003
3.793355e+003,4.332107e-003
3.795283e+003,4.306808e-003
3.797212e+003,4.328694e-003
3.799140e+003,4.374813e-003
3.801069e+003,4.453540e-003
3.802997e+003,4.348473e-003
3.804926e+003,4.300918e-003
3.806854e+003,4.369290e-003
3.808783e+003,4.290009e-003
3.810711e+003,4.225297e-003
3.812640e+003,4.256648e-003
3.814568e+003,4.437372e-003
3.816497e+003,4.499806e-003
3.818425e+003,4.442594e-003
3.820354e+003,4.452033e-003
3.822282e+003,4.411229e-003
3.824211e+003,4.470278e-003
3.826139e+003,4.494851e-003
3.828068e+003,4.363333e-003
3.829996e+003,4.407815e-003
3.831925e+003,4.429739e-003
3.833853e+003,4.461373e-003
3.835782e+003,4.509013e-003
3.837710e+003,4.535329e-003
3.839639e+003,4.508544e-003
3.841567e+003,4.545976e-003
3.843496e+003,4.418292e-003
3.845424e+003,4.349912e-003
3.847353e+003,4.394527e-003
3.849281e+003,4.473626e-003
3.851210e+003,4.618840e-003
3.853138e+003,4.735429e-003
3.855067e+003,4.599518e-003
3.856995e+003,4.470144e-003
3.858924e+003,4.393154e-003
3.860852e+003,4.419697e-003
3.862781e+003,4.492173e-003
3.864709e+003,4.561278e-003
3.866638e+003,4.563722e-003
3.868566e+003,4.606015e-003
3.870495e+003,4.537739e-003
3.872423e+003,4.565832e-003
3.874352e+003,4.562483e-003
3.876280e+003,4.469441e-003
3.878209e+003,4.547516e-003
3.880137e+003,4.580264e-003
3.882066e+003,4.500509e-003
3.883994e+003,4.481460e-003
3.885923e+003,4.554949e-003
3.887851e+003,4.572763e-003
3.889780e+003,4.471249e-003
3.891708e+003,4.358346e-003
3.893637e+003,4.387330e-003
3.895565e+003,4.538911e-003
3.897494e+003,4.604106e-003
3.899422e+003,4.579962e-003
3.901351e+003,4.581737e-003
3.903279e+003,4.578388e-003
3.905208e+003,4.582406e-003
3.907136e+003,4.458829e-003
3.909065e+003,4.376519e-003
3.910993e+003,4.488088e-003
3.912922e+003,4.514035e-003
3.914850e+003,4.505263e-003
3.916779e+003,4.540083e-003
3.918707e+003,4.530708e-003
3.920636e+003,4.453640e-003
3.922564e+003,4.458796e-003
3.924493e+003,4.511658e-003
3.926421e+003,4.599250e-003
3.928350e+003,4.580364e-003
3.930278e+003,4.621486e-003
3.932207e+003,4.645096e-003
3.934135e+003,4.579125e-003
3.936064e+003,4.516847e-003
3.937992e+003,4.517885e-003
3.939921e+003,4.522672e-003
3.941849e+003,4.451666e-003
3.943778e+003,4.423313e-003
3.945706e+003,4.433455e-003
3.947635e+003,4.520027e-003
3.949563e+003,4.607789e-003
3.951492e+003,4.564994e-003
3.953420e+003,4.594294e-003
3.955349e+003,4.627079e-003
3.957277e+003,4.587028e-003
3.959206e+003,4.582005e-003
3.961134e+003,4.617099e-003
3.963063e+003,4.621285e-003
3.964991e+003,4.602700e-003
3.966920e+003,4.564057e-003
3.968848e+003,4.512126e-003
3.970777e+003,4.516880e-003
3.972705e+003,4.553509e-003
3.974634e+003,4.565932e-003
3.976562e+003,4.557963e-003
3.978491e+003,4.545541e-003
3.980419e+003,4.494081e-003
3.982348e+003,4.492039e-003
3.984276e+003,4.540117e-003
3.986205e+003,4.536467e-003
3.988133e+003,4.537605e-003
3.990062e+003,4.600255e-003
3.991990e+003,4.670650e-003
3.993919e+003,4.634781e-003
3.995847e+003,4.564258e-003
3.997776e+003,4.520027e-003
3.999704e+003,4.480187e-003
4.001633e+003,0.000000e+000
