3.991989e+002,5.212578e-002
4.011274e+002,4.913817e-002
4.030559e+002,4.913817e-002
4.049844e+002,4.930339e-002
4.069129e+002,5.255967e-002
4.088414e+002,5.314352e-002
4.107699e+002,5.198234e-002
4.126984e+002,5.201626e-002
4.146269e+002,5.422901e-002
4.165554e+002,5.568552e-002
4.184839e+002,5.572835e-002
4.204124e+002,5.657763e-002
4.223409e+002,5.693087e-002
4.242694e+002,5.756778e-002
4.261979e+002,5.701553e-002
4.281264e+002,5.709628e-002
4.300549e+002,5.739848e-002
4.319834e+002,5.669994e-002
4.339119e+002,5.665381e-002
4.358404e+002,5.749401e-002
4.377689e+002,5.828340e-002
4.396974e+002,5.841297e-002
4.416259e+002,5.743293e-002
4.435544e+002,5.696944e-002
4.454829e+002,5.735412e-002
4.474114e+002,5.735431e-002
4.493399e+002,5.689597e-002
4.512684e+002,5.666808e-002
4.531969e+002,5.696876e-002
4.551254e+002,5.753297e-002
4.570539e+002,5.762101e-002
4.589824e+002,5.745471e-002
4.609109e+002,5.778653e-002
4.628394e+002,5.816466e-002
4.647679e+002,5.782798e-002
4.666964e+002,5.730459e-002
4.686249e+002,5.689302e-002
4.705533e+002,5.678882e-002
4.724819e+002,5.731019e-002
4.744103e+002,5.767069e-002
4.763389e+002,5.759815e-002
4.782673e+002,5.778168e-002
4.801959e+002,5.847237e-002
4.821243e+002,5.846342e-002
4.840529e+002,5.813178e-002
4.859813e+002,5.799286e-002
4.879099e+002,5.822823e-002
4.898383e+002,5.839531e-002
4.917668e+002,5.848071e-002
4.936953e+002,5.879275e-002
4.956238e+002,5.911917e-002
4.975523e+002,5.885061e-002
4.994808e+002,5.874465e-002
5.014093e+002,5.879639e-002
5.033378e+002,5.870201e-002
5.052663e+002,5.861971e-002
5.071948e+002,5.866101e-002
5.091233e+002,5.887466e-002
5.110518e+002,5.933969e-002
5.129803e+002,5.996629e-002
5.149088e+002,6.010166e-002
5.168373e+002,6.023692e-002
5.187658e+002,6.040245e-002
5.206943e+002,6.064283e-002
5.226228e+002,6.061662e-002
5.245513e+002,6.063334e-002
5.264798e+002,6.076690e-002
5.284083e+002,6.096165e-002
5.303368e+002,6.110404e-002
5.322653e+002,6.124876e-002
5.341938e+002,6.091395e-002
5.361223e+002,6.079110e-002
5.380508e+002,6.082213e-002
5.399792e+002,6.086623e-002
5.419078e+002,5.972964e-002
5.438363e+002,5.961548e-002
5.457648e+002,6.118669e-002
5.476932e+002,6.154050e-002
5.496218e+002,5.977480e-002
5.515503e+002,5.984470e-002
5.534788e+002,6.176986e-002
5.554072e+002,6.244355e-002
5.573358e+002,6.269850e-002
5.592643e+002,6.249983e-002
5.611927e+002,6.230068e-002
5.631212e+002,6.220125e-002
5.650497e+002,6.218535e-002
5.669783e+002,6.197954e-002
5.689067e+002,6.179354e-002
5.708352e+002,6.157601e-002
5.727637e+002,6.153252e-002
5.746923e+002,6.139232e-002
5.766207e+002,6.124129e-002
5.785492e+002,6.104328e-002
5.804777e+002,6.106285e-002
5.824063e+002,6.079960e-002
5.843347e+002,6.054356e-002
5.862632e+002,6.057075e-002
5.881917e+002,6.096571e-002
5.901202e+002,6.123138e-002
5.920487e+002,6.123469e-002
5.939772e+002,6.086229e-002
5.959057e+002,6.054904e-002
5.978342e+002,6.038192e-002
5.997627e+002,6.030440e-002
6.016912e+002,6.011134e-002
6.036197e+002,6.004994e-002
6.055482e+002,5.996320e-002
6.074767e+002,6.017944e-002
6.094052e+002,6.042154e-002
6.113337e+002,6.027927e-002
6.132622e+002,5.996204e-002
6.151907e+002,5.986369e-002
6.171192e+002,5.999642e-002
6.190477e+002,5.956789e-002
6.209762e+002,5.947599e-002
6.229047e+002,5.914392e-002
6.248332e+002,5.847684e-002
6.267617e+002,5.800421e-002
6.286902e+002,5.786938e-002
6.306187e+002,5.772690e-002
6.325472e+002,5.762738e-002
6.344756e+002,5.764294e-002
6.364042e+002,5.756307e-002
6.383326e+002,5.745614e-002
6.402612e+002,5.737768e-002
6.421896e+002,5.728902e-002
6.441182e+002,5.715084e-002
6.460466e+002,5.685295e-002
6.479752e+002,5.670210e-002
6.499036e+002,5.668649e-002
6.518322e+002,5.681567e-002
6.537606e+002,5.686796e-002
6.556891e+002,5.685708e-002
6.576177e+002,5.676062e-002
6.595461e+002,5.689084e-002
6.614746e+002,5.725423e-002
6.634031e+002,5.744315e-002
6.653317e+002,5.748051e-002
6.672601e+002,5.712933e-002
6.691886e+002,5.682576e-002
6.711171e+002,5.649506e-002
6.730457e+002,5.586573e-002
6.749741e+002,5.510979e-002
6.769026e+002,5.438473e-002
6.788311e+002,5.388018e-002
6.807596e+002,5.340402e-002
6.826881e+002,5.294443e-002
6.846166e+002,5.259943e-002
6.865451e+002,5.248653e-002
6.884736e+002,5.251619e-002
6.904021e+002,5.257590e-002
6.923306e+002,5.243661e-002
6.942591e+002,5.239683e-002
6.961876e+002,5.237491e-002
6.981161e+002,5.219104e-002
7.000446e+002,5.211629e-002
7.019731e+002,5.223317e-002
7.039016e+002,5.206884e-002
7.058301e+002,5.186732e-002
7.077585e+002,5.160543e-002
7.096871e+002,5.160105e-002
7.116156e+002,5.151284e-002
7.135441e+002,5.137294e-002
7.154725e+002,5.131441e-002
7.174011e+002,5.127753e-002
7.193296e+002,5.141879e-002
7.212581e+002,5.126576e-002
7.231865e+002,5.088749e-002
7.251151e+002,5.067135e-002
7.270436e+002,5.047669e-002
7.289720e+002,5.039496e-002
7.309005e+002,5.007875e-002
7.328290e+002,4.976013e-002
7.347576e+002,4.957352e-002
7.366860e+002,4.945356e-002
7.386145e+002,4.929539e-002
7.405430e+002,4.912611e-002
7.424716e+002,4.897741e-002
7.444000e+002,4.885636e-002
7.463285e+002,4.869810e-002
7.482570e+002,4.848448e-002
7.501855e+002,4.827153e-002
7.521140e+002,4.814271e-002
7.540425e+002,4.816263e-002
7.559710e+002,4.816435e-002
7.578995e+002,4.795178e-002
7.598280e+002,4.790802e-002
7.617565e+002,4.790938e-002
7.636850e+002,4.784201e-002
7.656135e+002,4.771552e-002
7.675420e+002,4.761364e-002
7.694705e+002,4.753301e-002
7.713990e+002,4.758314e-002
7.733275e+002,4.765550e-002
7.752560e+002,4.756188e-002
7.771844e+002,4.748832e-002
7.791130e+002,4.743407e-002
7.810415e+002,4.746881e-002
7.829700e+002,4.739759e-002
7.848984e+002,4.733122e-002
7.868270e+002,4.740428e-002
7.887555e+002,4.732915e-002
7.906840e+002,4.723553e-002
7.926124e+002,4.717813e-002
7.945410e+002,4.715372e-002
7.964695e+002,4.710091e-002
7.983979e+002,4.717134e-002
8.003264e+002,4.715697e-002
8.022549e+002,4.715209e-002
8.041835e+002,4.716805e-002
8.061119e+002,4.712912e-002
8.080404e+002,4.714670e-002
8.099689e+002,4.717950e-002
8.118975e+002,4.712240e-002
8.138259e+002,4.710028e-002
8.157545e+002,4.728533e-002
8.176830e+002,4.732247e-002
8.196115e+002,4.711250e-002
8.215399e+002,4.697352e-002
8.234684e+002,4.700844e-002
8.253970e+002,4.708163e-002
8.273254e+002,4.703451e-002
8.292539e+002,4.698548e-002
8.311824e+002,4.713001e-002
8.331110e+002,4.721788e-002
8.350394e+002,4.720735e-002
8.369679e+002,4.729937e-002
8.388964e+002,4.732664e-002
8.408250e+002,4.732830e-002
8.427534e+002,4.731992e-002
8.446819e+002,4.734194e-002
8.466104e+002,4.735192e-002
8.485389e+002,4.736551e-002
8.504674e+002,4.749775e-002
8.523959e+002,4.757930e-002
8.543244e+002,4.756861e-002
8.562529e+002,4.765324e-002
8.581814e+002,4.766792e-002
8.601099e+002,4.777554e-002
8.620384e+002,4.792326e-002
8.639669e+002,4.795641e-002
8.658954e+002,4.800503e-002
8.678239e+002,4.805603e-002
8.697524e+002,4.828160e-002
8.716809e+002,4.852229e-002
8.736094e+002,4.869539e-002
8.755378e+002,4.899802e-002
8.774664e+002,4.917335e-002
8.793949e+002,4.933524e-002
8.813234e+002,4.968854e-002
8.832518e+002,4.997830e-002
8.851804e+002,5.037986e-002
8.871089e+002,5.089582e-002
8.890374e+002,5.141515e-002
8.909658e+002,5.194056e-002
8.928943e+002,5.245616e-002
8.948229e+002,5.284648e-002
8.967513e+002,5.297321e-002
8.986798e+002,5.285651e-002
9.006083e+002,5.266005e-002
9.025369e+002,5.231972e-002
9.044653e+002,5.193663e-002
9.063938e+002,5.155322e-002
9.083223e+002,5.133478e-002
9.102509e+002,5.124667e-002
9.121793e+002,5.125715e-002
9.141078e+002,5.124242e-002
9.160364e+002,5.131211e-002
9.179648e+002,5.136484e-002
9.198933e+002,5.148916e-002
9.218218e+002,5.172036e-002
9.237504e+002,5.189164e-002
9.256788e+002,5.207374e-002
9.276073e+002,5.240865e-002
9.295358e+002,5.278938e-002
9.314644e+002,5.313607e-002
9.333928e+002,5.340802e-002
9.353213e+002,5.373986e-002
9.372498e+002,5.414459e-002
9.391783e+002,5.456276e-002
9.411068e+002,5.510745e-002
9.430353e+002,5.573659e-002
9.449637e+002,5.644302e-002
9.468923e+002,5.710690e-002
9.488208e+002,5.786553e-002
9.507493e+002,5.857576e-002
9.526777e+002,5.934851e-002
9.546063e+002,6.023509e-002
9.565348e+002,6.096943e-002
9.584633e+002,6.167403e-002
9.603917e+002,6.248219e-002
9.623203e+002,6.326403e-002
9.642488e+002,6.404313e-002
9.661772e+002,6.482829e-002
9.681057e+002,6.550194e-002
9.700343e+002,6.625828e-002
9.719628e+002,6.708381e-002
9.738912e+002,6.791659e-002
9.758197e+002,6.889953e-002
9.777483e+002,7.003810e-002
9.796768e+002,7.124770e-002
9.816052e+002,7.257748e-002
9.835337e+002,7.395495e-002
9.854623e+002,7.523668e-002
9.873907e+002,7.627567e-002
9.893192e+002,7.711371e-002
9.912477e+002,7.758511e-002
9.931763e+002,7.775664e-002
9.951047e+002,7.774748e-002
9.970332e+002,7.788288e-002
9.989617e+002,7.828610e-002
1.000890e+003,7.889882e-002
1.002819e+003,7.949546e-002
1.004747e+003,8.001021e-002
1.006676e+003,8.055475e-002
1.008604e+003,8.102336e-002
1.010533e+003,8.149707e-002
1.012461e+003,8.205533e-002
1.014390e+003,8.267780e-002
1.016318e+003,8.343618e-002
1.018247e+003,8.414827e-002
1.020175e+003,8.486152e-002
1.022104e+003,8.557215e-002
1.024032e+003,8.624478e-002
1.025961e+003,8.687309e-002
1.027889e+003,8.749136e-002
1.029818e+003,8.806916e-002
1.031746e+003,8.852860e-002
1.033675e+003,8.862502e-002
1.035603e+003,8.846807e-002
1.037532e+003,8.808341e-002
1.039460e+003,8.738086e-002
1.041389e+003,8.658701e-002
1.043317e+003,8.593113e-002
1.045246e+003,8.544676e-002
1.047174e+003,8.504223e-002
1.049103e+003,8.461082e-002
1.051031e+003,8.425663e-002
1.052960e+003,8.378701e-002
1.054888e+003,8.303729e-002
1.056817e+003,8.220164e-002
1.058745e+003,8.142364e-002
1.060674e+003,8.050586e-002
1.062602e+003,7.958571e-002
1.064531e+003,7.863228e-002
1.066459e+003,7.759070e-002
1.068388e+003,7.661736e-002
1.070316e+003,7.573117e-002
1.072245e+003,7.485756e-002
1.074173e+003,7.397817e-002
1.076102e+003,7.313455e-002
1.078030e+003,7.230140e-002
1.079959e+003,7.140830e-002
1.081887e+003,7.052253e-002
1.083816e+003,6.990917e-002
1.085744e+003,6.951842e-002
1.087673e+003,6.925062e-002
1.089601e+003,6.911726e-002
1.091530e+003,6.900007e-002
1.093458e+003,6.888438e-002
1.095387e+003,6.884862e-002
1.097315e+003,6.878538e-002
1.099244e+003,6.878650e-002
1.101172e+003,6.879163e-002
1.103101e+003,6.860211e-002
1.105029e+003,6.828570e-002
1.106958e+003,6.785353e-002
1.108886e+003,6.720779e-002
1.110815e+003,6.635161e-002
1.112743e+003,6.534281e-002
1.114672e+003,6.430551e-002
1.116600e+003,6.339610e-002
1.118529e+003,6.261662e-002
1.120457e+003,6.189876e-002
1.122386e+003,6.116972e-002
1.124314e+003,6.041570e-002
1.126243e+003,5.960058e-002
1.128171e+003,5.882454e-002
1.130100e+003,5.814056e-002
1.132028e+003,5.745501e-002
1.133957e+003,5.685661e-002
1.135885e+003,5.641340e-002
1.137814e+003,5.612180e-002
1.139742e+003,5.603615e-002
1.141671e+003,5.611558e-002
1.143599e+003,5.636654e-002
1.145528e+003,5.675299e-002
1.147456e+003,5.715615e-002
1.149385e+003,5.766036e-002
1.151313e+003,5.816451e-002
1.153242e+003,5.860857e-002
1.155170e+003,5.903425e-002
1.157099e+003,5.937783e-002
1.159027e+003,5.961198e-002
1.160956e+003,5.965178e-002
1.162884e+003,5.939960e-002
1.164813e+003,5.898058e-002
1.166741e+003,5.829803e-002
1.168670e+003,5.737885e-002
1.170598e+003,5.635779e-002
1.172526e+003,5.534510e-002
1.174455e+003,5.436144e-002
1.176384e+003,5.346224e-002
1.178312e+003,5.270262e-002
1.180240e+003,5.204229e-002
1.182169e+003,5.155116e-002
1.184098e+003,5.118042e-002
1.186026e+003,5.091347e-002
1.187954e+003,5.077567e-002
1.189883e+003,5.073845e-002
1.191812e+003,5.083647e-002
1.193740e+003,5.105921e-002
1.195668e+003,5.135662e-002
1.197597e+003,5.164778e-002
1.199526e+003,5.184270e-002
1.201454e+003,5.196302e-002
1.203382e+003,5.196232e-002
1.205311e+003,5.183097e-002
1.207240e+003,5.169704e-002
1.209168e+003,5.159103e-002
1.211096e+003,5.156352e-002
1.213025e+003,5.161259e-002
1.214953e+003,5.176438e-002
1.216882e+003,5.193684e-002
1.218810e+003,5.216750e-002
1.220739e+003,5.241183e-002
1.222667e+003,5.273677e-002
1.224596e+003,5.308205e-002
1.226524e+003,5.342794e-002
1.228453e+003,5.380996e-002
1.230381e+003,5.414218e-002
1.232310e+003,5.442452e-002
1.234238e+003,5.464405e-002
1.236167e+003,5.487455e-002
1.238095e+003,5.506033e-002
1.240024e+003,5.522102e-002
1.241952e+003,5.531063e-002
1.243881e+003,5.539547e-002
1.245809e+003,5.547622e-002
1.247738e+003,5.549942e-002
1.249666e+003,5.540573e-002
1.251595e+003,5.533951e-002
1.253523e+003,5.523976e-002
1.255452e+003,5.509533e-002
1.257380e+003,5.498661e-002
1.259309e+003,5.486001e-002
1.261237e+003,5.469169e-002
1.263166e+003,5.453914e-002
1.265094e+003,5.434303e-002
1.267023e+003,5.411162e-002
1.268951e+003,5.392034e-002
1.270880e+003,5.373435e-002
1.272808e+003,5.358734e-002
1.274737e+003,5.345823e-002
1.276665e+003,5.332480e-002
1.278594e+003,5.324448e-002
1.280522e+003,5.318165e-002
1.282451e+003,5.313810e-002
1.284379e+003,5.311491e-002
1.286308e+003,5.302816e-002
1.288236e+003,5.298133e-002
1.290165e+003,5.303267e-002
1.292093e+003,5.314288e-002
1.294022e+003,5.326952e-002
1.295950e+003,5.343792e-002
1.297879e+003,5.365618e-002
1.299807e+003,5.387785e-002
1.301736e+003,5.412859e-002
1.303664e+003,5.441701e-002
1.305593e+003,5.475818e-002
1.307521e+003,5.510511e-002
1.309450e+003,5.541065e-002
1.311378e+003,5.563261e-002
1.313307e+003,5.586762e-002
1.315235e+003,5.604066e-002
1.317164e+003,5.605535e-002
1.319092e+003,5.594436e-002
1.321021e+003,5.581069e-002
1.322949e+003,5.566308e-002
1.324878e+003,5.550265e-002
1.326806e+003,5.538238e-002
1.328735e+003,5.533487e-002
1.330663e+003,5.532080e-002
1.332592e+003,5.529296e-002
1.334520e+003,5.530568e-002
1.336449e+003,5.529777e-002
1.338377e+003,5.521171e-002
1.340306e+003,5.511728e-002
1.342234e+003,5.509734e-002
1.344163e+003,5.508440e-002
1.346091e+003,5.504629e-002
1.348020e+003,5.508181e-002
1.349948e+003,5.516924e-002
1.351877e+003,5.532082e-002
1.353805e+003,5.552838e-002
1.355734e+003,5.567220e-002
1.357662e+003,5.582134e-002
1.359591e+003,5.600905e-002
1.361519e+003,5.617263e-002
1.363448e+003,5.636106e-002
1.365376e+003,5.651439e-002
1.367305e+003,5.659845e-002
1.369233e+003,5.654102e-002
1.371162e+003,5.645077e-002
1.373090e+003,5.632640e-002
1.375019e+003,5.615685e-002
1.376947e+003,5.593616e-002
1.378876e+003,5.568081e-002
1.380804e+003,5.539050e-002
1.382733e+003,5.508007e-002
1.384661e+003,5.481465e-002
1.386590e+003,5.459448e-002
1.388518e+003,5.438724e-002
1.390447e+003,5.423929e-002
1.392375e+003,5.417250e-002
1.394304e+003,5.416574e-002
1.396232e+003,5.414281e-002
1.398161e+003,5.418787e-002
1.400089e+003,5.423207e-002
1.402018e+003,5.428716e-002
1.403946e+003,5.439232e-002
1.405875e+003,5.448040e-002
1.407803e+003,5.455759e-002
1.409732e+003,5.467394e-002
1.411660e+003,5.487839e-002
1.413589e+003,5.509280e-002
1.415517e+003,5.523437e-002
1.417446e+003,5.537226e-002
1.419374e+003,5.547004e-002
1.421303e+003,5.560461e-002
1.423231e+003,5.571663e-002
1.425160e+003,5.579992e-002
1.427088e+003,5.581362e-002
1.429017e+003,5.577166e-002
1.430945e+003,5.568291e-002
1.432874e+003,5.555241e-002
1.434802e+003,5.544021e-002
1.436731e+003,5.529933e-002
1.438659e+003,5.513457e-002
1.440588e+003,5.497645e-002
1.442516e+003,5.480462e-002
1.444445e+003,5.469346e-002
1.446373e+003,5.461740e-002
1.448302e+003,5.454382e-002
1.450230e+003,5.452613e-002
1.452159e+003,5.452093e-002
1.454087e+003,5.446298e-002
1.456016e+003,5.436302e-002
1.457944e+003,5.424302e-002
1.459873e+003,5.420748e-002
1.461801e+003,5.429908e-002
1.463730e+003,5.430288e-002
1.465658e+003,5.405629e-002
1.467587e+003,5.369417e-002
1.469515e+003,5.327750e-002
1.471444e+003,5.297527e-002
1.473372e+003,5.255597e-002
1.475301e+003,5.201595e-002
1.477229e+003,5.164529e-002
1.479158e+003,5.141424e-002
1.481086e+003,5.127501e-002
1.483015e+003,5.121377e-002
1.484943e+003,5.118969e-002
1.486872e+003,5.122944e-002
1.488800e+003,5.130161e-002
1.490729e+003,5.133331e-002
1.492657e+003,5.144469e-002
1.494586e+003,5.160649e-002
1.496514e+003,5.167793e-002
1.498443e+003,5.178114e-002
1.500371e+003,5.189575e-002
1.502300e+003,5.200831e-002
1.504228e+003,5.210618e-002
1.506157e+003,5.226864e-002
1.508085e+003,5.243238e-002
1.510014e+003,5.256631e-002
1.511942e+003,5.272727e-002
1.513871e+003,5.288698e-002
1.515799e+003,5.299711e-002
1.517728e+003,5.294297e-002
1.519656e+003,5.283219e-002
1.521585e+003,5.277347e-002
1.523513e+003,5.274140e-002
1.525442e+003,5.273525e-002
1.527370e+003,5.273243e-002
1.529299e+003,5.273158e-002
1.531227e+003,5.276827e-002
1.533156e+003,5.281346e-002
1.535084e+003,5.280983e-002
1.537013e+003,5.281858e-002
1.538941e+003,5.285153e-002
1.540870e+003,5.289614e-002
1.542798e+003,5.294434e-002
1.544727e+003,5.298224e-002
1.546655e+003,5.297151e-002
1.548584e+003,5.295307e-002
1.550512e+003,5.296517e-002
1.552441e+003,5.295944e-002
1.554369e+003,5.298135e-002
1.556298e+003,5.301809e-002
1.558226e+003,5.304919e-002
1.560155e+003,5.305884e-002
1.562083e+003,5.313210e-002
1.564012e+003,5.324526e-002
1.565940e+003,5.335222e-002
1.567869e+003,5.344687e-002
1.569797e+003,5.355394e-002
1.571726e+003,5.367608e-002
1.573654e+003,5.382138e-002
1.575583e+003,5.398504e-002
1.577511e+003,5.422519e-002
1.579440e+003,5.444397e-002
1.581368e+003,5.465642e-002
1.583297e+003,5.487837e-002
1.585225e+003,5.509637e-002
1.587154e+003,5.531445e-002
1.589082e+003,5.555957e-002
1.591010e+003,5.576538e-002
1.592939e+003,5.591001e-002
1.594868e+003,5.603274e-002
1.596796e+003,5.619761e-002
1.598724e+003,5.632567e-002
1.600653e+003,5.638965e-002
1.602582e+003,5.647087e-002
1.604510e+003,5.648932e-002
1.606438e+003,5.657022e-002
1.608367e+003,5.664224e-002
1.610296e+003,5.670480e-002
1.612224e+003,5.685824e-002
1.614152e+003,5.698145e-002
1.616081e+003,5.704511e-002
1.618010e+003,5.717419e-002
1.619938e+003,5.737346e-002
1.621866e+003,5.751874e-002
1.623795e+003,5.759194e-002
1.625724e+003,5.761361e-002
1.627652e+003,5.756231e-002
1.629580e+003,5.752666e-002
1.631509e+003,5.750813e-002
1.633438e+003,5.744689e-002
1.635366e+003,5.736452e-002
1.637294e+003,5.734534e-002
1.639223e+003,5.727770e-002
1.641151e+003,5.722590e-002
1.643080e+003,5.721109e-002
1.645008e+003,5.714166e-002
1.646937e+003,5.705426e-002
1.648865e+003,5.696076e-002
1.650794e+003,5.687316e-002
1.652722e+003,5.677599e-002
1.654651e+003,5.673593e-002
1.656579e+003,5.662534e-002
1.658508e+003,5.642877e-002
1.660436e+003,5.621707e-002
1.662365e+003,5.598601e-002
1.664293e+003,5.581641e-002
1.666222e+003,5.562003e-002
1.668150e+003,5.540659e-002
1.670079e+003,5.523768e-002
1.672007e+003,5.506168e-002
1.673936e+003,5.489367e-002
1.675864e+003,5.476113e-002
1.677793e+003,5.461547e-002
1.679721e+003,5.448344e-002
1.681650e+003,5.432301e-002
1.683578e+003,5.416237e-002
1.685507e+003,5.405626e-002
1.687435e+003,5.401109e-002
1.689364e+003,5.388590e-002
1.691292e+003,5.379998e-002
1.693221e+003,5.377724e-002
1.695149e+003,5.373482e-002
1.697078e+003,5.369523e-002
1.699006e+003,5.359738e-002
1.700935e+003,5.355971e-002
1.702863e+003,5.360944e-002
1.704792e+003,5.369676e-002
1.706720e+003,5.376403e-002
1.708649e+003,5.388143e-002
1.710577e+003,5.406366e-002
1.712506e+003,5.420944e-002
1.714434e+003,5.439300e-002
1.716363e+003,5.455874e-002
1.718291e+003,5.473554e-002
1.720220e+003,5.497109e-002
1.722148e+003,5.521526e-002
1.724077e+003,5.546813e-002
1.726005e+003,5.572287e-002
1.727934e+003,5.601095e-002
1.729862e+003,5.626855e-002
1.731791e+003,5.637271e-002
1.733719e+003,5.633153e-002
1.735648e+003,5.608519e-002
1.737576e+003,5.564590e-002
1.739505e+003,5.505512e-002
1.741433e+003,5.446754e-002
1.743362e+003,5.389082e-002
1.745290e+003,5.336955e-002
1.747219e+003,5.297456e-002
1.749147e+003,5.267913e-002
1.751076e+003,5.242284e-002
1.753004e+003,5.221226e-002
1.754933e+003,5.208059e-002
1.756861e+003,5.201161e-002
1.758790e+003,5.186060e-002
1.760718e+003,5.175348e-002
1.762647e+003,5.171547e-002
1.764575e+003,5.170565e-002
1.766504e+003,5.168655e-002
1.768432e+003,5.161611e-002
1.770361e+003,5.157084e-002
1.772289e+003,5.154726e-002
1.774218e+003,5.155826e-002
1.776146e+003,5.153660e-002
1.778075e+003,5.156492e-002
1.780003e+003,5.162798e-002
1.781932e+003,5.162079e-002
1.783860e+003,5.159154e-002
1.785789e+003,5.157161e-002
1.787717e+003,5.159791e-002
1.789646e+003,5.162198e-002
1.791574e+003,5.165617e-002
1.793503e+003,5.169820e-002
1.795431e+003,5.172263e-002
1.797360e+003,5.177451e-002
1.799288e+003,5.185857e-002
1.801217e+003,5.182988e-002
1.803145e+003,5.177951e-002
1.805074e+003,5.171602e-002
1.807002e+003,5.180090e-002
1.808931e+003,5.188305e-002
1.810859e+003,5.186952e-002
1.812788e+003,5.188106e-002
1.814716e+003,5.186274e-002
1.816645e+003,5.181881e-002
1.818573e+003,5.178473e-002
1.820502e+003,5.177207e-002
1.822430e+003,5.174627e-002
1.824359e+003,5.173964e-002
1.826287e+003,5.178215e-002
1.828216e+003,5.179956e-002
1.830144e+003,5.185303e-002
1.832073e+003,5.179425e-002
1.834001e+003,5.178051e-002
1.835930e+003,5.179532e-002
1.837858e+003,5.172670e-002
1.839787e+003,5.164472e-002
1.841715e+003,5.167684e-002
1.843644e+003,5.174237e-002
1.845572e+003,5.175397e-002
1.847501e+003,5.171562e-002
1.849429e+003,5.175823e-002
1.851358e+003,5.183884e-002
1.853286e+003,5.184941e-002
1.855215e+003,5.185255e-002
1.857143e+003,5.181139e-002
1.859072e+003,5.178092e-002
1.861000e+003,5.175013e-002
1.862929e+003,5.187961e-002
1.864857e+003,5.188341e-002
1.866786e+003,5.179588e-002
1.868714e+003,5.185210e-002
1.870643e+003,5.179687e-002
1.872571e+003,5.190857e-002
1.874500e+003,5.204408e-002
1.876428e+003,5.200207e-002
1.878357e+003,5.194993e-002
1.880285e+003,5.191271e-002
1.882214e+003,5.186705e-002
1.884142e+003,5.184360e-002
1.886071e+003,5.189940e-002
1.887999e+003,5.191528e-002
1.889928e+003,5.191766e-002
1.891856e+003,5.189965e-002
1.893785e+003,5.195003e-002
1.895713e+003,5.191389e-002
1.897642e+003,5.167458e-002
1.899570e+003,5.187563e-002
1.901499e+003,5.196688e-002
1.903427e+003,5.188503e-002
1.905356e+003,5.181353e-002
1.907284e+003,5.169776e-002
1.909213e+003,5.156903e-002
1.911141e+003,5.176528e-002
1.913070e+003,5.184622e-002
1.914998e+003,5.183821e-002
1.916927e+003,5.176679e-002
1.918855e+003,5.185350e-002
1.920784e+003,5.162433e-002
1.922712e+003,5.146565e-002
1.924641e+003,5.149723e-002
1.926569e+003,5.129626e-002
1.928498e+003,5.124227e-002
1.930426e+003,5.135341e-002
1.932355e+003,5.136997e-002
1.934283e+003,5.120098e-002
1.936212e+003,5.102040e-002
1.938140e+003,5.057163e-002
1.940069e+003,5.045332e-002
1.941997e+003,5.059842e-002
1.943926e+003,5.007616e-002
1.945854e+003,4.975390e-002
1.947783e+003,4.978867e-002
1.949711e+003,4.966710e-002
1.951640e+003,4.949467e-002
1.953568e+003,4.990166e-002
1.955497e+003,4.963347e-002
1.957425e+003,4.853106e-002
1.959354e+003,4.782156e-002
1.961282e+003,4.755322e-002
1.963211e+003,4.776673e-002
1.965139e+003,4.723219e-002
1.967068e+003,4.614205e-002
1.968996e+003,4.603703e-002
1.970925e+003,4.546491e-002
1.972853e+003,4.526614e-002
1.974782e+003,4.569019e-002
1.976710e+003,4.574420e-002
1.978639e+003,4.468338e-002
1.980567e+003,4.542330e-002
1.982496e+003,4.562305e-002
1.984424e+003,4.622222e-002
1.986353e+003,4.727733e-002
1.988281e+003,4.804408e-002
1.990210e+003,4.851681e-002
1.992138e+003,4.831900e-002
1.994067e+003,4.814070e-002
1.995995e+003,4.798104e-002
1.997924e+003,4.758036e-002
1.999852e+003,4.758631e-002
2.001781e+003,4.796488e-002
2.003709e+003,4.711442e-002
2.005638e+003,4.576508e-002
2.007566e+003,4.554592e-002
2.009495e+003,4.522464e-002
2.011423e+003,4.484415e-002
2.013352e+003,4.476472e-002
2.015280e+003,4.556772e-002
2.017208e+003,4.604086e-002
2.019137e+003,4.654157e-002
2.021066e+003,4.564561e-002
2.022994e+003,4.416822e-002
2.024922e+003,4.398081e-002
2.026851e+003,4.351209e-002
2.028780e+003,4.265942e-002
2.030708e+003,4.311442e-002
2.032636e+003,4.355654e-002
2.034565e+003,4.450467e-002
2.036494e+003,4.449547e-002
2.038422e+003,4.433860e-002
2.040350e+003,4.480467e-002
2.042279e+003,4.579213e-002
2.044208e+003,4.713809e-002
2.046136e+003,4.741899e-002
2.048064e+003,4.739772e-002
2.049993e+003,4.824010e-002
2.051921e+003,4.883594e-002
2.053850e+003,4.903721e-002
2.055778e+003,4.980867e-002
2.057707e+003,4.991746e-002
2.059635e+003,4.967170e-002
2.061564e+003,5.012497e-002
2.063492e+003,5.026611e-002
2.065421e+003,5.035537e-002
2.067349e+003,5.026741e-002
2.069278e+003,5.056804e-002
2.071206e+003,5.081264e-002
2.073135e+003,5.070949e-002
2.075063e+003,5.114679e-002
2.076992e+003,5.149332e-002
2.078920e+003,5.156094e-002
2.080849e+003,5.190923e-002
2.082777e+003,5.208549e-002
2.084706e+003,5.203414e-002
2.086634e+003,5.187514e-002
2.088563e+003,5.192195e-002
2.090491e+003,5.225146e-002
2.092420e+003,5.260489e-002
2.094348e+003,5.258071e-002
2.096277e+003,5.234974e-002
2.098205e+003,5.246218e-002
2.100134e+003,5.250720e-002
2.102062e+003,5.252840e-002
2.103991e+003,5.250141e-002
2.105919e+003,5.253281e-002
2.107848e+003,5.267647e-002
2.109776e+003,5.273311e-002
2.111705e+003,5.277456e-002
2.113633e+003,5.291714e-002
2.115562e+003,5.291961e-002
2.117490e+003,5.290614e-002
2.119419e+003,5.294880e-002
2.121347e+003,5.309458e-002
2.123276e+003,5.277647e-002
2.125204e+003,5.255847e-002
2.127133e+003,5.248948e-002
2.129061e+003,5.235112e-002
2.130990e+003,5.205596e-002
2.132918e+003,5.132449e-002
2.134847e+003,5.093736e-002
2.136775e+003,5.110382e-002
2.138704e+003,5.105031e-002
2.140632e+003,5.051447e-002
2.142561e+003,4.992265e-002
2.144489e+003,4.986188e-002
2.146418e+003,5.020141e-002
2.148346e+003,5.020851e-002
2.150275e+003,4.901304e-002
2.152203e+003,4.751660e-002
2.154132e+003,4.681893e-002
2.156060e+003,4.543698e-002
2.157989e+003,4.298099e-002
2.159917e+003,4.236606e-002
2.161846e+003,4.474631e-002
2.163774e+003,4.589646e-002
2.165703e+003,4.650726e-002
2.167631e+003,4.744090e-002
2.169560e+003,4.778646e-002
2.171488e+003,4.744423e-002
2.173417e+003,4.789739e-002
2.175345e+003,4.803460e-002
2.177274e+003,4.835848e-002
2.179202e+003,4.849224e-002
2.181131e+003,4.885413e-002
2.183059e+003,4.941383e-002
2.184988e+003,4.953432e-002
2.186916e+003,4.966941e-002
2.188845e+003,4.949849e-002
2.190773e+003,5.034939e-002
2.192702e+003,5.043364e-002
2.194630e+003,5.008303e-002
2.196559e+003,5.076810e-002
2.198487e+003,5.106540e-002
2.200416e+003,5.108802e-002
2.202344e+003,5.111184e-002
2.204273e+003,5.069381e-002
2.206201e+003,5.066193e-002
2.208130e+003,5.086885e-002
2.210058e+003,5.115981e-002
2.211987e+003,5.152564e-002
2.213915e+003,5.149632e-002
2.215844e+003,5.160340e-002
2.217772e+003,5.165859e-002
2.219701e+003,5.202253e-002
2.221629e+003,5.203710e-002
2.223558e+003,5.256647e-002
2.225486e+003,5.235377e-002
2.227415e+003,5.219229e-002
2.229343e+003,5.240158e-002
2.231272e+003,5.288403e-002
2.233200e+003,5.295408e-002
2.235129e+003,5.306748e-002
2.237057e+003,5.300248e-002
2.238986e+003,5.287586e-002
2.240914e+003,5.300604e-002
2.242843e+003,5.334271e-002
2.244771e+003,5.337717e-002
2.246700e+003,5.327233e-002
2.248628e+003,5.329435e-002
2.250557e+003,5.368927e-002
2.252485e+003,5.381519e-002
2.254414e+003,5.376900e-002
2.256342e+003,5.387192e-002
2.258271e+003,5.416372e-002
2.260199e+003,5.427701e-002
2.262128e+003,5.439568e-002
2.264056e+003,5.423855e-002
2.265985e+003,5.404193e-002
2.267913e+003,5.433556e-002
2.269842e+003,5.470657e-002
2.271770e+003,5.482599e-002
2.273699e+003,5.460919e-002
2.275627e+003,5.467818e-002
2.277556e+003,5.499874e-002
2.279484e+003,5.534189e-002
2.281413e+003,5.524654e-002
2.283341e+003,5.530082e-002
2.285270e+003,5.550600e-002
2.287198e+003,5.567265e-002
2.289127e+003,5.570363e-002
2.291055e+003,5.567007e-002
2.292984e+003,5.578123e-002
2.294912e+003,5.601879e-002
2.296841e+003,5.600323e-002
2.298769e+003,5.604451e-002
2.300698e+003,5.612553e-002
2.302626e+003,5.613380e-002
2.304555e+003,5.619715e-002
2.306483e+003,5.637451e-002
2.308412e+003,5.643823e-002
2.310340e+003,5.646677e-002
2.312269e+003,5.656910e-002
2.314197e+003,5.644761e-002
2.316125e+003,5.657024e-002
2.318054e+003,5.695592e-002
2.319983e+003,5.686924e-002
2.321911e+003,5.704138e-002
2.323840e+003,5.746793e-002
2.325768e+003,5.795375e-002
2.327697e+003,5.809059e-002
2.329625e+003,5.804643e-002
2.331553e+003,5.799971e-002
2.333482e+003,5.788906e-002
2.335411e+003,5.785647e-002
2.337339e+003,5.791829e-002
2.339268e+003,5.806571e-002
2.341196e+003,5.766886e-002
2.343125e+003,5.761820e-002
2.345053e+003,5.751484e-002
2.346981e+003,5.741547e-002
2.348910e+003,5.712610e-002
2.350839e+003,5.719518e-002
2.352767e+003,5.697957e-002
2.354696e+003,5.651110e-002
2.356624e+003,5.669054e-002
2.358552e+003,5.660304e-002
2.360481e+003,5.657813e-002
2.362409e+003,5.670381e-002
2.364338e+003,5.659617e-002
2.366267e+003,5.632406e-002
2.368195e+003,5.648252e-002
2.370124e+003,5.652149e-002
2.372052e+003,5.672790e-002
2.373980e+003,5.693562e-002
2.375909e+003,5.701446e-002
2.377838e+003,5.686925e-002
2.379766e+003,5.686675e-002
2.381695e+003,5.681348e-002
2.383623e+003,5.685787e-002
2.385552e+003,5.696339e-002
2.387480e+003,5.704166e-002
2.389408e+003,5.701069e-002
2.391337e+003,5.701909e-002
2.393266e+003,5.699615e-002
2.395194e+003,5.700167e-002
2.397123e+003,5.704394e-002
2.399051e+003,5.701977e-002
2.400979e+003,5.703953e-002
2.402908e+003,5.703832e-002
2.404836e+003,5.700243e-002
2.406765e+003,5.714190e-002
2.408694e+003,5.708789e-002
2.410622e+003,5.709318e-002
2.412551e+003,5.726920e-002
2.414479e+003,5.726342e-002
2.416407e+003,5.713392e-002
2.418336e+003,5.706073e-002
2.420264e+003,5.714866e-002
2.422193e+003,5.720173e-002
2.424122e+003,5.730100e-002
2.426050e+003,5.727249e-002
2.427979e+003,5.720226e-002
2.429907e+003,5.709103e-002
2.431835e+003,5.704591e-002
2.433764e+003,5.715331e-002
2.435692e+003,5.708827e-002
2.437621e+003,5.700280e-002
2.439550e+003,5.711899e-002
2.441478e+003,5.707032e-002
2.443406e+003,5.696230e-002
2.445335e+003,5.701901e-002
2.447263e+003,5.710619e-002
2.449192e+003,5.710773e-002
2.451121e+003,5.699600e-002
2.453049e+003,5.705710e-002
2.454978e+003,5.716023e-002
2.456906e+003,5.713423e-002
2.458834e+003,5.717198e-002
2.460763e+003,5.718846e-002
2.462691e+003,5.720732e-002
2.464620e+003,5.727544e-002
2.466549e+003,5.728013e-002
2.468477e+003,5.724909e-002
2.470406e+003,5.721424e-002
2.472334e+003,5.725129e-002
2.474262e+003,5.733163e-002
2.476191e+003,5.722187e-002
2.478119e+003,5.717289e-002
2.480048e+003,5.733786e-002
2.481977e+003,5.724966e-002
2.483905e+003,5.717051e-002
2.485833e+003,5.726334e-002
2.487762e+003,5.731748e-002
2.489690e+003,5.722248e-002
2.491619e+003,5.722055e-002
2.493547e+003,5.732512e-002
2.495476e+003,5.731748e-002
2.497405e+003,5.732376e-002
2.499333e+003,5.727257e-002
2.501261e+003,5.736304e-002
2.503190e+003,5.745297e-002
2.505118e+003,5.740642e-002
2.507047e+003,5.737273e-002
2.508975e+003,5.732852e-002
2.510904e+003,5.727155e-002
2.512833e+003,5.727654e-002
2.514761e+003,5.732505e-002
2.516689e+003,5.744858e-002
2.518618e+003,5.743546e-002
2.520546e+003,5.754152e-002
2.522475e+003,5.753202e-002
2.524403e+003,5.751005e-002
2.526332e+003,5.750642e-002
2.528260e+003,5.749590e-002
2.530189e+003,5.762732e-002
2.532117e+003,5.780848e-002
2.534046e+003,5.775685e-002
2.535974e+003,5.763935e-002
2.537903e+003,5.759199e-002
2.539831e+003,5.762853e-002
2.541760e+003,5.758582e-002
2.543688e+003,5.768578e-002
2.545617e+003,5.772866e-002
2.547545e+003,5.757901e-002
2.549474e+003,5.757106e-002
2.551402e+003,5.761658e-002
2.553331e+003,5.770762e-002
2.555259e+003,5.776741e-002
2.557188e+003,5.776473e-002
2.559116e+003,5.761661e-002
2.561045e+003,5.755601e-002
2.562973e+003,5.765158e-002
2.564902e+003,5.769664e-002
2.566830e+003,5.764772e-002
2.568759e+003,5.761385e-002
2.570687e+003,5.760580e-002
2.572616e+003,5.754882e-002
2.574544e+003,5.765778e-002
2.576473e+003,5.775155e-002
2.578401e+003,5.774281e-002
2.580330e+003,5.775727e-002
2.582258e+003,5.775137e-002
2.584187e+003,5.770447e-002
2.586115e+003,5.768056e-002
2.588044e+003,5.774887e-002
2.589972e+003,5.780901e-002
2.591901e+003,5.777661e-002
2.593829e+003,5.769343e-002
2.595758e+003,5.771469e-002
2.597686e+003,5.770361e-002
2.599615e+003,5.769521e-002
2.601543e+003,5.783982e-002
2.603472e+003,5.794651e-002
2.605400e+003,5.786572e-002
2.607329e+003,5.782400e-002
2.609257e+003,5.780905e-002
2.611186e+003,5.777623e-002
2.613114e+003,5.779444e-002
2.615043e+003,5.790921e-002
2.616971e+003,5.797661e-002
2.618900e+003,5.800895e-002
2.620828e+003,5.796737e-002
2.622757e+003,5.796722e-002
2.624685e+003,5.805909e-002
2.626614e+003,5.814390e-002
2.628542e+003,5.816022e-002
2.630471e+003,5.811268e-002
2.632399e+003,5.811742e-002
2.634328e+003,5.819409e-002
2.636256e+003,5.832573e-002
2.638185e+003,5.840812e-002
2.640113e+003,5.839846e-002
2.642042e+003,5.843875e-002
2.643970e+003,5.851574e-002
2.645899e+003,5.855051e-002
2.647827e+003,5.856507e-002
2.649756e+003,5.858039e-002
2.651684e+003,5.865077e-002
2.653613e+003,5.872287e-002
2.655541e+003,5.885467e-002
2.657470e+003,5.891576e-002
2.659398e+003,5.895283e-002
2.661327e+003,5.899883e-002
2.663255e+003,5.903767e-002
2.665184e+003,5.907282e-002
2.667112e+003,5.907935e-002
2.669041e+003,5.905619e-002
2.670969e+003,5.900339e-002
2.672898e+003,5.898567e-002
2.674826e+003,5.902013e-002
2.676755e+003,5.907692e-002
2.678683e+003,5.911636e-002
2.680612e+003,5.910820e-002
2.682540e+003,5.906405e-002
2.684469e+003,5.904636e-002
2.686397e+003,5.912403e-002
2.688326e+003,5.914085e-002
2.690254e+003,5.914863e-002
2.692183e+003,5.911553e-002
2.694111e+003,5.914548e-002
2.696040e+003,5.924721e-002
2.697968e+003,5.925876e-002
2.699897e+003,5.924858e-002
2.701825e+003,5.924056e-002
2.703754e+003,5.924903e-002
2.705682e+003,5.928941e-002
2.707611e+003,5.926658e-002
2.709539e+003,5.922928e-002
2.711468e+003,5.924429e-002
2.713396e+003,5.928618e-002
2.715325e+003,5.931660e-002
2.717253e+003,5.932150e-002
2.719182e+003,5.929799e-002
2.721110e+003,5.933594e-002
2.723039e+003,5.933263e-002
2.724967e+003,5.930756e-002
2.726896e+003,5.927497e-002
2.728824e+003,5.931956e-002
2.730753e+003,5.936944e-002
2.732681e+003,5.939554e-002
2.734610e+003,5.942802e-002
2.736538e+003,5.940925e-002
2.738467e+003,5.941932e-002
2.740395e+003,5.944652e-002
2.742324e+003,5.946096e-002
2.744252e+003,5.946092e-002
2.746181e+003,5.947080e-002
2.748109e+003,5.945458e-002
2.750038e+003,5.950777e-002
2.751966e+003,5.954406e-002
2.753895e+003,5.953342e-002
2.755823e+003,5.953080e-002
2.757752e+003,5.949413e-002
2.759680e+003,5.956303e-002
2.761609e+003,5.953852e-002
2.763537e+003,5.952772e-002
2.765466e+003,5.960765e-002
2.767394e+003,5.963148e-002
2.769323e+003,5.965068e-002
2.771251e+003,5.967793e-002
2.773180e+003,5.968405e-002
2.775108e+003,5.967942e-002
2.777037e+003,5.972834e-002
2.778965e+003,5.977161e-002
2.780894e+003,5.980625e-002
2.782822e+003,5.981922e-002
2.784750e+003,5.981435e-002
2.786679e+003,5.980252e-002
2.788608e+003,5.982967e-002
2.790536e+003,5.984785e-002
2.792465e+003,5.983990e-002
2.794393e+003,5.989045e-002
2.796322e+003,5.995013e-002
2.798250e+003,5.997946e-002
2.800178e+003,5.997957e-002
2.802107e+003,6.000354e-002
2.804036e+003,6.003176e-002
2.805964e+003,6.007776e-002
2.807893e+003,6.008640e-002
2.809821e+003,6.011586e-002
2.811750e+003,6.022653e-002
2.813678e+003,6.029314e-002
2.815606e+003,6.028077e-002
2.817535e+003,6.028564e-002
2.819464e+003,6.034968e-002
2.821392e+003,6.047374e-002
2.823321e+003,6.060675e-002
2.825249e+003,6.064336e-002
2.827177e+003,6.069042e-002
2.829106e+003,6.079544e-002
2.831034e+003,6.085914e-002
2.832963e+003,6.099394e-002
2.834892e+003,6.117365e-002
2.836820e+003,6.137904e-002
2.838749e+003,6.158853e-002
2.840677e+003,6.189582e-002
2.842605e+003,6.239191e-002
2.844534e+003,6.306970e-002
2.846462e+003,6.399856e-002
2.848391e+003,6.483603e-002
2.850320e+003,6.486449e-002
2.852248e+003,6.437303e-002
2.854177e+003,6.382696e-002
2.856105e+003,6.347328e-002
2.858033e+003,6.314385e-002
2.859962e+003,6.285892e-002
2.861890e+003,6.268514e-002
2.863819e+003,6.256974e-002
2.865748e+003,6.249753e-002
2.867676e+003,6.250565e-002
2.869604e+003,6.244818e-002
2.871533e+003,6.241275e-002
2.873461e+003,6.247018e-002
2.875390e+003,6.242465e-002
2.877319e+003,6.245319e-002
2.879247e+003,6.258934e-002
2.881176e+003,6.264135e-002
2.883104e+003,6.262501e-002
2.885032e+003,6.270883e-002
2.886961e+003,6.285972e-002
2.888889e+003,6.299362e-002
2.890818e+003,6.303346e-002
2.892747e+003,6.317446e-002
2.894675e+003,6.334346e-002
2.896604e+003,6.342129e-002
2.898532e+003,6.342700e-002
2.900460e+003,6.350884e-002
2.902389e+003,6.359257e-002
2.904317e+003,6.370931e-002
2.906246e+003,6.389632e-002
2.908175e+003,6.417441e-002
2.910103e+003,6.451885e-002
2.912031e+003,6.513233e-002
2.913960e+003,6.591423e-002
2.915888e+003,6.654289e-002
2.917817e+003,6.659102e-002
2.919745e+003,6.625415e-002
2.921674e+003,6.565788e-002
2.923603e+003,6.501471e-002
2.925531e+003,6.452607e-002
2.927459e+003,6.408649e-002
2.929388e+003,6.372891e-002
2.931316e+003,6.338675e-002
2.933245e+003,6.307591e-002
2.935173e+003,6.274540e-002
2.937102e+003,6.244575e-002
2.939031e+003,6.216687e-002
2.940959e+003,6.187387e-002
2.942887e+003,6.157789e-002
2.944816e+003,6.132975e-002
2.946744e+003,6.114168e-002
2.948673e+003,6.098365e-002
2.950601e+003,6.080842e-002
2.952530e+003,6.070212e-002
2.954458e+003,6.056906e-002
2.956387e+003,6.040482e-002
2.958315e+003,6.020428e-002
2.960244e+003,6.004938e-002
2.962172e+003,5.995804e-002
2.964101e+003,5.989341e-002
2.966029e+003,5.978005e-002
2.967958e+003,5.965962e-002
2.969886e+003,5.954144e-002
2.971815e+003,5.946683e-002
2.973743e+003,5.936543e-002
2.975672e+003,5.925459e-002
2.977600e+003,5.918763e-002
2.979529e+003,5.917853e-002
2.981457e+003,5.913766e-002
2.983386e+003,5.911027e-002
2.985314e+003,5.908753e-002
2.987243e+003,5.905172e-002
2.989171e+003,5.900332e-002
2.991100e+003,5.901188e-002
2.993028e+003,5.904005e-002
2.994957e+003,5.893644e-002
2.996885e+003,5.891360e-002
2.998814e+003,5.896917e-002
3.000742e+003,5.898715e-002
3.002671e+003,5.895307e-002
3.004599e+003,5.887834e-002
3.006528e+003,5.892235e-002
3.008456e+003,5.894369e-002
3.010385e+003,5.896959e-002
3.012313e+003,5.902741e-002
3.014242e+003,5.905812e-002
3.016170e+003,5.904462e-002
3.018099e+003,5.904761e-002
3.020027e+003,5.908985e-002
3.021956e+003,5.909101e-002
3.023884e+003,5.910493e-002
3.025813e+003,5.914875e-002
3.027741e+003,5.916129e-002
3.029670e+003,5.922223e-002
3.031598e+003,5.922394e-002
3.033527e+003,5.920810e-002
3.035455e+003,5.921788e-002
3.037384e+003,5.925343e-002
3.039312e+003,5.923906e-002
3.041241e+003,5.929041e-002
3.043169e+003,5.939087e-002
3.045098e+003,5.941684e-002
3.047026e+003,5.950708e-002
3.048955e+003,5.950666e-002
3.050883e+003,5.948119e-002
3.052812e+003,5.954698e-002
3.054740e+003,5.960364e-002
3.056669e+003,5.958580e-002
3.058597e+003,5.964204e-002
3.060526e+003,5.973763e-002
3.062454e+003,5.972101e-002
3.064383e+003,5.969555e-002
3.066311e+003,5.973368e-002
3.068240e+003,5.982382e-002
3.070168e+003,5.987068e-002
3.072097e+003,5.987366e-002
3.074025e+003,5.995636e-002
3.075954e+003,6.000886e-002
3.077882e+003,6.000503e-002
3.079811e+003,6.009595e-002
3.081739e+003,6.014725e-002
3.083668e+003,6.014602e-002
3.085596e+003,6.018448e-002
3.087525e+003,6.023937e-002
3.089453e+003,6.022153e-002
3.091382e+003,6.014441e-002
3.093310e+003,6.014398e-002
3.095239e+003,6.024766e-002
3.097167e+003,6.034052e-002
3.099096e+003,6.037911e-002
3.101024e+003,6.042313e-002
3.102953e+003,6.051007e-002
3.104881e+003,6.050628e-002
3.106810e+003,6.050141e-002
3.108738e+003,6.058868e-002
3.110667e+003,6.059719e-002
3.112595e+003,6.063377e-002
3.114524e+003,6.070788e-002
3.116452e+003,6.073758e-002
3.118381e+003,6.079672e-002
3.120309e+003,6.087440e-002
3.122238e+003,6.088321e-002
3.124166e+003,6.091535e-002
3.126095e+003,6.099604e-002
3.128023e+003,6.109004e-002
3.129952e+003,6.113353e-002
3.131880e+003,6.116454e-002
3.133809e+003,6.113957e-002
3.135737e+003,6.122080e-002
3.137666e+003,6.124972e-002
3.139594e+003,6.130729e-002
3.141523e+003,6.132583e-002
3.143451e+003,6.137148e-002
3.145380e+003,6.147112e-002
3.147308e+003,6.155885e-002
3.149237e+003,6.167900e-002
3.151165e+003,6.168418e-002
3.153094e+003,6.165745e-002
3.155022e+003,6.166556e-002
3.156951e+003,6.177936e-002
3.158879e+003,6.186518e-002
3.160808e+003,6.185346e-002
3.162736e+003,6.190920e-002
3.164665e+003,6.189396e-002
3.166593e+003,6.195596e-002
3.168522e+003,6.216696e-002
3.170450e+003,6.218636e-002
3.172379e+003,6.211704e-002
3.174307e+003,6.225808e-002
3.176236e+003,6.236161e-002
3.178164e+003,6.236321e-002
3.180093e+003,6.238769e-002
3.182021e+003,6.239418e-002
3.183950e+003,6.249985e-002
3.185878e+003,6.257999e-002
3.187807e+003,6.260318e-002
3.189735e+003,6.270387e-002
3.191664e+003,6.278130e-002
3.193592e+003,6.286500e-002
3.195521e+003,6.293975e-002
3.197449e+003,6.300858e-002
3.199378e+003,6.302815e-002
3.201306e+003,6.308192e-002
3.203235e+003,6.316023e-002
3.205163e+003,6.325212e-002
3.207092e+003,6.326820e-002
3.209020e+003,6.329110e-002
3.210948e+003,6.332791e-002
3.212877e+003,6.334621e-002
3.214806e+003,6.344815e-002
3.216734e+003,6.355635e-002
3.218663e+003,6.355719e-002
3.220591e+003,6.364030e-002
3.222520e+003,6.373201e-002
3.224448e+003,6.378616e-002
3.226376e+003,6.387045e-002
3.228305e+003,6.385756e-002
3.230234e+003,6.387412e-002
3.232162e+003,6.395371e-002
3.234091e+003,6.410146e-002
3.236019e+003,6.413128e-002
3.237948e+003,6.413177e-002
3.239876e+003,6.418641e-002
3.241804e+003,6.426294e-002
3.243733e+003,6.434697e-002
3.245662e+003,6.445621e-002
3.247590e+003,6.445384e-002
3.249519e+003,6.446134e-002
3.251447e+003,6.453072e-002
3.253375e+003,6.461778e-002
3.255304e+003,6.464723e-002
3.257232e+003,6.466786e-002
3.259161e+003,6.478039e-002
3.261090e+003,6.489022e-002
3.263018e+003,6.492013e-002
3.264947e+003,6.487740e-002
3.266875e+003,6.499740e-002
3.268803e+003,6.498694e-002
3.270732e+003,6.497026e-002
3.272660e+003,6.507026e-002
3.274589e+003,6.507535e-002
3.276518e+003,6.501279e-002
3.278446e+003,6.496197e-002
3.280375e+003,6.494115e-002
3.282303e+003,6.501669e-002
3.284231e+003,6.502280e-002
3.286160e+003,6.500068e-002
3.288088e+003,6.501850e-002
3.290017e+003,6.505945e-002
3.291946e+003,6.504828e-002
3.293874e+003,6.497909e-002
3.295802e+003,6.494484e-002
3.297731e+003,6.499824e-002
3.299659e+003,6.500210e-002
3.301588e+003,6.487400e-002
3.303516e+003,6.489053e-002
3.305445e+003,6.497139e-002
3.307374e+003,6.494406e-002
3.309302e+003,6.492116e-002
3.311230e+003,6.493476e-002
3.313159e+003,6.489533e-002
3.315087e+003,6.481139e-002
3.317016e+003,6.491298e-002
3.318944e+003,6.487197e-002
3.320873e+003,6.491316e-002
3.322802e+003,6.494486e-002
3.324730e+003,6.485169e-002
3.326658e+003,6.476036e-002
3.328587e+003,6.479988e-002
3.330515e+003,6.485202e-002
3.332444e+003,6.482004e-002
3.334372e+003,6.477123e-002
3.336301e+003,6.475966e-002
3.338229e+003,6.471453e-002
3.340158e+003,6.473503e-002
3.342086e+003,6.468783e-002
3.344015e+003,6.465047e-002
3.345943e+003,6.459280e-002
3.347872e+003,6.450904e-002
3.349800e+003,6.436026e-002
3.351729e+003,6.432609e-002
3.353657e+003,6.427936e-002
3.355586e+003,6.425507e-002
3.357514e+003,6.418863e-002
3.359443e+003,6.410104e-002
3.361371e+003,6.399529e-002
3.363300e+003,6.393613e-002
3.365229e+003,6.388173e-002
3.367157e+003,6.383515e-002
3.369085e+003,6.371652e-002
3.371014e+003,6.364340e-002
3.372942e+003,6.359702e-002
3.374871e+003,6.348134e-002
3.376799e+003,6.345849e-002
3.378728e+003,6.347284e-002
3.380656e+003,6.340615e-002
3.382585e+003,6.324527e-002
3.384513e+003,6.317173e-002
3.386442e+003,6.313919e-002
3.388370e+003,6.311872e-002
3.390299e+003,6.299533e-002
3.392227e+003,6.287270e-002
3.394156e+003,6.285152e-002
3.396084e+003,6.275729e-002
3.398013e+003,6.272619e-002
3.399941e+003,6.263472e-002
3.401870e+003,6.255530e-002
3.403798e+003,6.250897e-002
3.405727e+003,6.239241e-002
3.407655e+003,6.225461e-002
3.409584e+003,6.209539e-002
3.411512e+003,6.198813e-002
3.413441e+003,6.190792e-002
3.415369e+003,6.173509e-002
3.417298e+003,6.171270e-002
3.419226e+003,6.172718e-002
3.421155e+003,6.166088e-002
3.423083e+003,6.147568e-002
3.425012e+003,6.128785e-002
3.426940e+003,6.121480e-002
3.428869e+003,6.120922e-002
3.430797e+003,6.109194e-002
3.432726e+003,6.093110e-002
3.434654e+003,6.083339e-002
3.436583e+003,6.069703e-002
3.438511e+003,6.053085e-002
3.440440e+003,6.043928e-002
3.442368e+003,6.033212e-002
3.444297e+003,6.018242e-002
3.446225e+003,6.005898e-002
3.448154e+003,5.988950e-002
3.450082e+003,5.977060e-002
3.452011e+003,5.961341e-002
3.453939e+003,5.946642e-002
3.455868e+003,5.938890e-002
3.457796e+003,5.928974e-002
3.459725e+003,5.916419e-002
3.461653e+003,5.904137e-002
3.463582e+003,5.888598e-002
3.465510e+003,5.862854e-002
3.467439e+003,5.850111e-002
3.469367e+003,5.841903e-002
3.471296e+003,5.831976e-002
3.473224e+003,5.821604e-002
3.475153e+003,5.812946e-002
3.477081e+003,5.802207e-002
3.479010e+003,5.801643e-002
3.480938e+003,5.793470e-002
3.482867e+003,5.774136e-002
3.484795e+003,5.760037e-002
3.486724e+003,5.744848e-002
3.488652e+003,5.732378e-002
3.490581e+003,5.730569e-002
3.492509e+003,5.720125e-002
3.494438e+003,5.704743e-002
3.496366e+003,5.699938e-002
3.498295e+003,5.697656e-002
3.500223e+003,5.685620e-002
3.502152e+003,5.662061e-002
3.504080e+003,5.651595e-002
3.506009e+003,5.652188e-002
3.507937e+003,5.648503e-002
3.509866e+003,5.633016e-002
3.511794e+003,5.618745e-002
3.513723e+003,5.610319e-002
3.515651e+003,5.596849e-002
3.517580e+003,5.581466e-002
3.519508e+003,5.580088e-002
3.521437e+003,5.581525e-002
3.523365e+003,5.564551e-002
3.525294e+003,5.544956e-002
3.527222e+003,5.547550e-002
3.529151e+003,5.547304e-002
3.531079e+003,5.540520e-002
3.533008e+003,5.520047e-002
3.534936e+003,5.503777e-002
3.536865e+003,5.500430e-002
3.538793e+003,5.482364e-002
3.540722e+003,5.474228e-002
3.542650e+003,5.469254e-002
3.544579e+003,5.459598e-002
3.546507e+003,5.450179e-002
3.548436e+003,5.435927e-002
3.550364e+003,5.422825e-002
3.552293e+003,5.415546e-002
3.554221e+003,5.411522e-002
3.556150e+003,5.394675e-002
3.558078e+003,5.381399e-002
3.560007e+003,5.376410e-002
3.561935e+003,5.374133e-002
3.563864e+003,5.359928e-002
3.565792e+003,5.351763e-002
3.567721e+003,5.341940e-002
3.569649e+003,5.323593e-002
3.571578e+003,5.307093e-002
3.573506e+003,5.295852e-002
3.575435e+003,5.283502e-002
3.577363e+003,5.269913e-002
3.579292e+003,5.252968e-002
3.581220e+003,5.242780e-002
3.583149e+003,5.234743e-002
3.585077e+003,5.213715e-002
3.587006e+003,5.183321e-002
3.588934e+003,5.159124e-002
3.590863e+003,5.132037e-002
3.592791e+003,5.115492e-002
3.594720e+003,5.100257e-002
3.596648e+003,5.080423e-002
3.598577e+003,5.074660e-002
3.600505e+003,5.075711e-002
3.602434e+003,5.075749e-002
3.604362e+003,5.082155e-002
3.606291e+003,5.097096e-002
3.608219e+003,5.115941e-002
3.610148e+003,5.129035e-002
3.612076e+003,5.148683e-002
3.614005e+003,5.138692e-002
3.615933e+003,5.098014e-002
3.617862e+003,5.059433e-002
3.619790e+003,5.016462e-002
3.621719e+003,4.984605e-002
3.623647e+003,4.959176e-002
3.625576e+003,4.952317e-002
3.627504e+003,4.966274e-002
3.629433e+003,4.968359e-002
3.631361e+003,4.972683e-002
3.633290e+003,4.999201e-002
3.635218e+003,5.019691e-002
3.637146e+003,5.031963e-002
3.639075e+003,5.051582e-002
3.641004e+003,5.061604e-002
3.642932e+003,5.074309e-002
3.644861e+003,5.087412e-002
3.646789e+003,5.092201e-002
3.648718e+003,5.092416e-002
3.650646e+003,5.082088e-002
3.652574e+003,5.075756e-002
3.654503e+003,5.081923e-002
3.656432e+003,5.076578e-002
3.658360e+003,5.072547e-002
3.660289e+003,5.060665e-002
3.662217e+003,5.058591e-002
3.664146e+003,5.057682e-002
3.666074e+003,5.047902e-002
3.668002e+003,5.051570e-002
3.669931e+003,5.044535e-002
3.671860e+003,5.029982e-002
3.673788e+003,5.028220e-002
3.675717e+003,5.013437e-002
3.677645e+003,5.002980e-002
3.679573e+003,4.991104e-002
3.681502e+003,4.975008e-002
3.683430e+003,4.969243e-002
3.685359e+003,4.970150e-002
3.687288e+003,4.944276e-002
3.689216e+003,4.912472e-002
3.691145e+003,4.909865e-002
3.693073e+003,4.889917e-002
3.695001e+003,4.854751e-002
3.696930e+003,4.836918e-002
3.698858e+003,4.820397e-002
3.700787e+003,4.810544e-002
3.702716e+003,4.803653e-002
3.704644e+003,4.810822e-002
3.706573e+003,4.814288e-002
3.708501e+003,4.833184e-002
3.710429e+003,4.871017e-002
3.712358e+003,4.913454e-002
3.714286e+003,4.947803e-002
3.716215e+003,4.927948e-002
3.718144e+003,4.876326e-002
3.720072e+003,4.814247e-002
3.722000e+003,4.769400e-002
3.723929e+003,4.733702e-002
3.725857e+003,4.711784e-002
3.727786e+003,4.698575e-002
3.729714e+003,4.707342e-002
3.731643e+003,4.720783e-002
3.733572e+003,4.746384e-002
3.735500e+003,4.787169e-002
3.737428e+003,4.824461e-002
3.739357e+003,4.860981e-002
3.741285e+003,4.888095e-002
3.743214e+003,4.910576e-002
3.745142e+003,4.933210e-002
3.747071e+003,4.954558e-002
3.749000e+003,4.964616e-002
3.750928e+003,4.964803e-002
3.752856e+003,4.976479e-002
3.754785e+003,4.982647e-002
3.756713e+003,4.977367e-002
3.758642e+003,4.987265e-002
3.760570e+003,4.988851e-002
3.762499e+003,4.978804e-002
3.764427e+003,4.975058e-002
3.766356e+003,4.968665e-002
3.768284e+003,4.974707e-002
3.770213e+003,4.969545e-002
3.772141e+003,4.962130e-002
3.774070e+003,4.964860e-002
3.775998e+003,4.959268e-002
3.777927e+003,4.962460e-002
3.779855e+003,4.963761e-002
3.781784e+003,4.967730e-002
3.783712e+003,4.964520e-002
3.785641e+003,4.959543e-002
3.787569e+003,4.959686e-002
3.789498e+003,4.959661e-002
3.791426e+003,4.966195e-002
3.793355e+003,4.965822e-002
3.795283e+003,4.959038e-002
3.797212e+003,4.953906e-002
3.799140e+003,4.958647e-002
3.801069e+003,4.959826e-002
3.802997e+003,4.953372e-002
3.804926e+003,4.950744e-002
3.806854e+003,4.952417e-002
3.808783e+003,4.951448e-002
3.810711e+003,4.949966e-002
3.812640e+003,4.954313e-002
3.814568e+003,4.952716e-002
3.816497e+003,4.939635e-002
3.818425e+003,4.942125e-002
3.820354e+003,4.946296e-002
3.822282e+003,4.942843e-002
3.824211e+003,4.945097e-002
3.826139e+003,4.946370e-002
3.828068e+003,4.942510e-002
3.829996e+003,4.931400e-002
3.831925e+003,4.932074e-002
3.833853e+003,4.941661e-002
3.835782e+003,4.939731e-002
3.837710e+003,4.927353e-002
3.839639e+003,4.920214e-002
3.841567e+003,4.916213e-002
3.843496e+003,4.915540e-002
3.845424e+003,4.914339e-002
3.847353e+003,4.917890e-002
3.849281e+003,4.914389e-002
3.851210e+003,4.917876e-002
3.853138e+003,4.911723e-002
3.855067e+003,4.908343e-002
3.856995e+003,4.910298e-002
3.858924e+003,4.910396e-002
3.860852e+003,4.903255e-002
3.862781e+003,4.905182e-002
3.864709e+003,4.904958e-002
3.866638e+003,4.907881e-002
3.868566e+003,4.909052e-002
3.870495e+003,4.899286e-002
3.872423e+003,4.897874e-002
3.874352e+003,4.890753e-002
3.876280e+003,4.886985e-002
3.878209e+003,4.897361e-002
3.880137e+003,4.898381e-002
3.882066e+003,4.891860e-002
3.883994e+003,4.885340e-002
3.885923e+003,4.876637e-002
3.887851e+003,4.878470e-002
3.889780e+003,4.884117e-002
3.891708e+003,4.881784e-002
3.893637e+003,4.876744e-002
3.895565e+003,4.877971e-002
3.897494e+003,4.874758e-002
3.899422e+003,4.869149e-002
3.901351e+003,4.879929e-002
3.903279e+003,4.877128e-002
3.905208e+003,4.862152e-002
3.907136e+003,4.853998e-002
3.909065e+003,4.853711e-002
3.910993e+003,4.851886e-002
3.912922e+003,4.844731e-002
3.914850e+003,4.848234e-002
3.916779e+003,4.846444e-002
3.918707e+003,4.838468e-002
3.920636e+003,4.841024e-002
3.922564e+003,4.846930e-002
3.924493e+003,4.846373e-002
3.926421e+003,4.841552e-002
3.928350e+003,4.835422e-002
3.930278e+003,4.835504e-002
3.932207e+003,4.833855e-002
3.934135e+003,4.832034e-002
3.936064e+003,4.831598e-002
3.937992e+003,4.827845e-002
3.939921e+003,4.815918e-002
3.941849e+003,4.815823e-002
3.943778e+003,4.816077e-002
3.945706e+003,4.815821e-002
3.947635e+003,4.810509e-002
3.949563e+003,4.803058e-002
3.951492e+003,4.793421e-002
3.953420e+003,4.799142e-002
3.955349e+003,4.804455e-002
3.957277e+003,4.793673e-002
3.959206e+003,4.791929e-002
3.961134e+003,4.802384e-002
3.963063e+003,4.805603e-002
3.964991e+003,4.792923e-002
3.966920e+003,4.786763e-002
3.968848e+003,4.792143e-002
3.970777e+003,4.791306e-002
3.972705e+003,4.785770e-002
3.974634e+003,4.783350e-002
3.976562e+003,4.782768e-002
3.978491e+003,4.772720e-002
3.980419e+003,4.769717e-002
3.982348e+003,4.768157e-002
3.984276e+003,4.764005e-002
3.986205e+003,4.757710e-002
3.988133e+003,4.756697e-002
3.990062e+003,4.755988e-002
3.991990e+003,4.760442e-002
3.993919e+003,4.762962e-002
3.995847e+003,4.758298e-002
3.997776e+003,4.757166e-002
3.999704e+003,4.757198e-002
4.001633e+003,0.000000e+000
