3.991989e+002,4.728907e-002
4.011274e+002,4.694989e-002
4.030559e+002,4.694989e-002
4.049844e+002,4.685067e-002
4.069129e+002,4.586545e-002
4.088414e+002,4.505334e-002
4.107699e+002,4.613096e-002
4.126984e+002,4.671274e-002
4.146269e+002,4.656963e-002
4.165554e+002,4.797253e-002
4.184839e+002,4.854229e-002
4.204124e+002,4.871951e-002
4.223409e+002,4.802820e-002
4.242694e+002,4.774918e-002
4.261979e+002,4.757676e-002
4.281264e+002,4.806755e-002
4.300549e+002,4.907960e-002
4.319834e+002,4.961259e-002
4.339119e+002,4.961617e-002
4.358404e+002,4.975847e-002
4.377689e+002,4.967057e-002
4.396974e+002,4.989098e-002
4.416259e+002,4.989614e-002
4.435544e+002,4.975976e-002
4.454829e+002,4.980519e-002
4.474114e+002,5.105899e-002
4.493399e+002,5.107890e-002
4.512684e+002,5.072615e-002
4.531969e+002,5.070453e-002
4.551254e+002,5.068102e-002
4.570539e+002,5.086338e-002
4.589824e+002,5.115262e-002
4.609109e+002,5.066571e-002
4.628394e+002,5.037674e-002
4.647679e+002,5.053140e-002
4.666964e+002,5.050385e-002
4.686249e+002,4.981522e-002
4.705533e+002,4.930093e-002
4.724819e+002,4.784878e-002
4.744103e+002,4.744377e-002
4.763389e+002,4.709366e-002
4.782673e+002,4.663528e-002
4.801959e+002,4.599807e-002
4.821243e+002,4.514083e-002
4.840529e+002,4.392602e-002
4.859813e+002,4.302470e-002
4.879099e+002,4.263824e-002
4.898383e+002,4.213672e-002
4.917668e+002,4.101005e-002
4.936953e+002,4.035183e-002
4.956238e+002,4.002381e-002
4.975523e+002,3.950112e-002
4.994808e+002,3.906250e-002
5.014093e+002,3.883427e-002
5.033378e+002,3.889963e-002
5.052663e+002,3.876538e-002
5.071948e+002,3.824299e-002
5.091233e+002,3.811670e-002
5.110518e+002,3.832877e-002
5.129803e+002,3.896880e-002
5.149088e+002,3.891333e-002
5.168373e+002,3.908531e-002
5.187658e+002,3.889958e-002
5.206943e+002,3.947854e-002
5.226228e+002,3.939524e-002
5.245513e+002,3.923480e-002
5.264798e+002,3.926104e-002
5.284083e+002,3.906634e-002
5.303368e+002,3.860571e-002
5.322653e+002,3.855408e-002
5.341938e+002,3.839164e-002
5.361223e+002,3.831839e-002
5.380508e+002,3.787501e-002
5.399792e+002,3.768374e-002
5.419078e+002,3.748259e-002
5.438363e+002,3.765559e-002
5.457648e+002,3.763956e-002
5.476932e+002,3.778811e-002
5.496218e+002,3.769155e-002
5.515503e+002,3.796034e-002
5.534788e+002,3.830516e-002
5.554072e+002,3.852814e-002
5.573358e+002,3.873252e-002
5.592643e+002,3.910891e-002
5.611927e+002,3.919712e-002
5.631212e+002,3.858079e-002
5.650497e+002,3.823115e-002
5.669783e+002,3.807906e-002
5.689067e+002,3.756280e-002
5.708352e+002,3.716780e-002
5.727637e+002,3.693133e-002
5.746923e+002,3.697441e-002
5.766207e+002,3.684991e-002
5.785492e+002,3.685300e-002
5.804777e+002,3.654049e-002
5.824063e+002,3.633222e-002
5.843347e+002,3.641060e-002
5.862632e+002,3.645170e-002
5.881917e+002,3.646223e-002
5.901202e+002,3.650136e-002
5.920487e+002,3.622539e-002
5.939772e+002,3.591322e-002
5.959057e+002,3.588743e-002
5.978342e+002,3.599680e-002
5.997627e+002,3.571706e-002
6.016912e+002,3.546795e-002
6.036197e+002,3.540406e-002
6.055482e+002,3.543760e-002
6.074767e+002,3.516889e-002
6.094052e+002,3.505332e-002
6.113337e+002,3.468220e-002
6.132622e+002,3.431890e-002
6.151907e+002,3.392233e-002
6.171192e+002,3.355763e-002
6.190477e+002,3.340049e-002
6.209762e+002,3.302031e-002
6.229047e+002,3.213499e-002
6.248332e+002,3.140916e-002
6.267617e+002,3.083427e-002
6.286902e+002,3.036785e-002
6.306187e+002,3.005322e-002
6.325472e+002,2.995230e-002
6.344756e+002,2.966850e-002
6.364042e+002,2.955716e-002
6.383326e+002,2.935634e-002
6.402612e+002,2.906145e-002
6.421896e+002,2.877344e-002
6.441182e+002,2.874739e-002
6.460466e+002,2.853103e-002
6.479752e+002,2.849085e-002
6.499036e+002,2.814597e-002
6.518322e+002,2.821798e-002
6.537606e+002,2.805980e-002
6.556891e+002,2.807340e-002
6.576177e+002,2.801459e-002
6.595461e+002,2.800378e-002
6.614746e+002,2.802981e-002
6.634031e+002,2.824259e-002
6.653317e+002,2.800037e-002
6.672601e+002,2.791196e-002
6.691886e+002,2.787907e-002
6.711171e+002,2.772142e-002
6.730457e+002,2.738370e-002
6.749741e+002,2.673684e-002
6.769026e+002,2.591599e-002
6.788311e+002,2.558305e-002
6.807596e+002,2.504802e-002
6.826881e+002,2.445609e-002
6.846166e+002,2.401989e-002
6.865451e+002,2.374094e-002
6.884736e+002,2.333318e-002
6.904021e+002,2.310633e-002
6.923306e+002,2.285308e-002
6.942591e+002,2.270200e-002
6.961876e+002,2.271518e-002
6.981161e+002,2.264333e-002
7.000446e+002,2.244563e-002
7.019731e+002,2.230202e-002
7.039016e+002,2.216898e-002
7.058301e+002,2.204968e-002
7.077585e+002,2.178008e-002
7.096871e+002,2.170381e-002
7.116156e+002,2.152041e-002
7.135441e+002,2.132872e-002
7.154725e+002,2.116270e-002
7.174011e+002,2.103684e-002
7.193296e+002,2.060538e-002
7.212581e+002,2.059105e-002
7.231865e+002,2.055057e-002
7.251151e+002,2.041353e-002
7.270436e+002,2.018802e-002
7.289720e+002,1.999010e-002
7.309005e+002,1.977528e-002
7.328290e+002,1.971972e-002
7.347576e+002,1.958091e-002
7.366860e+002,1.947884e-002
7.386145e+002,1.927362e-002
7.405430e+002,1.906905e-002
7.424716e+002,1.891197e-002
7.444000e+002,1.881100e-002
7.463285e+002,1.851176e-002
7.482570e+002,1.842278e-002
7.501855e+002,1.833528e-002
7.521140e+002,1.823785e-002
7.540425e+002,1.802109e-002
7.559710e+002,1.780477e-002
7.578995e+002,1.766274e-002
7.598280e+002,1.755851e-002
7.617565e+002,1.743011e-002
7.636850e+002,1.744015e-002
7.656135e+002,1.734165e-002
7.675420e+002,1.729527e-002
7.694705e+002,1.726517e-002
7.713990e+002,1.722294e-002
7.733275e+002,1.731420e-002
7.752560e+002,1.748213e-002
7.771844e+002,1.744001e-002
7.791130e+002,1.746105e-002
7.810415e+002,1.746088e-002
7.829700e+002,1.751586e-002
7.848984e+002,1.747816e-002
7.868270e+002,1.747481e-002
7.887555e+002,1.742201e-002
7.906840e+002,1.754474e-002
7.926124e+002,1.757897e-002
7.945410e+002,1.763155e-002
7.964695e+002,1.766703e-002
7.983979e+002,1.760891e-002
8.003264e+002,1.748416e-002
8.022549e+002,1.757041e-002
8.041835e+002,1.743539e-002
8.061119e+002,1.733007e-002
8.080404e+002,1.728531e-002
8.099689e+002,1.731013e-002
8.118975e+002,1.716082e-002
8.138259e+002,1.695609e-002
8.157545e+002,1.666133e-002
8.176830e+002,1.657021e-002
8.196115e+002,1.651180e-002
8.215399e+002,1.632409e-002
8.234684e+002,1.615716e-002
8.253970e+002,1.630902e-002
8.273254e+002,1.630616e-002
8.292539e+002,1.633114e-002
8.311824e+002,1.635622e-002
8.331110e+002,1.643416e-002
8.350394e+002,1.635478e-002
8.369679e+002,1.627097e-002
8.388964e+002,1.617583e-002
8.408250e+002,1.599425e-002
8.427534e+002,1.583079e-002
8.446819e+002,1.579831e-002
8.466104e+002,1.571774e-002
8.485389e+002,1.562561e-002
8.504674e+002,1.546767e-002
8.523959e+002,1.539664e-002
8.543244e+002,1.536880e-002
8.562529e+002,1.542884e-002
8.581814e+002,1.532359e-002
8.601099e+002,1.535074e-002
8.620384e+002,1.548028e-002
8.639669e+002,1.555850e-002
8.658954e+002,1.568617e-002
8.678239e+002,1.578113e-002
8.697524e+002,1.583202e-002
8.716809e+002,1.591196e-002
8.736094e+002,1.599085e-002
8.755378e+002,1.610052e-002
8.774664e+002,1.616596e-002
8.793949e+002,1.630678e-002
8.813234e+002,1.648963e-002
8.832518e+002,1.679401e-002
8.851804e+002,1.720956e-002
8.871089e+002,1.777926e-002
8.890374e+002,1.837571e-002
8.909658e+002,1.906457e-002
8.928943e+002,1.962693e-002
8.948229e+002,2.010021e-002
8.967513e+002,2.027116e-002
8.986798e+002,2.009084e-002
9.006083e+002,1.979447e-002
9.025369e+002,1.944297e-002
9.044653e+002,1.902012e-002
9.063938e+002,1.874323e-002
9.083223e+002,1.844115e-002
9.102509e+002,1.827589e-002
9.121793e+002,1.818498e-002
9.141078e+002,1.814224e-002
9.160364e+002,1.815637e-002
9.179648e+002,1.828066e-002
9.198933e+002,1.839365e-002
9.218218e+002,1.864496e-002
9.237504e+002,1.875797e-002
9.256788e+002,1.897276e-002
9.276073e+002,1.920197e-002
9.295358e+002,1.945842e-002
9.314644e+002,1.961757e-002
9.333928e+002,1.992235e-002
9.353213e+002,2.020968e-002
9.372498e+002,2.055416e-002
9.391783e+002,2.081684e-002
9.411068e+002,2.129308e-002
9.430353e+002,2.183175e-002
9.449637e+002,2.230970e-002
9.468923e+002,2.279014e-002
9.488208e+002,2.344148e-002
9.507493e+002,2.405539e-002
9.526777e+002,2.471867e-002
9.546063e+002,2.549026e-002
9.565348e+002,2.627481e-002
9.584633e+002,2.703192e-002
9.603917e+002,2.770051e-002
9.623203e+002,2.834965e-002
9.642488e+002,2.906604e-002
9.661772e+002,2.965720e-002
9.681057e+002,3.021612e-002
9.700343e+002,3.088455e-002
9.719628e+002,3.170624e-002
9.738912e+002,3.249536e-002
9.758197e+002,3.326470e-002
9.777483e+002,3.409636e-002
9.796768e+002,3.526582e-002
9.816052e+002,3.653586e-002
9.835337e+002,3.784912e-002
9.854623e+002,3.899352e-002
9.873907e+002,3.994207e-002
9.893192e+002,4.070406e-002
9.912477e+002,4.124384e-002
9.931763e+002,4.151066e-002
9.951047e+002,4.167289e-002
9.970332e+002,4.192986e-002
9.989617e+002,4.229257e-002
1.000890e+003,4.287283e-002
1.002819e+003,4.356884e-002
1.004747e+003,4.420621e-002
1.006676e+003,4.499747e-002
1.008604e+003,4.578227e-002
1.010533e+003,4.659548e-002
1.012461e+003,4.754333e-002
1.014390e+003,4.861192e-002
1.016318e+003,4.967093e-002
1.018247e+003,5.090476e-002
1.020175e+003,5.222842e-002
1.022104e+003,5.358206e-002
1.024032e+003,5.495062e-002
1.025961e+003,5.649086e-002
1.027889e+003,5.811435e-002
1.029818e+003,5.965224e-002
1.031746e+003,6.097617e-002
1.033675e+003,6.198505e-002
1.035603e+003,6.252784e-002
1.037532e+003,6.245862e-002
1.039460e+003,6.195065e-002
1.041389e+003,6.142476e-002
1.043317e+003,6.093904e-002
1.045246e+003,6.056530e-002
1.047174e+003,6.036692e-002
1.049103e+003,6.024183e-002
1.051031e+003,6.012952e-002
1.052960e+003,5.991350e-002
1.054888e+003,5.944903e-002
1.056817e+003,5.873004e-002
1.058745e+003,5.790081e-002
1.060674e+003,5.696336e-002
1.062602e+003,5.575882e-002
1.064531e+003,5.435629e-002
1.066459e+003,5.297714e-002
1.068388e+003,5.168419e-002
1.070316e+003,5.046613e-002
1.072245e+003,4.942775e-002
1.074173e+003,4.841778e-002
1.076102e+003,4.741843e-002
1.078030e+003,4.641957e-002
1.079959e+003,4.534005e-002
1.081887e+003,4.422190e-002
1.083816e+003,4.340005e-002
1.085744e+003,4.279267e-002
1.087673e+003,4.222128e-002
1.089601e+003,4.171753e-002
1.091530e+003,4.122536e-002
1.093458e+003,4.061797e-002
1.095387e+003,4.022111e-002
1.097315e+003,3.996630e-002
1.099244e+003,3.971655e-002
1.101172e+003,3.951059e-002
1.103101e+003,3.934053e-002
1.105029e+003,3.912047e-002
1.106958e+003,3.875555e-002
1.108886e+003,3.809596e-002
1.110815e+003,3.727123e-002
1.112743e+003,3.624387e-002
1.114672e+003,3.508082e-002
1.116600e+003,3.392114e-002
1.118529e+003,3.280788e-002
1.120457e+003,3.175768e-002
1.122386e+003,3.073106e-002
1.124314e+003,2.960853e-002
1.126243e+003,2.841590e-002
1.128171e+003,2.716710e-002
1.130100e+003,2.594327e-002
1.132028e+003,2.473607e-002
1.133957e+003,2.364031e-002
1.135885e+003,2.266015e-002
1.137814e+003,2.186893e-002
1.139742e+003,2.135875e-002
1.141671e+003,2.112580e-002
1.143599e+003,2.102569e-002
1.145528e+003,2.107223e-002
1.147456e+003,2.125953e-002
1.149385e+003,2.156648e-002
1.151313e+003,2.194177e-002
1.153242e+003,2.244276e-002
1.155170e+003,2.300348e-002
1.157099e+003,2.347586e-002
1.159027e+003,2.380898e-002
1.160956e+003,2.394694e-002
1.162884e+003,2.375788e-002
1.164813e+003,2.320203e-002
1.166741e+003,2.235554e-002
1.168670e+003,2.127143e-002
1.170598e+003,2.001078e-002
1.172526e+003,1.877634e-002
1.174455e+003,1.760753e-002
1.176384e+003,1.656136e-002
1.178312e+003,1.563114e-002
1.180240e+003,1.488412e-002
1.182169e+003,1.425489e-002
1.184098e+003,1.380272e-002
1.186026e+003,1.343877e-002
1.187954e+003,1.318237e-002
1.189883e+003,1.306385e-002
1.191812e+003,1.310116e-002
1.193740e+003,1.325301e-002
1.195668e+003,1.351377e-002
1.197597e+003,1.380847e-002
1.199526e+003,1.408731e-002
1.201454e+003,1.425820e-002
1.203382e+003,1.429335e-002
1.205311e+003,1.428739e-002
1.207240e+003,1.421052e-002
1.209168e+003,1.407336e-002
1.211096e+003,1.400117e-002
1.213025e+003,1.403868e-002
1.214953e+003,1.417367e-002
1.216882e+003,1.426099e-002
1.218810e+003,1.437512e-002
1.220739e+003,1.454497e-002
1.222667e+003,1.476977e-002
1.224596e+003,1.499143e-002
1.226524e+003,1.525092e-002
1.228453e+003,1.546832e-002
1.230381e+003,1.562743e-002
1.232310e+003,1.578261e-002
1.234238e+003,1.592819e-002
1.236167e+003,1.596214e-002
1.238095e+003,1.591690e-002
1.240024e+003,1.583016e-002
1.241952e+003,1.572659e-002
1.243881e+003,1.555758e-002
1.245809e+003,1.533902e-002
1.247738e+003,1.510639e-002
1.249666e+003,1.482187e-002
1.251595e+003,1.452209e-002
1.253523e+003,1.426410e-002
1.255452e+003,1.396228e-002
1.257380e+003,1.365004e-002
1.259309e+003,1.324695e-002
1.261237e+003,1.283898e-002
1.263166e+003,1.243795e-002
1.265094e+003,1.210639e-002
1.267023e+003,1.175635e-002
1.268951e+003,1.137779e-002
1.270880e+003,1.102399e-002
1.272808e+003,1.075550e-002
1.274737e+003,1.050064e-002
1.276665e+003,1.026756e-002
1.278594e+003,1.014451e-002
1.280522e+003,1.008647e-002
1.282451e+003,1.005745e-002
1.284379e+003,1.003812e-002
1.286308e+003,1.000169e-002
1.288236e+003,9.994428e-003
1.290165e+003,1.002731e-002
1.292093e+003,1.011970e-002
1.294022e+003,1.023085e-002
1.295950e+003,1.035373e-002
1.297879e+003,1.048599e-002
1.299807e+003,1.072453e-002
1.301736e+003,1.099342e-002
1.303664e+003,1.125005e-002
1.305593e+003,1.156249e-002
1.307521e+003,1.187635e-002
1.309450e+003,1.211904e-002
1.311378e+003,1.235466e-002
1.313307e+003,1.255998e-002
1.315235e+003,1.274809e-002
1.317164e+003,1.282418e-002
1.319092e+003,1.285288e-002
1.321021e+003,1.281171e-002
1.322949e+003,1.271059e-002
1.324878e+003,1.260723e-002
1.326806e+003,1.251499e-002
1.328735e+003,1.243285e-002
1.330663e+003,1.240519e-002
1.332592e+003,1.233561e-002
1.334520e+003,1.229018e-002
1.336449e+003,1.216837e-002
1.338377e+003,1.201593e-002
1.340306e+003,1.183389e-002
1.342234e+003,1.169715e-002
1.344163e+003,1.157007e-002
1.346091e+003,1.154417e-002
1.348020e+003,1.153067e-002
1.349948e+003,1.157101e-002
1.351877e+003,1.166514e-002
1.353805e+003,1.173585e-002
1.355734e+003,1.182388e-002
1.357662e+003,1.185954e-002
1.359591e+003,1.185791e-002
1.361519e+003,1.193422e-002
1.363448e+003,1.204358e-002
1.365376e+003,1.218797e-002
1.367305e+003,1.232751e-002
1.369233e+003,1.241757e-002
1.371162e+003,1.237876e-002
1.373090e+003,1.222115e-002
1.375019e+003,1.198761e-002
1.376947e+003,1.162715e-002
1.378876e+003,1.127595e-002
1.380804e+003,1.093376e-002
1.382733e+003,1.054549e-002
1.384661e+003,1.025669e-002
1.386590e+003,1.006888e-002
1.388518e+003,9.986891e-003
1.390447e+003,1.004049e-002
1.392375e+003,1.008783e-002
1.394304e+003,1.005844e-002
1.396232e+003,1.000859e-002
1.398161e+003,9.980889e-003
1.400089e+003,9.971626e-003
1.402018e+003,9.917306e-003
1.403946e+003,9.904718e-003
1.405875e+003,9.933872e-003
1.407803e+003,1.000699e-002
1.409732e+003,1.008357e-002
1.411660e+003,1.010615e-002
1.413589e+003,1.017579e-002
1.415517e+003,1.034132e-002
1.417446e+003,1.050503e-002
1.419374e+003,1.073863e-002
1.421303e+003,1.096278e-002
1.423231e+003,1.111773e-002
1.425160e+003,1.114310e-002
1.427088e+003,1.105995e-002
1.429017e+003,1.088297e-002
1.430945e+003,1.068123e-002
1.432874e+003,1.044592e-002
1.434802e+003,1.020749e-002
1.436731e+003,9.921893e-003
1.438659e+003,9.705317e-003
1.440588e+003,9.520248e-003
1.442516e+003,9.360178e-003
1.444445e+003,9.221090e-003
1.446373e+003,9.149797e-003
1.448302e+003,9.117589e-003
1.450230e+003,9.016157e-003
1.452159e+003,8.864219e-003
1.454087e+003,8.688004e-003
1.456016e+003,8.504986e-003
1.457944e+003,8.354872e-003
1.459873e+003,8.273718e-003
1.461801e+003,8.243281e-003
1.463730e+003,8.165960e-003
1.465658e+003,8.015653e-003
1.467587e+003,7.951331e-003
1.469515e+003,8.000972e-003
1.471444e+003,8.127691e-003
1.473372e+003,8.234064e-003
1.475301e+003,8.317986e-003
1.477229e+003,8.376664e-003
1.479158e+003,8.365053e-003
1.481086e+003,8.332236e-003
1.483015e+003,8.367882e-003
1.484943e+003,8.442593e-003
1.486872e+003,8.508102e-003
1.488800e+003,8.575344e-003
1.490729e+003,8.671275e-003
1.492657e+003,8.751134e-003
1.494586e+003,8.793128e-003
1.496514e+003,8.881179e-003
1.498443e+003,9.015058e-003
1.500371e+003,9.212420e-003
1.502300e+003,9.409681e-003
1.504228e+003,9.603397e-003
1.506157e+003,9.714247e-003
1.508085e+003,9.815158e-003
1.510014e+003,9.982416e-003
1.511942e+003,1.016310e-002
1.513871e+003,1.030293e-002
1.515799e+003,1.028068e-002
1.517728e+003,1.009008e-002
1.519656e+003,9.864313e-003
1.521585e+003,9.640905e-003
1.523513e+003,9.504235e-003
1.525442e+003,9.386133e-003
1.527370e+003,9.281327e-003
1.529299e+003,9.262902e-003
1.531227e+003,9.224513e-003
1.533156e+003,9.168368e-003
1.535084e+003,9.176998e-003
1.537013e+003,9.167979e-003
1.538941e+003,9.186779e-003
1.540870e+003,9.174442e-003
1.542798e+003,9.163648e-003
1.544727e+003,9.111452e-003
1.546655e+003,9.087746e-003
1.548584e+003,9.044247e-003
1.550512e+003,8.991214e-003
1.552441e+003,8.940693e-003
1.554369e+003,8.912508e-003
1.556298e+003,8.865173e-003
1.558226e+003,8.797300e-003
1.560155e+003,8.795370e-003
1.562083e+003,8.801891e-003
1.564012e+003,8.743460e-003
1.565940e+003,8.756842e-003
1.567869e+003,8.800666e-003
1.569797e+003,8.821770e-003
1.571726e+003,8.892928e-003
1.573654e+003,8.967432e-003
1.575583e+003,9.094750e-003
1.577511e+003,9.177379e-003
1.579440e+003,9.268708e-003
1.581368e+003,9.431055e-003
1.583297e+003,9.569426e-003
1.585225e+003,9.756604e-003
1.587154e+003,9.906599e-003
1.589082e+003,1.001713e-002
1.591010e+003,1.011332e-002
1.592939e+003,1.022967e-002
1.594868e+003,1.029217e-002
1.596796e+003,1.035450e-002
1.598724e+003,1.039046e-002
1.600653e+003,1.045376e-002
1.602582e+003,1.051677e-002
1.604510e+003,1.050252e-002
1.606438e+003,1.039575e-002
1.608367e+003,1.025160e-002
1.610296e+003,1.011612e-002
1.612224e+003,1.014486e-002
1.614152e+003,1.023951e-002
1.616081e+003,1.037563e-002
1.618010e+003,1.053629e-002
1.619938e+003,1.068294e-002
1.621866e+003,1.081477e-002
1.623795e+003,1.097572e-002
1.625724e+003,1.109025e-002
1.627652e+003,1.114743e-002
1.629580e+003,1.119735e-002
1.631509e+003,1.117603e-002
1.633438e+003,1.106927e-002
1.635366e+003,1.097252e-002
1.637294e+003,1.083809e-002
1.639223e+003,1.072382e-002
1.641151e+003,1.062844e-002
1.643080e+003,1.053793e-002
1.645008e+003,1.044323e-002
1.646937e+003,1.032872e-002
1.648865e+003,1.029172e-002
1.650794e+003,1.028385e-002
1.652722e+003,1.021653e-002
1.654651e+003,1.007474e-002
1.656579e+003,9.870246e-003
1.658508e+003,9.676631e-003
1.660436e+003,9.438642e-003
1.662365e+003,9.192704e-003
1.664293e+003,8.929567e-003
1.666222e+003,8.715240e-003
1.668150e+003,8.445233e-003
1.670079e+003,8.149019e-003
1.672007e+003,7.868407e-003
1.673936e+003,7.561301e-003
1.675864e+003,7.241989e-003
1.677793e+003,6.963234e-003
1.679721e+003,6.589138e-003
1.681650e+003,6.179722e-003
1.683578e+003,5.768452e-003
1.685507e+003,5.326281e-003
1.687435e+003,4.797848e-003
1.689364e+003,4.303780e-003
1.691292e+003,3.911836e-003
1.693221e+003,3.717698e-003
1.695149e+003,3.687582e-003
1.697078e+003,3.765482e-003
1.699006e+003,3.843462e-003
1.700935e+003,3.929622e-003
1.702863e+003,3.961815e-003
1.704792e+003,3.970808e-003
1.706720e+003,3.977648e-003
1.708649e+003,3.977303e-003
1.710577e+003,3.962337e-003
1.712506e+003,3.932069e-003
1.714434e+003,3.858899e-003
1.716363e+003,3.817805e-003
1.718291e+003,3.755655e-003
1.720220e+003,3.659991e-003
1.722148e+003,3.644843e-003
1.724077e+003,3.577925e-003
1.726005e+003,3.492015e-003
1.727934e+003,3.357555e-003
1.729862e+003,3.149739e-003
1.731791e+003,2.881613e-003
1.733719e+003,2.528876e-003
1.735648e+003,2.194833e-003
1.737576e+003,1.861736e-003
1.739505e+003,1.532714e-003
1.741433e+003,1.368598e-003
1.743362e+003,1.399000e-003
1.745290e+003,1.578258e-003
1.747219e+003,1.979213e-003
1.749147e+003,2.531633e-003
1.751076e+003,3.163010e-003
1.753004e+003,3.820931e-003
1.754933e+003,4.400879e-003
1.756861e+003,4.864293e-003
1.758790e+003,5.240818e-003
1.760718e+003,5.503850e-003
1.762647e+003,5.646744e-003
1.764575e+003,5.724503e-003
1.766504e+003,5.804489e-003
1.768432e+003,5.791306e-003
1.770361e+003,5.789656e-003
1.772289e+003,5.904316e-003
1.774218e+003,5.989375e-003
1.776146e+003,5.974766e-003
1.778075e+003,5.976867e-003
1.780003e+003,6.001392e-003
1.781932e+003,6.013458e-003
1.783860e+003,6.018236e-003
1.785789e+003,6.057891e-003
1.787717e+003,6.033696e-003
1.789646e+003,6.037146e-003
1.791574e+003,6.047543e-003
1.793503e+003,6.095459e-003
1.795431e+003,6.147603e-003
1.797360e+003,6.153253e-003
1.799288e+003,6.240056e-003
1.801217e+003,6.331990e-003
1.803145e+003,6.342450e-003
1.805074e+003,6.308767e-003
1.807002e+003,6.274883e-003
1.808931e+003,6.257230e-003
1.810859e+003,6.222094e-003
1.812788e+003,6.239364e-003
1.814716e+003,6.297723e-003
1.816645e+003,6.357858e-003
1.818573e+003,6.420611e-003
1.820502e+003,6.422920e-003
1.822430e+003,6.356985e-003
1.824359e+003,6.349158e-003
1.826287e+003,6.406397e-003
1.828216e+003,6.387332e-003
1.830144e+003,6.353545e-003
1.832073e+003,6.423925e-003
1.834001e+003,6.465834e-003
1.835930e+003,6.404045e-003
1.837858e+003,6.407418e-003
1.839787e+003,6.395292e-003
1.841715e+003,6.427117e-003
1.843644e+003,6.512549e-003
1.845572e+003,6.414321e-003
1.847501e+003,6.409058e-003
1.849429e+003,6.541698e-003
1.851358e+003,6.637092e-003
1.853286e+003,6.523029e-003
1.855215e+003,6.482016e-003
1.857143e+003,6.479046e-003
1.859072e+003,6.486125e-003
1.861000e+003,6.619113e-003
1.862929e+003,6.588698e-003
1.864857e+003,6.496079e-003
1.866786e+003,6.552293e-003
1.868714e+003,6.544314e-003
1.870643e+003,6.510158e-003
1.872571e+003,6.488157e-003
1.874500e+003,6.543916e-003
1.876428e+003,6.621991e-003
1.878357e+003,6.680219e-003
1.880285e+003,6.658145e-003
1.882214e+003,6.701520e-003
1.884142e+003,6.726017e-003
1.886071e+003,6.576577e-003
1.887999e+003,6.519881e-003
1.889928e+003,6.773769e-003
1.891856e+003,6.790643e-003
1.893785e+003,6.606235e-003
1.895713e+003,6.746901e-003
1.897642e+003,6.715786e-003
1.899570e+003,6.458066e-003
1.901499e+003,6.450932e-003
1.903427e+003,6.555412e-003
1.905356e+003,6.611013e-003
1.907284e+003,6.545042e-003
1.909213e+003,6.521146e-003
1.911141e+003,6.495857e-003
1.913070e+003,6.515317e-003
1.914998e+003,6.708999e-003
1.916927e+003,6.693391e-003
1.918855e+003,6.710104e-003
1.920784e+003,6.711188e-003
1.922712e+003,6.704885e-003
1.924641e+003,6.680305e-003
1.926569e+003,6.547519e-003
1.928498e+003,6.454941e-003
1.930426e+003,6.812260e-003
1.932355e+003,6.731347e-003
1.934283e+003,6.560223e-003
1.936212e+003,6.373032e-003
1.938140e+003,6.425837e-003
1.940069e+003,6.438481e-003
1.941997e+003,6.833400e-003
1.943926e+003,7.164394e-003
1.945854e+003,7.108410e-003
1.947783e+003,6.711558e-003
1.949711e+003,6.268292e-003
1.951640e+003,6.189516e-003
1.953568e+003,6.347719e-003
1.955497e+003,6.874406e-003
1.957425e+003,6.530728e-003
1.959354e+003,6.461249e-003
1.961282e+003,7.015619e-003
1.963211e+003,6.130654e-003
1.965139e+003,5.924163e-003
1.967068e+003,6.934250e-003
1.968996e+003,7.252699e-003
1.970925e+003,6.946584e-003
1.972853e+003,6.989124e-003
1.974782e+003,6.967249e-003
1.976710e+003,6.855227e-003
1.978639e+003,7.645390e-003
1.980567e+003,6.358687e-003
1.982496e+003,6.341908e-003
1.984424e+003,6.910977e-003
1.986353e+003,6.519958e-003
1.988281e+003,5.777635e-003
1.990210e+003,6.101993e-003
1.992138e+003,6.654123e-003
1.994067e+003,6.590042e-003
1.995995e+003,5.912757e-003
1.997924e+003,5.892443e-003
1.999852e+003,6.008793e-003
2.001781e+003,6.005256e-003
2.003709e+003,6.207250e-003
2.005638e+003,5.803967e-003
2.007566e+003,5.726902e-003
2.009495e+003,6.422006e-003
2.011423e+003,6.840982e-003
2.013352e+003,6.506784e-003
2.015280e+003,5.869532e-003
2.017208e+003,5.903961e-003
2.019137e+003,5.921240e-003
2.021066e+003,6.386497e-003
2.022994e+003,5.496616e-003
2.024922e+003,5.453956e-003
2.026851e+003,5.396905e-003
2.028780e+003,5.740903e-003
2.030708e+003,6.576236e-003
2.032636e+003,6.875228e-003
2.034565e+003,6.327185e-003
2.036494e+003,5.494002e-003
2.038422e+003,5.631126e-003
2.040350e+003,6.329902e-003
2.042279e+003,6.666551e-003
2.044208e+003,6.931344e-003
2.046136e+003,6.829796e-003
2.048064e+003,6.018322e-003
2.049993e+003,5.975578e-003
2.051921e+003,6.101282e-003
2.053850e+003,5.942549e-003
2.055778e+003,6.106628e-003
2.057707e+003,6.395491e-003
2.059635e+003,6.427681e-003
2.061564e+003,6.437969e-003
2.063492e+003,6.069494e-003
2.065421e+003,5.724661e-003
2.067349e+003,5.765946e-003
2.069278e+003,5.764102e-003
2.071206e+003,6.339947e-003
2.073135e+003,6.602395e-003
2.075063e+003,6.513401e-003
2.076992e+003,6.256609e-003
2.078920e+003,6.330053e-003
2.080849e+003,6.630224e-003
2.082777e+003,6.511831e-003
2.084706e+003,6.060359e-003
2.086634e+003,5.816096e-003
2.088563e+003,5.829078e-003
2.090491e+003,5.987468e-003
2.092420e+003,6.119317e-003
2.094348e+003,6.009391e-003
2.096277e+003,5.804867e-003
2.098205e+003,5.520309e-003
2.100134e+003,5.882248e-003
2.102062e+003,6.167721e-003
2.103991e+003,5.940255e-003
2.105919e+003,5.773276e-003
2.107848e+003,6.060055e-003
2.109776e+003,6.153371e-003
2.111705e+003,6.205632e-003
2.113633e+003,6.195112e-003
2.115562e+003,5.980431e-003
2.117490e+003,6.042213e-003
2.119419e+003,5.977004e-003
2.121347e+003,5.802220e-003
2.123276e+003,5.949593e-003
2.125204e+003,6.137475e-003
2.127133e+003,5.936627e-003
2.129061e+003,5.812899e-003
2.130990e+003,6.202204e-003
2.132918e+003,6.182878e-003
2.134847e+003,5.590552e-003
2.136775e+003,5.475176e-003
2.138704e+003,5.180669e-003
2.140632e+003,5.552694e-003
2.142561e+003,6.183819e-003
2.144489e+003,6.109482e-003
2.146418e+003,6.428093e-003
2.148346e+003,6.693028e-003
2.150275e+003,6.467977e-003
2.152203e+003,6.325169e-003
2.154132e+003,5.250085e-003
2.156060e+003,5.972570e-003
2.157989e+003,7.022775e-003
2.159917e+003,7.744170e-003
2.161846e+003,7.819496e-003
2.163774e+003,6.835520e-003
2.165703e+003,6.557715e-003
2.167631e+003,5.777976e-003
2.169560e+003,5.907136e-003
2.171488e+003,6.787961e-003
2.173417e+003,7.076893e-003
2.175345e+003,7.430627e-003
2.177274e+003,7.454963e-003
2.179202e+003,7.992833e-003
2.181131e+003,7.978118e-003
2.183059e+003,8.020677e-003
2.184988e+003,7.967016e-003
2.186916e+003,8.054194e-003
2.188845e+003,8.154321e-003
2.190773e+003,7.845406e-003
2.192702e+003,7.793959e-003
2.194630e+003,7.784884e-003
2.196559e+003,6.955903e-003
2.198487e+003,6.725030e-003
2.200416e+003,7.519316e-003
2.202344e+003,7.951086e-003
2.204273e+003,7.808667e-003
2.206201e+003,7.650815e-003
2.208130e+003,7.612912e-003
2.210058e+003,7.871925e-003
2.211987e+003,7.884443e-003
2.213915e+003,7.779352e-003
2.215844e+003,8.082650e-003
2.217772e+003,8.128966e-003
2.219701e+003,8.007683e-003
2.221629e+003,7.845170e-003
2.223558e+003,7.758202e-003
2.225486e+003,7.947746e-003
2.227415e+003,8.223808e-003
2.229343e+003,8.326169e-003
2.231272e+003,8.185345e-003
2.233200e+003,8.295192e-003
2.235129e+003,8.111892e-003
2.237057e+003,8.171226e-003
2.238986e+003,8.247190e-003
2.240914e+003,8.629544e-003
2.242843e+003,8.660496e-003
2.244771e+003,8.427664e-003
2.246700e+003,8.373442e-003
2.248628e+003,8.333218e-003
2.250557e+003,8.393179e-003
2.252485e+003,8.493008e-003
2.254414e+003,8.471718e-003
2.256342e+003,8.608268e-003
2.258271e+003,8.339055e-003
2.260199e+003,8.030992e-003
2.262128e+003,7.706739e-003
2.264056e+003,7.772395e-003
2.265985e+003,7.899014e-003
2.267913e+003,7.988434e-003
2.269842e+003,7.784900e-003
2.271770e+003,7.846272e-003
2.273699e+003,7.881225e-003
2.275627e+003,7.801971e-003
2.277556e+003,7.721655e-003
2.279484e+003,7.655174e-003
2.281413e+003,7.442305e-003
2.283341e+003,7.224693e-003
2.285270e+003,7.224428e-003
2.287198e+003,6.990809e-003
2.289127e+003,6.953202e-003
2.291055e+003,6.954683e-003
2.292984e+003,6.978510e-003
2.294912e+003,6.916031e-003
2.296841e+003,6.704547e-003
2.298769e+003,6.486502e-003
2.300698e+003,6.494076e-003
2.302626e+003,6.556253e-003
2.304555e+003,6.620239e-003
2.306483e+003,6.743758e-003
2.308412e+003,6.743509e-003
2.310340e+003,6.488860e-003
2.312269e+003,6.231865e-003
2.314197e+003,6.104593e-003
2.316125e+003,5.864629e-003
2.318054e+003,5.645175e-003
2.319983e+003,5.474303e-003
2.321911e+003,5.731324e-003
2.323840e+003,5.576278e-003
2.325768e+003,5.086002e-003
2.327697e+003,4.884691e-003
2.329625e+003,4.869121e-003
2.331553e+003,4.816034e-003
2.333482e+003,4.885574e-003
2.335411e+003,5.098444e-003
2.337339e+003,5.363584e-003
2.339268e+003,5.393440e-003
2.341196e+003,5.649489e-003
2.343125e+003,5.559912e-003
2.345053e+003,5.572805e-003
2.346981e+003,5.607641e-003
2.348910e+003,5.880009e-003
2.350839e+003,5.897523e-003
2.352767e+003,6.057689e-003
2.354696e+003,6.419221e-003
2.356624e+003,6.549817e-003
2.358552e+003,6.692392e-003
2.360481e+003,6.705364e-003
2.362409e+003,6.778164e-003
2.364338e+003,7.200913e-003
2.366267e+003,7.415331e-003
2.368195e+003,7.332424e-003
2.370124e+003,7.485756e-003
2.372052e+003,7.367560e-003
2.373980e+003,7.365454e-003
2.375909e+003,7.340701e-003
2.377838e+003,7.394301e-003
2.379766e+003,7.181976e-003
2.381695e+003,7.064430e-003
2.383623e+003,6.997438e-003
2.385552e+003,7.123329e-003
2.387480e+003,7.289006e-003
2.389408e+003,7.276402e-003
2.391337e+003,7.293387e-003
2.393266e+003,7.328509e-003
2.395194e+003,7.338743e-003
2.397123e+003,7.420122e-003
2.399051e+003,7.470306e-003
2.400979e+003,7.450581e-003
2.402908e+003,7.361569e-003
2.404836e+003,7.390653e-003
2.406765e+003,7.436559e-003
2.408694e+003,7.463221e-003
2.410622e+003,7.391530e-003
2.412551e+003,7.369084e-003
2.414479e+003,7.387553e-003
2.416407e+003,7.379329e-003
2.418336e+003,7.324837e-003
2.420264e+003,7.318603e-003
2.422193e+003,7.295049e-003
2.424122e+003,7.186598e-003
2.426050e+003,7.154125e-003
2.427979e+003,7.240500e-003
2.429907e+003,7.244105e-003
2.431835e+003,7.301317e-003
2.433764e+003,7.264051e-003
2.435692e+003,7.308932e-003
2.437621e+003,7.437907e-003
2.439550e+003,7.368174e-003
2.441478e+003,7.378520e-003
2.443406e+003,7.519889e-003
2.445335e+003,7.606135e-003
2.447263e+003,7.546287e-003
2.449192e+003,7.527407e-003
2.451121e+003,7.576361e-003
2.453049e+003,7.493493e-003
2.454978e+003,7.424694e-003
2.456906e+003,7.590961e-003
2.458834e+003,7.525148e-003
2.460763e+003,7.270048e-003
2.462691e+003,7.261422e-003
2.464620e+003,7.321029e-003
2.466549e+003,7.215030e-003
2.468477e+003,7.185553e-003
2.470406e+003,7.326724e-003
2.472334e+003,7.401135e-003
2.474262e+003,7.328072e-003
2.476191e+003,7.189596e-003
2.478119e+003,7.249260e-003
2.480048e+003,7.287838e-003
2.481977e+003,7.392575e-003
2.483905e+003,7.454525e-003
2.485833e+003,7.402449e-003
2.487762e+003,7.327533e-003
2.489690e+003,7.296026e-003
2.491619e+003,7.424155e-003
2.493547e+003,7.521507e-003
2.495476e+003,7.528958e-003
2.497405e+003,7.551715e-003
2.499333e+003,7.458637e-003
2.501261e+003,7.453716e-003
2.503190e+003,7.543826e-003
2.505118e+003,7.599694e-003
2.507047e+003,7.476975e-003
2.508975e+003,7.517765e-003
2.510904e+003,7.600807e-003
2.512833e+003,7.639754e-003
2.514761e+003,7.661607e-003
2.516689e+003,7.661944e-003
2.518618e+003,7.707709e-003
2.520546e+003,7.706192e-003
2.522475e+003,7.575890e-003
2.524403e+003,7.632133e-003
2.526332e+003,7.627817e-003
2.528260e+003,7.630953e-003
2.530189e+003,7.586679e-003
2.532117e+003,7.493661e-003
2.534046e+003,7.538532e-003
2.535974e+003,7.560076e-003
2.537903e+003,7.668621e-003
2.539831e+003,7.661270e-003
2.541760e+003,7.563043e-003
2.543688e+003,7.622994e-003
2.545617e+003,7.636551e-003
2.547545e+003,7.537757e-003
2.549474e+003,7.599661e-003
2.551402e+003,7.663495e-003
2.553331e+003,7.657222e-003
2.555259e+003,7.659920e-003
2.557188e+003,7.661978e-003
2.559116e+003,7.705720e-003
2.561045e+003,7.803573e-003
2.562973e+003,7.888424e-003
2.564902e+003,7.942447e-003
2.566830e+003,7.822060e-003
2.568759e+003,7.744035e-003
2.570687e+003,7.696006e-003
2.572616e+003,7.735367e-003
2.574544e+003,7.853335e-003
2.576473e+003,7.893823e-003
2.578401e+003,7.866190e-003
2.580330e+003,7.914338e-003
2.582258e+003,7.954495e-003
2.584187e+003,7.848511e-003
2.586115e+003,7.722246e-003
2.588044e+003,7.802089e-003
2.589972e+003,7.905498e-003
2.591901e+003,7.856675e-003
2.593829e+003,7.889740e-003
2.595758e+003,7.905903e-003
2.597686e+003,7.896860e-003
2.599615e+003,7.887513e-003
2.601543e+003,7.844226e-003
2.603472e+003,7.834104e-003
2.605400e+003,7.854549e-003
2.607329e+003,7.860319e-003
2.609257e+003,7.808094e-003
2.611186e+003,7.790484e-003
2.613114e+003,7.758978e-003
2.615043e+003,7.767580e-003
2.616971e+003,7.792508e-003
2.618900e+003,7.702786e-003
2.620828e+003,7.652940e-003
2.622757e+003,7.743766e-003
2.624685e+003,7.720357e-003
2.626614e+003,7.651456e-003
2.628542e+003,7.626603e-003
2.630471e+003,7.620567e-003
2.632399e+003,7.642688e-003
2.634328e+003,7.595108e-003
2.636256e+003,7.504853e-003
2.638185e+003,7.502358e-003
2.640113e+003,7.548006e-003
2.642042e+003,7.566348e-003
2.643970e+003,7.504145e-003
2.645899e+003,7.436053e-003
2.647827e+003,7.477446e-003
2.649756e+003,7.451592e-003
2.651684e+003,7.405988e-003
2.653613e+003,7.453177e-003
2.655541e+003,7.458199e-003
2.657470e+003,7.410134e-003
2.659398e+003,7.374241e-003
2.661327e+003,7.381587e-003
2.663255e+003,7.326488e-003
2.665184e+003,7.318401e-003
2.667112e+003,7.378723e-003
2.669041e+003,7.335081e-003
2.670969e+003,7.337676e-003
2.672898e+003,7.407269e-003
2.674826e+003,7.385227e-003
2.676755e+003,7.349133e-003
2.678683e+003,7.322006e-003
2.680612e+003,7.331172e-003
2.682540e+003,7.359075e-003
2.684469e+003,7.335115e-003
2.686397e+003,7.332419e-003
2.688326e+003,7.335418e-003
2.690254e+003,7.342225e-003
2.692183e+003,7.369590e-003
2.694111e+003,7.376094e-003
2.696040e+003,7.361333e-003
2.697968e+003,7.333599e-003
2.699897e+003,7.328611e-003
2.701825e+003,7.321333e-003
2.703754e+003,7.320928e-003
2.705682e+003,7.326522e-003
2.707611e+003,7.320254e-003
2.709539e+003,7.337103e-003
2.711468e+003,7.328779e-003
2.713396e+003,7.307786e-003
2.715325e+003,7.316076e-003
2.717253e+003,7.362951e-003
2.719182e+003,7.383509e-003
2.721110e+003,7.376027e-003
2.723039e+003,7.356581e-003
2.724967e+003,7.298924e-003
2.726896e+003,7.285513e-003
2.728824e+003,7.286390e-003
2.730753e+003,7.289085e-003
2.732681e+003,7.294847e-003
2.734610e+003,7.275641e-003
2.736538e+003,7.298587e-003
2.738467e+003,7.309707e-003
2.740395e+003,7.303203e-003
2.742324e+003,7.326050e-003
2.744252e+003,7.352605e-003
2.746181e+003,7.305664e-003
2.748109e+003,7.297914e-003
2.750038e+003,7.297711e-003
2.751966e+003,7.323590e-003
2.753895e+003,7.340136e-003
2.755823e+003,7.341046e-003
2.757752e+003,7.327398e-003
2.759680e+003,7.349336e-003
2.761609e+003,7.395810e-003
2.763537e+003,7.411381e-003
2.765466e+003,7.363321e-003
2.767394e+003,7.272609e-003
2.769323e+003,7.254852e-003
2.771251e+003,7.301148e-003
2.773180e+003,7.289321e-003
2.775108e+003,7.259940e-003
2.777037e+003,7.288310e-003
2.778965e+003,7.293230e-003
2.780894e+003,7.275945e-003
2.782822e+003,7.244240e-003
2.784750e+003,7.228472e-003
2.786679e+003,7.252292e-003
2.788608e+003,7.292691e-003
2.790536e+003,7.308393e-003
2.792465e+003,7.266207e-003
2.794393e+003,7.197041e-003
2.796322e+003,7.176626e-003
2.798250e+003,7.180063e-003
2.800178e+003,7.199938e-003
2.802107e+003,7.150723e-003
2.804036e+003,7.115996e-003
2.805964e+003,7.116938e-003
2.807893e+003,7.090533e-003
2.809821e+003,7.046820e-003
2.811750e+003,7.026412e-003
2.813678e+003,7.007656e-003
2.815606e+003,6.933077e-003
2.817535e+003,6.889951e-003
2.819464e+003,6.872345e-003
2.821392e+003,6.834746e-003
2.823321e+003,6.824311e-003
2.825249e+003,6.796275e-003
2.827177e+003,6.682665e-003
2.829106e+003,6.573289e-003
2.831034e+003,6.559229e-003
2.832963e+003,6.477394e-003
2.834892e+003,6.357715e-003
2.836820e+003,6.206708e-003
2.838749e+003,6.019737e-003
2.840677e+003,5.815417e-003
2.842605e+003,5.474573e-003
2.844534e+003,5.034696e-003
2.846462e+003,4.545373e-003
2.848391e+003,4.049577e-003
2.850320e+003,3.620129e-003
2.852248e+003,3.309314e-003
2.854177e+003,3.144511e-003
2.856105e+003,3.140640e-003
2.858033e+003,3.297528e-003
2.859962e+003,3.474747e-003
2.861890e+003,3.706172e-003
2.863819e+003,3.965172e-003
2.865748e+003,4.216029e-003
2.867676e+003,4.393422e-003
2.869604e+003,4.542862e-003
2.871533e+003,4.729433e-003
2.873461e+003,5.034696e-003
2.875390e+003,5.261353e-003
2.877319e+003,5.447059e-003
2.879247e+003,5.571153e-003
2.881176e+003,5.653488e-003
2.883104e+003,5.629923e-003
2.885032e+003,5.563937e-003
2.886961e+003,5.441053e-003
2.888889e+003,5.298682e-003
2.890818e+003,5.279531e-003
2.892747e+003,5.136342e-003
2.894675e+003,4.882574e-003
2.896604e+003,4.691014e-003
2.898532e+003,4.511289e-003
2.900460e+003,4.274583e-003
2.902389e+003,3.971692e-003
2.904317e+003,3.675295e-003
2.906246e+003,3.394895e-003
2.908175e+003,3.078201e-003
2.910103e+003,2.695818e-003
2.912031e+003,2.307477e-003
2.913960e+003,1.848034e-003
2.915888e+003,1.292692e-003
2.917817e+003,7.968753e-004
2.919745e+003,3.883720e-004
2.921674e+003,-2.892505e-005
2.923603e+003,-3.923948e-004
2.925531e+003,-6.219111e-004
2.927459e+003,-6.476518e-004
2.929388e+003,-5.977242e-004
2.931316e+003,-4.462518e-004
2.933245e+003,-9.783380e-005
2.935173e+003,2.686777e-004
2.937102e+003,5.936431e-004
2.939031e+003,9.605067e-004
2.940959e+003,1.295920e-003
2.942887e+003,1.618730e-003
2.944816e+003,1.811402e-003
2.946744e+003,1.986788e-003
2.948673e+003,2.071174e-003
2.950601e+003,2.149132e-003
2.952530e+003,2.233139e-003
2.954458e+003,2.298158e-003
2.956387e+003,2.472757e-003
2.958315e+003,2.748791e-003
2.960244e+003,3.049312e-003
2.962172e+003,3.379275e-003
2.964101e+003,3.691027e-003
2.966029e+003,4.060701e-003
2.967958e+003,4.436277e-003
2.969886e+003,4.787177e-003
2.971815e+003,5.105832e-003
2.973743e+003,5.331099e-003
2.975672e+003,5.490544e-003
2.977600e+003,5.621224e-003
2.979529e+003,5.764395e-003
2.981457e+003,5.899057e-003
2.983386e+003,5.963781e-003
2.985314e+003,6.070065e-003
2.987243e+003,6.172448e-003
2.989171e+003,6.272359e-003
2.991100e+003,6.330713e-003
2.993028e+003,6.438683e-003
2.994957e+003,6.545622e-003
2.996885e+003,6.570817e-003
2.998814e+003,6.632078e-003
3.000742e+003,6.711405e-003
3.002671e+003,6.695570e-003
3.004599e+003,6.736771e-003
3.006528e+003,6.799154e-003
3.008456e+003,6.843499e-003
3.010385e+003,6.908502e-003
3.012313e+003,6.917701e-003
3.014242e+003,6.996900e-003
3.016170e+003,7.079042e-003
3.018099e+003,7.168732e-003
3.020027e+003,7.228956e-003
3.021956e+003,7.281165e-003
3.023884e+003,7.273995e-003
3.025813e+003,7.295009e-003
3.027741e+003,7.401291e-003
3.029670e+003,7.492798e-003
3.031598e+003,7.519716e-003
3.033527e+003,7.487611e-003
3.035455e+003,7.491498e-003
3.037384e+003,7.421219e-003
3.039312e+003,7.473731e-003
3.041241e+003,7.541791e-003
3.043169e+003,7.592181e-003
3.045098e+003,7.664107e-003
3.047026e+003,7.717823e-003
3.048955e+003,7.675322e-003
3.050883e+003,7.639039e-003
3.052812e+003,7.689670e-003
3.054740e+003,7.741092e-003
3.056669e+003,7.814295e-003
3.058597e+003,7.792473e-003
3.060526e+003,7.811377e-003
3.062454e+003,7.866317e-003
3.064383e+003,7.886419e-003
3.066311e+003,7.922934e-003
3.068240e+003,7.929966e-003
3.070168e+003,7.868163e-003
3.072097e+003,7.883230e-003
3.074025e+003,7.950945e-003
3.075954e+003,7.922508e-003
3.077882e+003,7.951540e-003
3.079811e+003,8.035283e-003
3.081739e+003,8.161665e-003
3.083668e+003,8.161735e-003
3.085596e+003,8.157645e-003
3.087525e+003,8.189538e-003
3.089453e+003,8.258777e-003
3.091382e+003,8.249605e-003
3.093310e+003,8.282479e-003
3.095239e+003,8.300434e-003
3.097167e+003,8.226022e-003
3.099096e+003,8.258136e-003
3.101024e+003,8.308672e-003
3.102953e+003,8.333008e-003
3.104881e+003,8.311231e-003
3.106810e+003,8.288009e-003
3.108738e+003,8.421855e-003
3.110667e+003,8.433442e-003
3.112595e+003,8.450332e-003
3.114524e+003,8.499173e-003
3.116452e+003,8.506613e-003
3.118381e+003,8.526365e-003
3.120309e+003,8.564034e-003
3.122238e+003,8.609210e-003
3.124166e+003,8.633973e-003
3.126095e+003,8.639811e-003
3.128023e+003,8.636973e-003
3.129952e+003,8.737667e-003
3.131880e+003,8.761420e-003
3.133809e+003,8.699017e-003
3.135737e+003,8.815105e-003
3.137666e+003,8.914382e-003
3.139594e+003,8.939380e-003
3.141523e+003,8.885675e-003
3.143451e+003,8.907855e-003
3.145380e+003,8.978525e-003
3.147308e+003,8.933757e-003
3.149237e+003,8.935818e-003
3.151165e+003,9.050350e-003
3.153094e+003,9.030883e-003
3.155022e+003,9.052716e-003
3.156951e+003,9.170950e-003
3.158879e+003,9.222323e-003
3.160808e+003,9.191444e-003
3.162736e+003,9.202723e-003
3.164665e+003,9.272061e-003
3.166593e+003,9.334877e-003
3.168522e+003,9.365875e-003
3.170450e+003,9.461203e-003
3.172379e+003,9.492457e-003
3.174307e+003,9.560551e-003
3.176236e+003,9.541096e-003
3.178164e+003,9.578967e-003
3.180093e+003,9.597120e-003
3.182021e+003,9.692519e-003
3.183950e+003,9.750681e-003
3.185878e+003,9.784986e-003
3.187807e+003,9.811647e-003
3.189735e+003,9.862550e-003
3.191664e+003,9.878105e-003
3.193592e+003,9.906066e-003
3.195521e+003,9.986998e-003
3.197449e+003,1.007890e-002
3.199378e+003,1.010951e-002
3.201306e+003,1.019945e-002
3.203235e+003,1.026583e-002
3.205163e+003,1.027298e-002
3.207092e+003,1.035500e-002
3.209020e+003,1.037974e-002
3.210948e+003,1.039819e-002
3.212877e+003,1.037343e-002
3.214806e+003,1.044441e-002
3.216734e+003,1.061225e-002
3.218663e+003,1.060131e-002
3.220591e+003,1.066380e-002
3.222520e+003,1.076235e-002
3.224448e+003,1.079133e-002
3.226376e+003,1.082937e-002
3.228305e+003,1.087876e-002
3.230234e+003,1.091158e-002
3.232162e+003,1.096097e-002
3.234091e+003,1.099999e-002
3.236019e+003,1.103175e-002
3.237948e+003,1.117057e-002
3.239876e+003,1.126804e-002
3.241804e+003,1.127351e-002
3.243733e+003,1.130857e-002
3.245662e+003,1.135049e-002
3.247590e+003,1.139858e-002
3.249519e+003,1.161565e-002
3.251447e+003,1.171765e-002
3.253375e+003,1.167872e-002
3.255304e+003,1.170270e-002
3.257232e+003,1.176144e-002
3.259161e+003,1.182561e-002
3.261090e+003,1.193877e-002
3.263018e+003,1.200412e-002
3.264947e+003,1.201677e-002
3.266875e+003,1.204894e-002
3.268803e+003,1.208838e-002
3.270732e+003,1.220567e-002
3.272660e+003,1.227030e-002
3.274589e+003,1.227368e-002
3.276518e+003,1.227616e-002
3.278446e+003,1.228178e-002
3.280375e+003,1.234338e-002
3.282303e+003,1.246360e-002
3.284231e+003,1.254919e-002
3.286160e+003,1.255285e-002
3.288088e+003,1.247273e-002
3.290017e+003,1.244620e-002
3.291946e+003,1.244643e-002
3.293874e+003,1.246691e-002
3.295802e+003,1.244269e-002
3.297731e+003,1.239885e-002
3.299659e+003,1.250332e-002
3.301588e+003,1.260944e-002
3.303516e+003,1.259647e-002
3.305445e+003,1.250303e-002
3.307374e+003,1.251074e-002
3.309302e+003,1.258647e-002
3.311230e+003,1.258100e-002
3.313159e+003,1.256667e-002
3.315087e+003,1.258867e-002
3.317016e+003,1.262712e-002
3.318944e+003,1.269577e-002
3.320873e+003,1.275356e-002
3.322802e+003,1.278285e-002
3.324730e+003,1.278839e-002
3.326658e+003,1.275953e-002
3.328587e+003,1.280925e-002
3.330515e+003,1.283239e-002
3.332444e+003,1.280474e-002
3.334372e+003,1.278488e-002
3.336301e+003,1.283007e-002
3.338229e+003,1.286480e-002
3.340158e+003,1.286020e-002
3.342086e+003,1.283007e-002
3.344015e+003,1.279305e-002
3.345943e+003,1.276194e-002
3.347872e+003,1.278573e-002
3.349800e+003,1.275684e-002
3.351729e+003,1.270854e-002
3.353657e+003,1.260680e-002
3.355586e+003,1.257401e-002
3.357514e+003,1.257731e-002
3.359443e+003,1.256497e-002
3.361371e+003,1.253989e-002
3.363300e+003,1.253163e-002
3.365229e+003,1.253055e-002
3.367157e+003,1.245891e-002
3.369085e+003,1.235430e-002
3.371014e+003,1.231812e-002
3.372942e+003,1.223951e-002
3.374871e+003,1.223147e-002
3.376799e+003,1.224409e-002
3.378728e+003,1.217099e-002
3.380656e+003,1.213962e-002
3.382585e+003,1.212803e-002
3.384513e+003,1.209119e-002
3.386442e+003,1.206761e-002
3.388370e+003,1.204807e-002
3.390299e+003,1.197447e-002
3.392227e+003,1.192664e-002
3.394156e+003,1.183681e-002
3.396084e+003,1.181620e-002
3.398013e+003,1.175313e-002
3.399941e+003,1.172251e-002
3.401870e+003,1.172698e-002
3.403798e+003,1.169082e-002
3.405727e+003,1.158817e-002
3.407655e+003,1.153660e-002
3.409584e+003,1.144981e-002
3.411512e+003,1.141655e-002
3.413441e+003,1.141998e-002
3.415369e+003,1.137393e-002
3.417298e+003,1.124008e-002
3.419226e+003,1.115967e-002
3.421155e+003,1.120250e-002
3.423083e+003,1.114840e-002
3.425012e+003,1.105370e-002
3.426940e+003,1.092206e-002
3.428869e+003,1.081634e-002
3.430797e+003,1.076492e-002
3.432726e+003,1.075537e-002
3.434654e+003,1.073632e-002
3.436583e+003,1.068287e-002
3.438511e+003,1.048344e-002
3.440440e+003,1.036902e-002
3.442368e+003,1.034470e-002
3.444297e+003,1.023689e-002
3.446225e+003,1.018638e-002
3.448154e+003,1.010146e-002
3.450082e+003,9.929380e-003
3.452011e+003,9.835417e-003
3.453939e+003,9.775065e-003
3.455868e+003,9.705743e-003
3.457796e+003,9.677900e-003
3.459725e+003,9.724208e-003
3.461653e+003,9.645703e-003
3.463582e+003,9.568478e-003
3.465510e+003,9.497269e-003
3.467439e+003,9.457588e-003
3.469367e+003,9.236952e-003
3.471296e+003,9.067721e-003
3.473224e+003,9.051374e-003
3.475153e+003,9.019073e-003
3.477081e+003,9.011999e-003
3.479010e+003,9.063323e-003
3.480938e+003,9.018051e-003
3.482867e+003,8.883235e-003
3.484795e+003,8.795486e-003
3.486724e+003,8.775500e-003
3.488652e+003,8.733789e-003
3.490581e+003,8.643266e-003
3.492509e+003,8.636074e-003
3.494438e+003,8.647365e-003
3.496366e+003,8.518958e-003
3.498295e+003,8.377305e-003
3.500223e+003,8.302060e-003
3.502152e+003,8.326457e-003
3.504080e+003,8.216825e-003
3.506009e+003,8.169506e-003
3.507937e+003,8.132017e-003
3.509866e+003,8.004007e-003
3.511794e+003,7.957854e-003
3.513723e+003,7.899751e-003
3.515651e+003,7.768370e-003
3.517580e+003,7.743702e-003
3.519508e+003,7.668057e-003
3.521437e+003,7.705771e-003
3.523365e+003,7.723836e-003
3.525294e+003,7.682267e-003
3.527222e+003,7.552632e-003
3.529151e+003,7.587165e-003
3.531079e+003,7.603824e-003
3.533008e+003,7.467568e-003
3.534936e+003,7.460216e-003
3.536865e+003,7.450787e-003
3.538793e+003,7.411764e-003
3.540722e+003,7.314628e-003
3.542650e+003,7.276172e-003
3.544579e+003,7.284810e-003
3.546507e+003,7.251371e-003
3.548436e+003,7.220682e-003
3.550364e+003,7.240489e-003
3.552293e+003,7.259663e-003
3.554221e+003,7.109583e-003
3.556150e+003,7.129612e-003
3.558078e+003,7.155096e-003
3.560007e+003,7.066636e-003
3.561935e+003,7.043312e-003
3.563864e+003,7.067482e-003
3.565792e+003,7.076852e-003
3.567721e+003,7.058353e-003
3.569649e+003,7.114741e-003
3.571578e+003,7.121137e-003
3.573506e+003,7.061258e-003
3.575435e+003,7.069851e-003
3.577363e+003,7.135879e-003
3.579292e+003,7.186171e-003
3.581220e+003,7.286673e-003
3.583149e+003,7.378832e-003
3.585077e+003,7.421262e-003
3.587006e+003,7.487394e-003
3.588934e+003,7.522563e-003
3.590863e+003,7.677877e-003
3.592791e+003,7.817435e-003
3.594720e+003,7.935312e-003
3.596648e+003,7.943247e-003
3.598577e+003,8.002808e-003
3.600505e+003,8.040238e-003
3.602434e+003,7.946025e-003
3.604362e+003,7.838996e-003
3.606291e+003,7.603759e-003
3.608219e+003,7.288132e-003
3.610148e+003,6.981534e-003
3.612076e+003,6.698414e-003
3.614005e+003,6.792601e-003
3.615933e+003,7.190274e-003
3.617862e+003,7.512188e-003
3.619790e+003,7.831890e-003
3.621719e+003,8.065013e-003
3.623647e+003,8.199633e-003
3.625576e+003,8.307835e-003
3.627504e+003,8.264489e-003
3.629433e+003,8.198707e-003
3.631361e+003,7.959680e-003
3.633290e+003,7.669278e-003
3.635218e+003,7.516719e-003
3.637146e+003,7.287147e-003
3.639075e+003,7.028498e-003
3.641004e+003,6.835864e-003
3.642932e+003,6.589010e-003
3.644861e+003,6.418626e-003
3.646789e+003,6.391020e-003
3.648718e+003,6.373861e-003
3.650646e+003,6.328418e-003
3.652574e+003,6.301096e-003
3.654503e+003,6.231126e-003
3.656432e+003,6.200582e-003
3.658360e+003,6.356849e-003
3.660289e+003,6.514275e-003
3.662217e+003,6.370796e-003
3.664146e+003,6.257579e-003
3.666074e+003,6.315206e-003
3.668002e+003,6.428657e-003
3.669931e+003,6.510380e-003
3.671860e+003,6.534108e-003
3.673788e+003,6.494756e-003
3.675717e+003,6.525140e-003
3.677645e+003,6.577452e-003
3.679573e+003,6.736269e-003
3.681502e+003,6.789561e-003
3.683430e+003,6.890366e-003
3.685359e+003,6.951686e-003
3.687288e+003,7.011117e-003
3.689216e+003,7.271371e-003
3.691145e+003,7.594026e-003
3.693073e+003,7.701592e-003
3.695001e+003,7.897887e-003
3.696930e+003,8.079484e-003
3.698858e+003,8.251852e-003
3.700787e+003,8.329085e-003
3.702716e+003,8.306253e-003
3.704644e+003,8.287890e-003
3.706573e+003,8.246794e-003
3.708501e+003,8.007406e-003
3.710429e+003,7.684821e-003
3.712358e+003,7.223944e-003
3.714286e+003,6.913524e-003
3.716215e+003,7.086054e-003
3.718144e+003,7.442696e-003
3.720072e+003,7.914753e-003
3.722000e+003,8.453042e-003
3.723929e+003,8.855122e-003
3.725857e+003,9.042885e-003
3.727786e+003,9.098561e-003
3.729714e+003,9.039239e-003
3.731643e+003,8.937010e-003
3.733572e+003,8.733885e-003
3.735500e+003,8.426333e-003
3.737428e+003,7.983749e-003
3.739357e+003,7.662233e-003
3.741285e+003,7.301970e-003
3.743214e+003,7.019172e-003
3.745142e+003,6.965581e-003
3.747071e+003,6.761326e-003
3.749000e+003,6.604096e-003
3.750928e+003,6.506608e-003
3.752856e+003,6.494367e-003
3.754785e+003,6.468906e-003
3.756713e+003,6.485078e-003
3.758642e+003,6.439487e-003
3.760570e+003,6.450852e-003
3.762499e+003,6.400824e-003
3.764427e+003,6.285001e-003
3.766356e+003,6.334754e-003
3.768284e+003,6.427114e-003
3.770213e+003,6.433750e-003
3.772141e+003,6.462301e-003
3.774070e+003,6.463270e-003
3.775998e+003,6.514494e-003
3.777927e+003,6.503021e-003
3.779855e+003,6.460705e-003
3.781784e+003,6.387682e-003
3.783712e+003,6.450799e-003
3.785641e+003,6.519032e-003
3.787569e+003,6.442253e-003
3.789498e+003,6.358474e-003
3.791426e+003,6.322486e-003
3.793355e+003,6.378353e-003
3.795283e+003,6.374346e-003
3.797212e+003,6.343167e-003
3.799140e+003,6.333478e-003
3.801069e+003,6.330053e-003
3.802997e+003,6.362764e-003
3.804926e+003,6.308470e-003
3.806854e+003,6.302402e-003
3.808783e+003,6.399205e-003
3.810711e+003,6.442030e-003
3.812640e+003,6.465041e-003
3.814568e+003,6.494898e-003
3.816497e+003,6.479499e-003
3.818425e+003,6.353175e-003
3.820354e+003,6.273968e-003
3.822282e+003,6.304801e-003
3.824211e+003,6.290803e-003
3.826139e+003,6.374365e-003
3.828068e+003,6.397060e-003
3.829996e+003,6.385359e-003
3.831925e+003,6.344605e-003
3.833853e+003,6.372668e-003
3.835782e+003,6.370950e-003
3.837710e+003,6.409552e-003
3.839639e+003,6.375609e-003
3.841567e+003,6.326889e-003
3.843496e+003,6.351944e-003
3.845424e+003,6.375357e-003
3.847353e+003,6.329270e-003
3.849281e+003,6.338834e-003
3.851210e+003,6.300209e-003
3.853138e+003,6.282560e-003
3.855067e+003,6.482522e-003
3.856995e+003,6.474569e-003
3.858924e+003,6.436913e-003
3.860852e+003,6.385777e-003
3.862781e+003,6.367259e-003
3.864709e+003,6.397966e-003
3.866638e+003,6.423019e-003
3.868566e+003,6.352593e-003
3.870495e+003,6.405712e-003
3.872423e+003,6.329527e-003
3.874352e+003,6.357556e-003
3.876280e+003,6.416549e-003
3.878209e+003,6.423705e-003
3.880137e+003,6.450836e-003
3.882066e+003,6.408926e-003
3.883994e+003,6.367168e-003
3.885923e+003,6.363766e-003
3.887851e+003,6.436392e-003
3.889780e+003,6.467175e-003
3.891708e+003,6.459295e-003
3.893637e+003,6.468430e-003
3.895565e+003,6.423173e-003
3.897494e+003,6.460680e-003
3.899422e+003,6.506535e-003
3.901351e+003,6.427611e-003
3.903279e+003,6.368628e-003
3.905208e+003,6.371023e-003
3.907136e+003,6.345714e-003
3.909065e+003,6.377731e-003
3.910993e+003,6.426197e-003
3.912922e+003,6.428801e-003
3.914850e+003,6.488257e-003
3.916779e+003,6.523373e-003
3.918707e+003,6.445031e-003
3.920636e+003,6.416643e-003
3.922564e+003,6.399451e-003
3.924493e+003,6.395081e-003
3.926421e+003,6.423782e-003
3.928350e+003,6.429024e-003
3.930278e+003,6.364110e-003
3.932207e+003,6.388154e-003
3.934135e+003,6.403496e-003
3.936064e+003,6.402692e-003
3.937992e+003,6.427781e-003
3.939921e+003,6.443882e-003
3.941849e+003,6.458248e-003
3.943778e+003,6.384672e-003
3.945706e+003,6.343670e-003
3.947635e+003,6.415826e-003
3.949563e+003,6.415877e-003
3.951492e+003,6.387700e-003
3.953420e+003,6.466865e-003
3.955349e+003,6.525306e-003
3.957277e+003,6.511094e-003
3.959206e+003,6.479955e-003
3.961134e+003,6.441034e-003
3.963063e+003,6.434313e-003
3.964991e+003,6.457737e-003
3.966920e+003,6.379606e-003
3.968848e+003,6.364430e-003
3.970777e+003,6.407421e-003
3.972705e+003,6.375515e-003
3.974634e+003,6.344548e-003
3.976562e+003,6.435696e-003
3.978491e+003,6.473097e-003
3.980419e+003,6.407596e-003
3.982348e+003,6.439369e-003
3.984276e+003,6.477790e-003
3.986205e+003,6.413864e-003
3.988133e+003,6.415195e-003
3.990062e+003,6.399835e-003
3.991990e+003,6.386837e-003
3.993919e+003,6.427113e-003
3.995847e+003,6.464478e-003
3.997776e+003,6.442956e-003
3.999704e+003,6.442755e-003
4.001633e+003,0.000000e+000
