3.991989e+002,4.287543e-002
4.011274e+002,4.693021e-002
4.030559e+002,4.693021e-002
4.049844e+002,4.725223e-002
4.069129e+002,4.507513e-002
4.088414e+002,4.486122e-002
4.107699e+002,4.488323e-002
4.126984e+002,4.396571e-002
4.146269e+002,4.370892e-002
4.165554e+002,4.554785e-002
4.184839e+002,4.553817e-002
4.204124e+002,4.547710e-002
4.223409e+002,4.629764e-002
4.242694e+002,4.681471e-002
4.261979e+002,4.634651e-002
4.281264e+002,4.658286e-002
4.300549e+002,4.711429e-002
4.319834e+002,4.623979e-002
4.339119e+002,4.580272e-002
4.358404e+002,4.646591e-002
4.377689e+002,4.680912e-002
4.396974e+002,4.646589e-002
4.416259e+002,4.601087e-002
4.435544e+002,4.590368e-002
4.454829e+002,4.583573e-002
4.474114e+002,4.659923e-002
4.493399e+002,4.637672e-002
4.512684e+002,4.629706e-002
4.531969e+002,4.649504e-002
4.551254e+002,4.646030e-002
4.570539e+002,4.630877e-002
4.589824e+002,4.648467e-002
4.609109e+002,4.665089e-002
4.628394e+002,4.683430e-002
4.647679e+002,4.671031e-002
4.666964e+002,4.693755e-002
4.686249e+002,4.692776e-002
4.705533e+002,4.659729e-002
4.724819e+002,4.612447e-002
4.744103e+002,4.614785e-002
4.763389e+002,4.594762e-002
4.782673e+002,4.580531e-002
4.801959e+002,4.591239e-002
4.821243e+002,4.598840e-002
4.840529e+002,4.585743e-002
4.859813e+002,4.586900e-002
4.879099e+002,4.654378e-002
4.898383e+002,4.689194e-002
4.917668e+002,4.664603e-002
4.936953e+002,4.639093e-002
4.956238e+002,4.670205e-002
4.975523e+002,4.726477e-002
4.994808e+002,4.719720e-002
5.014093e+002,4.704958e-002
5.033378e+002,4.689656e-002
5.052663e+002,4.736523e-002
5.071948e+002,4.765014e-002
5.091233e+002,4.806668e-002
5.110518e+002,4.762813e-002
5.129803e+002,4.846830e-002
5.149088e+002,4.871663e-002
5.168373e+002,4.889911e-002
5.187658e+002,4.838780e-002
5.206943e+002,4.909722e-002
5.226228e+002,4.894648e-002
5.245513e+002,4.895387e-002
5.264798e+002,4.891359e-002
5.284083e+002,4.854343e-002
5.303368e+002,4.805631e-002
5.322653e+002,4.820766e-002
5.341938e+002,4.811659e-002
5.361223e+002,4.793153e-002
5.380508e+002,4.763933e-002
5.399792e+002,4.760236e-002
5.419078e+002,4.697578e-002
5.438363e+002,4.714368e-002
5.457648e+002,4.710547e-002
5.476932e+002,4.729928e-002
5.496218e+002,4.706698e-002
5.515503e+002,4.739373e-002
5.534788e+002,4.772647e-002
5.554072e+002,4.814703e-002
5.573358e+002,4.836930e-002
5.592643e+002,4.877696e-002
5.611927e+002,4.865329e-002
5.631212e+002,4.846579e-002
5.650497e+002,4.810166e-002
5.669783e+002,4.774937e-002
5.689067e+002,4.738533e-002
5.708352e+002,4.703232e-002
5.727637e+002,4.657674e-002
5.746923e+002,4.681735e-002
5.766207e+002,4.664576e-002
5.785492e+002,4.674444e-002
5.804777e+002,4.672661e-002
5.824063e+002,4.645532e-002
5.843347e+002,4.624511e-002
5.862632e+002,4.634045e-002
5.881917e+002,4.610426e-002
5.901202e+002,4.619813e-002
5.920487e+002,4.600127e-002
5.939772e+002,4.593845e-002
5.959057e+002,4.582300e-002
5.978342e+002,4.604647e-002
5.997627e+002,4.585111e-002
6.016912e+002,4.562002e-002
6.036197e+002,4.547005e-002
6.055482e+002,4.539821e-002
6.074767e+002,4.543106e-002
6.094052e+002,4.537392e-002
6.113337e+002,4.486315e-002
6.132622e+002,4.470451e-002
6.151907e+002,4.442162e-002
6.171192e+002,4.390278e-002
6.190477e+002,4.347179e-002
6.209762e+002,4.319607e-002
6.229047e+002,4.242136e-002
6.248332e+002,4.169317e-002
6.267617e+002,4.103515e-002
6.286902e+002,4.056448e-002
6.306187e+002,4.031496e-002
6.325472e+002,4.024059e-002
6.344756e+002,3.963029e-002
6.364042e+002,3.954433e-002
6.383326e+002,3.936975e-002
6.402612e+002,3.900258e-002
6.421896e+002,3.852089e-002
6.441182e+002,3.829376e-002
6.460466e+002,3.805800e-002
6.479752e+002,3.800398e-002
6.499036e+002,3.755636e-002
6.518322e+002,3.728364e-002
6.537606e+002,3.686681e-002
6.556891e+002,3.683981e-002
6.576177e+002,3.694146e-002
6.595461e+002,3.703055e-002
6.614746e+002,3.691715e-002
6.634031e+002,3.707324e-002
6.653317e+002,3.689482e-002
6.672601e+002,3.673627e-002
6.691886e+002,3.657567e-002
6.711171e+002,3.640196e-002
6.730457e+002,3.588205e-002
6.749741e+002,3.519790e-002
6.769026e+002,3.419871e-002
6.788311e+002,3.379403e-002
6.807596e+002,3.343739e-002
6.826881e+002,3.312921e-002
6.846166e+002,3.246493e-002
6.865451e+002,3.225952e-002
6.884736e+002,3.195360e-002
6.904021e+002,3.182841e-002
6.923306e+002,3.139184e-002
6.942591e+002,3.115532e-002
6.961876e+002,3.122269e-002
6.981161e+002,3.131365e-002
7.000446e+002,3.094609e-002
7.019731e+002,3.046758e-002
7.039016e+002,3.008845e-002
7.058301e+002,2.983964e-002
7.077585e+002,2.950763e-002
7.096871e+002,2.923051e-002
7.116156e+002,2.873009e-002
7.135441e+002,2.840352e-002
7.154725e+002,2.809903e-002
7.174011e+002,2.796015e-002
7.193296e+002,2.773042e-002
7.212581e+002,2.774984e-002
7.231865e+002,2.743936e-002
7.251151e+002,2.715057e-002
7.270436e+002,2.676318e-002
7.289720e+002,2.652514e-002
7.309005e+002,2.629253e-002
7.328290e+002,2.609077e-002
7.347576e+002,2.577993e-002
7.366860e+002,2.574409e-002
7.386145e+002,2.544135e-002
7.405430e+002,2.520112e-002
7.424716e+002,2.498558e-002
7.444000e+002,2.493259e-002
7.463285e+002,2.458395e-002
7.482570e+002,2.438961e-002
7.501855e+002,2.420593e-002
7.521140e+002,2.404633e-002
7.540425e+002,2.367408e-002
7.559710e+002,2.353526e-002
7.578995e+002,2.331805e-002
7.598280e+002,2.311861e-002
7.617565e+002,2.288907e-002
7.636850e+002,2.280896e-002
7.656135e+002,2.263809e-002
7.675420e+002,2.253478e-002
7.694705e+002,2.232938e-002
7.713990e+002,2.227772e-002
7.733275e+002,2.216727e-002
7.752560e+002,2.206944e-002
7.771844e+002,2.191549e-002
7.791130e+002,2.183165e-002
7.810415e+002,2.169067e-002
7.829700e+002,2.154217e-002
7.848984e+002,2.123114e-002
7.868270e+002,2.120185e-002
7.887555e+002,2.117714e-002
7.906840e+002,2.124221e-002
7.926124e+002,2.113919e-002
7.945410e+002,2.117746e-002
7.964695e+002,2.120974e-002
7.983979e+002,2.121131e-002
8.003264e+002,2.108826e-002
8.022549e+002,2.101620e-002
8.041835e+002,2.091209e-002
8.061119e+002,2.091859e-002
8.080404e+002,2.076136e-002
8.099689e+002,2.075201e-002
8.118975e+002,2.057104e-002
8.138259e+002,2.051702e-002
8.157545e+002,2.035521e-002
8.176830e+002,2.018444e-002
8.196115e+002,2.004573e-002
8.215399e+002,1.994761e-002
8.234684e+002,1.974825e-002
8.253970e+002,1.988787e-002
8.273254e+002,1.983248e-002
8.292539e+002,1.981424e-002
8.311824e+002,1.987303e-002
8.331110e+002,1.999323e-002
8.350394e+002,1.977890e-002
8.369679e+002,1.960849e-002
8.388964e+002,1.950108e-002
8.408250e+002,1.931349e-002
8.427534e+002,1.909029e-002
8.446819e+002,1.912118e-002
8.466104e+002,1.899319e-002
8.485389e+002,1.891465e-002
8.504674e+002,1.871960e-002
8.523959e+002,1.860332e-002
8.543244e+002,1.849518e-002
8.562529e+002,1.851202e-002
8.581814e+002,1.842763e-002
8.601099e+002,1.847717e-002
8.620384e+002,1.839171e-002
8.639669e+002,1.840298e-002
8.658954e+002,1.847679e-002
8.678239e+002,1.853104e-002
8.697524e+002,1.846638e-002
8.716809e+002,1.843119e-002
8.736094e+002,1.844467e-002
8.755378e+002,1.855653e-002
8.774664e+002,1.855244e-002
8.793949e+002,1.863773e-002
8.813234e+002,1.879938e-002
8.832518e+002,1.900388e-002
8.851804e+002,1.922188e-002
8.871089e+002,1.967276e-002
8.890374e+002,2.015674e-002
8.909658e+002,2.068841e-002
8.928943e+002,2.119200e-002
8.948229e+002,2.155492e-002
8.967513e+002,2.157435e-002
8.986798e+002,2.152476e-002
9.006083e+002,2.129555e-002
9.025369e+002,2.090844e-002
9.044653e+002,2.044651e-002
9.063938e+002,2.011433e-002
9.083223e+002,1.975549e-002
9.102509e+002,1.956509e-002
9.121793e+002,1.939248e-002
9.141078e+002,1.935985e-002
9.160364e+002,1.934710e-002
9.179648e+002,1.940458e-002
9.198933e+002,1.942311e-002
9.218218e+002,1.958347e-002
9.237504e+002,1.966909e-002
9.256788e+002,1.981209e-002
9.276073e+002,1.994677e-002
9.295358e+002,2.010624e-002
9.314644e+002,2.022238e-002
9.333928e+002,2.049184e-002
9.353213e+002,2.079330e-002
9.372498e+002,2.115909e-002
9.391783e+002,2.147512e-002
9.411068e+002,2.196888e-002
9.430353e+002,2.246024e-002
9.449637e+002,2.314859e-002
9.468923e+002,2.384332e-002
9.488208e+002,2.447539e-002
9.507493e+002,2.526839e-002
9.526777e+002,2.609476e-002
9.546063e+002,2.681935e-002
9.565348e+002,2.758084e-002
9.584633e+002,2.842241e-002
9.603917e+002,2.936565e-002
9.623203e+002,3.027484e-002
9.642488e+002,3.123671e-002
9.661772e+002,3.213746e-002
9.681057e+002,3.301122e-002
9.700343e+002,3.394593e-002
9.719628e+002,3.504993e-002
9.738912e+002,3.617973e-002
9.758197e+002,3.722343e-002
9.777483e+002,3.832430e-002
9.796768e+002,3.967563e-002
9.816052e+002,4.112668e-002
9.835337e+002,4.270953e-002
9.854623e+002,4.412312e-002
9.873907e+002,4.542058e-002
9.893192e+002,4.653492e-002
9.912477e+002,4.742143e-002
9.931763e+002,4.799863e-002
9.951047e+002,4.842997e-002
9.970332e+002,4.888020e-002
9.989617e+002,4.942304e-002
1.000890e+003,5.013933e-002
1.002819e+003,5.088826e-002
1.004747e+003,5.164717e-002
1.006676e+003,5.255809e-002
1.008604e+003,5.355241e-002
1.010533e+003,5.461814e-002
1.012461e+003,5.570529e-002
1.014390e+003,5.696291e-002
1.016318e+003,5.826532e-002
1.018247e+003,5.972355e-002
1.020175e+003,6.119963e-002
1.022104e+003,6.277089e-002
1.024032e+003,6.452004e-002
1.025961e+003,6.645153e-002
1.027889e+003,6.847209e-002
1.029818e+003,7.055211e-002
1.031746e+003,7.236657e-002
1.033675e+003,7.391826e-002
1.035603e+003,7.496950e-002
1.037532e+003,7.533610e-002
1.039460e+003,7.505275e-002
1.041389e+003,7.449967e-002
1.043317e+003,7.383652e-002
1.045246e+003,7.330566e-002
1.047174e+003,7.296080e-002
1.049103e+003,7.256310e-002
1.051031e+003,7.214998e-002
1.052960e+003,7.173325e-002
1.054888e+003,7.115046e-002
1.056817e+003,7.032318e-002
1.058745e+003,6.937659e-002
1.060674e+003,6.829764e-002
1.062602e+003,6.702843e-002
1.064531e+003,6.556088e-002
1.066459e+003,6.409102e-002
1.068388e+003,6.268226e-002
1.070316e+003,6.139426e-002
1.072245e+003,6.018500e-002
1.074173e+003,5.901740e-002
1.076102e+003,5.783714e-002
1.078030e+003,5.657869e-002
1.079959e+003,5.521825e-002
1.081887e+003,5.382904e-002
1.083816e+003,5.270430e-002
1.085744e+003,5.172652e-002
1.087673e+003,5.074828e-002
1.089601e+003,4.984070e-002
1.091530e+003,4.901831e-002
1.093458e+003,4.812514e-002
1.095387e+003,4.734223e-002
1.097315e+003,4.662319e-002
1.099244e+003,4.605455e-002
1.101172e+003,4.570212e-002
1.103101e+003,4.544438e-002
1.105029e+003,4.517693e-002
1.106958e+003,4.478833e-002
1.108886e+003,4.417865e-002
1.110815e+003,4.346142e-002
1.112743e+003,4.259618e-002
1.114672e+003,4.148507e-002
1.116600e+003,4.025266e-002
1.118529e+003,3.911307e-002
1.120457e+003,3.807491e-002
1.122386e+003,3.704128e-002
1.124314e+003,3.585641e-002
1.126243e+003,3.460990e-002
1.128171e+003,3.330820e-002
1.130100e+003,3.200778e-002
1.132028e+003,3.074806e-002
1.133957e+003,2.959136e-002
1.135885e+003,2.859263e-002
1.137814e+003,2.788183e-002
1.139742e+003,2.738836e-002
1.141671e+003,2.707784e-002
1.143599e+003,2.704825e-002
1.145528e+003,2.717821e-002
1.147456e+003,2.733620e-002
1.149385e+003,2.762353e-002
1.151313e+003,2.795257e-002
1.153242e+003,2.837593e-002
1.155170e+003,2.885601e-002
1.157099e+003,2.927136e-002
1.159027e+003,2.954255e-002
1.160956e+003,2.965606e-002
1.162884e+003,2.941950e-002
1.164813e+003,2.879075e-002
1.166741e+003,2.787755e-002
1.168670e+003,2.676687e-002
1.170598e+003,2.543412e-002
1.172526e+003,2.405788e-002
1.174455e+003,2.272858e-002
1.176384e+003,2.153235e-002
1.178312e+003,2.051563e-002
1.180240e+003,1.970154e-002
1.182169e+003,1.897910e-002
1.184098e+003,1.846441e-002
1.186026e+003,1.807089e-002
1.187954e+003,1.782662e-002
1.189883e+003,1.766385e-002
1.191812e+003,1.776817e-002
1.193740e+003,1.802474e-002
1.195668e+003,1.840407e-002
1.197597e+003,1.883441e-002
1.199526e+003,1.932497e-002
1.201454e+003,1.973184e-002
1.203382e+003,1.999727e-002
1.205311e+003,2.020284e-002
1.207240e+003,2.032742e-002
1.209168e+003,2.039031e-002
1.211096e+003,2.053117e-002
1.213025e+003,2.071431e-002
1.214953e+003,2.098242e-002
1.216882e+003,2.127105e-002
1.218810e+003,2.157803e-002
1.220739e+003,2.182981e-002
1.222667e+003,2.218917e-002
1.224596e+003,2.255071e-002
1.226524e+003,2.287915e-002
1.228453e+003,2.317140e-002
1.230381e+003,2.345476e-002
1.232310e+003,2.369994e-002
1.234238e+003,2.397281e-002
1.236167e+003,2.415995e-002
1.238095e+003,2.421233e-002
1.240024e+003,2.419585e-002
1.241952e+003,2.417559e-002
1.243881e+003,2.408420e-002
1.245809e+003,2.395639e-002
1.247738e+003,2.387889e-002
1.249666e+003,2.377702e-002
1.251595e+003,2.359891e-002
1.253523e+003,2.344536e-002
1.255452e+003,2.323941e-002
1.257380e+003,2.297868e-002
1.259309e+003,2.269421e-002
1.261237e+003,2.236916e-002
1.263166e+003,2.195314e-002
1.265094e+003,2.152299e-002
1.267023e+003,2.111807e-002
1.268951e+003,2.068627e-002
1.270880e+003,2.025215e-002
1.272808e+003,1.991378e-002
1.274737e+003,1.960438e-002
1.276665e+003,1.928135e-002
1.278594e+003,1.902928e-002
1.280522e+003,1.883958e-002
1.282451e+003,1.870920e-002
1.284379e+003,1.852039e-002
1.286308e+003,1.833984e-002
1.288236e+003,1.823444e-002
1.290165e+003,1.814206e-002
1.292093e+003,1.809255e-002
1.294022e+003,1.810262e-002
1.295950e+003,1.815839e-002
1.297879e+003,1.819493e-002
1.299807e+003,1.833293e-002
1.301736e+003,1.858222e-002
1.303664e+003,1.883680e-002
1.305593e+003,1.906495e-002
1.307521e+003,1.932352e-002
1.309450e+003,1.955716e-002
1.311378e+003,1.981378e-002
1.313307e+003,2.002063e-002
1.315235e+003,2.016286e-002
1.317164e+003,2.025448e-002
1.319092e+003,2.028531e-002
1.321021e+003,2.025943e-002
1.322949e+003,2.015325e-002
1.324878e+003,2.001514e-002
1.326806e+003,1.992156e-002
1.328735e+003,1.984111e-002
1.330663e+003,1.982939e-002
1.332592e+003,1.984336e-002
1.334520e+003,1.979594e-002
1.336449e+003,1.969453e-002
1.338377e+003,1.960055e-002
1.340306e+003,1.940105e-002
1.342234e+003,1.922268e-002
1.344163e+003,1.910543e-002
1.346091e+003,1.906058e-002
1.348020e+003,1.908375e-002
1.349948e+003,1.910256e-002
1.351877e+003,1.909598e-002
1.353805e+003,1.912883e-002
1.355734e+003,1.915870e-002
1.357662e+003,1.919409e-002
1.359591e+003,1.920218e-002
1.361519e+003,1.931031e-002
1.363448e+003,1.942810e-002
1.365376e+003,1.957562e-002
1.367305e+003,1.972602e-002
1.369233e+003,1.986332e-002
1.371162e+003,1.993646e-002
1.373090e+003,1.984769e-002
1.375019e+003,1.958308e-002
1.376947e+003,1.929342e-002
1.378876e+003,1.900802e-002
1.380804e+003,1.865852e-002
1.382733e+003,1.824223e-002
1.384661e+003,1.791745e-002
1.386590e+003,1.772814e-002
1.388518e+003,1.761860e-002
1.390447e+003,1.759492e-002
1.392375e+003,1.757785e-002
1.394304e+003,1.755032e-002
1.396232e+003,1.752717e-002
1.398161e+003,1.751476e-002
1.400089e+003,1.746522e-002
1.402018e+003,1.737383e-002
1.403946e+003,1.734495e-002
1.405875e+003,1.736324e-002
1.407803e+003,1.742175e-002
1.409732e+003,1.751753e-002
1.411660e+003,1.756416e-002
1.413589e+003,1.763990e-002
1.415517e+003,1.780373e-002
1.417446e+003,1.794923e-002
1.419374e+003,1.816916e-002
1.421303e+003,1.844273e-002
1.423231e+003,1.864160e-002
1.425160e+003,1.872315e-002
1.427088e+003,1.869680e-002
1.429017e+003,1.853689e-002
1.430945e+003,1.836887e-002
1.432874e+003,1.817580e-002
1.434802e+003,1.800630e-002
1.436731e+003,1.777753e-002
1.438659e+003,1.757379e-002
1.440588e+003,1.738271e-002
1.442516e+003,1.724551e-002
1.444445e+003,1.711569e-002
1.446373e+003,1.707745e-002
1.448302e+003,1.706589e-002
1.450230e+003,1.697363e-002
1.452159e+003,1.678042e-002
1.454087e+003,1.654768e-002
1.456016e+003,1.628211e-002
1.457944e+003,1.604549e-002
1.459873e+003,1.592757e-002
1.461801e+003,1.585256e-002
1.463730e+003,1.572308e-002
1.465658e+003,1.554853e-002
1.467587e+003,1.541654e-002
1.469515e+003,1.539888e-002
1.471444e+003,1.543825e-002
1.473372e+003,1.542681e-002
1.475301e+003,1.541564e-002
1.477229e+003,1.540724e-002
1.479158e+003,1.534919e-002
1.481086e+003,1.525103e-002
1.483015e+003,1.516264e-002
1.484943e+003,1.511357e-002
1.486872e+003,1.501398e-002
1.488800e+003,1.499528e-002
1.490729e+003,1.502647e-002
1.492657e+003,1.507463e-002
1.494586e+003,1.521615e-002
1.496514e+003,1.547859e-002
1.498443e+003,1.582473e-002
1.500371e+003,1.623366e-002
1.502300e+003,1.669767e-002
1.504228e+003,1.713232e-002
1.506157e+003,1.747759e-002
1.508085e+003,1.776143e-002
1.510014e+003,1.805501e-002
1.511942e+003,1.836707e-002
1.513871e+003,1.857802e-002
1.515799e+003,1.858798e-002
1.517728e+003,1.836857e-002
1.519656e+003,1.804557e-002
1.521585e+003,1.769622e-002
1.523513e+003,1.747937e-002
1.525442e+003,1.735022e-002
1.527370e+003,1.728963e-002
1.529299e+003,1.729373e-002
1.531227e+003,1.727732e-002
1.533156e+003,1.728267e-002
1.535084e+003,1.729918e-002
1.537013e+003,1.729289e-002
1.538941e+003,1.726744e-002
1.540870e+003,1.721633e-002
1.542798e+003,1.715305e-002
1.544727e+003,1.705993e-002
1.546655e+003,1.690384e-002
1.548584e+003,1.671610e-002
1.550512e+003,1.652886e-002
1.552441e+003,1.634073e-002
1.554369e+003,1.616939e-002
1.556298e+003,1.594995e-002
1.558226e+003,1.579965e-002
1.560155e+003,1.562802e-002
1.562083e+003,1.550346e-002
1.564012e+003,1.538720e-002
1.565940e+003,1.527737e-002
1.567869e+003,1.521764e-002
1.569797e+003,1.523416e-002
1.571726e+003,1.529639e-002
1.573654e+003,1.538868e-002
1.575583e+003,1.552792e-002
1.577511e+003,1.569419e-002
1.579440e+003,1.587729e-002
1.581368e+003,1.612654e-002
1.583297e+003,1.639999e-002
1.585225e+003,1.668837e-002
1.587154e+003,1.694905e-002
1.589082e+003,1.721075e-002
1.591010e+003,1.742854e-002
1.592939e+003,1.760864e-002
1.594868e+003,1.780103e-002
1.596796e+003,1.797432e-002
1.598724e+003,1.811015e-002
1.600653e+003,1.822896e-002
1.602582e+003,1.835340e-002
1.604510e+003,1.839372e-002
1.606438e+003,1.831109e-002
1.608367e+003,1.816706e-002
1.610296e+003,1.807291e-002
1.612224e+003,1.816992e-002
1.614152e+003,1.835641e-002
1.616081e+003,1.853940e-002
1.618010e+003,1.881130e-002
1.619938e+003,1.921384e-002
1.621866e+003,1.963969e-002
1.623795e+003,2.007651e-002
1.625724e+003,2.053013e-002
1.627652e+003,2.089908e-002
1.629580e+003,2.116522e-002
1.631509e+003,2.132072e-002
1.633438e+003,2.140599e-002
1.635366e+003,2.143225e-002
1.637294e+003,2.134531e-002
1.639223e+003,2.128410e-002
1.641151e+003,2.126111e-002
1.643080e+003,2.124437e-002
1.645008e+003,2.125934e-002
1.646937e+003,2.122178e-002
1.648865e+003,2.111405e-002
1.650794e+003,2.097937e-002
1.652722e+003,2.080478e-002
1.654651e+003,2.054442e-002
1.656579e+003,2.026964e-002
1.658508e+003,1.991800e-002
1.660436e+003,1.942297e-002
1.662365e+003,1.891614e-002
1.664293e+003,1.842602e-002
1.666222e+003,1.796382e-002
1.668150e+003,1.736732e-002
1.670079e+003,1.676284e-002
1.672007e+003,1.620605e-002
1.673936e+003,1.565534e-002
1.675864e+003,1.506846e-002
1.677793e+003,1.447643e-002
1.679721e+003,1.381847e-002
1.681650e+003,1.312748e-002
1.683578e+003,1.237442e-002
1.685507e+003,1.158072e-002
1.687435e+003,1.086156e-002
1.689364e+003,1.011342e-002
1.691292e+003,9.480700e-003
1.693221e+003,9.050795e-003
1.695149e+003,8.744744e-003
1.697078e+003,8.551854e-003
1.699006e+003,8.412292e-003
1.700935e+003,8.248080e-003
1.702863e+003,8.075549e-003
1.704792e+003,7.917902e-003
1.706720e+003,7.761025e-003
1.708649e+003,7.686992e-003
1.710577e+003,7.579793e-003
1.712506e+003,7.400231e-003
1.714434e+003,7.290342e-003
1.716363e+003,7.154049e-003
1.718291e+003,7.001292e-003
1.720220e+003,6.862744e-003
1.722148e+003,6.723540e-003
1.724077e+003,6.521537e-003
1.726005e+003,6.340369e-003
1.727934e+003,6.144271e-003
1.729862e+003,5.892789e-003
1.731791e+003,5.612104e-003
1.733719e+003,5.207763e-003
1.735648e+003,4.863026e-003
1.737576e+003,4.570620e-003
1.739505e+003,4.321088e-003
1.741433e+003,4.173681e-003
1.743362e+003,4.179955e-003
1.745290e+003,4.370237e-003
1.747219e+003,4.729754e-003
1.749147e+003,5.217436e-003
1.751076e+003,5.770148e-003
1.753004e+003,6.324884e-003
1.754933e+003,6.791101e-003
1.756861e+003,7.204019e-003
1.758790e+003,7.489775e-003
1.760718e+003,7.666381e-003
1.762647e+003,7.743540e-003
1.764575e+003,7.850417e-003
1.766504e+003,7.929541e-003
1.768432e+003,7.892125e-003
1.770361e+003,7.914023e-003
1.772289e+003,7.978789e-003
1.774218e+003,7.957379e-003
1.776146e+003,7.882105e-003
1.778075e+003,7.810985e-003
1.780003e+003,7.868635e-003
1.781932e+003,7.875768e-003
1.783860e+003,7.894376e-003
1.785789e+003,7.981373e-003
1.787717e+003,8.017946e-003
1.789646e+003,7.999337e-003
1.791574e+003,8.008685e-003
1.793503e+003,8.027372e-003
1.795431e+003,8.095248e-003
1.797360e+003,8.144590e-003
1.799288e+003,8.176384e-003
1.801217e+003,8.158436e-003
1.803145e+003,8.145028e-003
1.805074e+003,8.193268e-003
1.807002e+003,8.171687e-003
1.808931e+003,8.194290e-003
1.810859e+003,8.220955e-003
1.812788e+003,8.238975e-003
1.814716e+003,8.279623e-003
1.816645e+003,8.338626e-003
1.818573e+003,8.333437e-003
1.820502e+003,8.286341e-003
1.822430e+003,8.307727e-003
1.824359e+003,8.347628e-003
1.826287e+003,8.255225e-003
1.828216e+003,8.202189e-003
1.830144e+003,8.185196e-003
1.832073e+003,8.234579e-003
1.834001e+003,8.184818e-003
1.835930e+003,8.207210e-003
1.837858e+003,8.290367e-003
1.839787e+003,8.272194e-003
1.841715e+003,8.209767e-003
1.843644e+003,8.225110e-003
1.845572e+003,8.226915e-003
1.847501e+003,8.199345e-003
1.849429e+003,8.156563e-003
1.851358e+003,8.161421e-003
1.853286e+003,8.211906e-003
1.855215e+003,8.112864e-003
1.857143e+003,8.014163e-003
1.859072e+003,7.895813e-003
1.861000e+003,8.011156e-003
1.862929e+003,8.163199e-003
1.864857e+003,8.123024e-003
1.866786e+003,8.148315e-003
1.868714e+003,8.170995e-003
1.870643e+003,8.136143e-003
1.872571e+003,8.143230e-003
1.874500e+003,8.151164e-003
1.876428e+003,8.156796e-003
1.878357e+003,8.066270e-003
1.880285e+003,7.977275e-003
1.882214e+003,7.983935e-003
1.884142e+003,7.907319e-003
1.886071e+003,7.763673e-003
1.887999e+003,7.839842e-003
1.889928e+003,8.145129e-003
1.891856e+003,8.014782e-003
1.893785e+003,7.790123e-003
1.895713e+003,7.775353e-003
1.897642e+003,7.874775e-003
1.899570e+003,7.929871e-003
1.901499e+003,7.980245e-003
1.903427e+003,8.052470e-003
1.905356e+003,8.052697e-003
1.907284e+003,7.845159e-003
1.909213e+003,7.728139e-003
1.911141e+003,7.882865e-003
1.913070e+003,7.890522e-003
1.914998e+003,7.951193e-003
1.916927e+003,7.983022e-003
1.918855e+003,8.007261e-003
1.920784e+003,7.776214e-003
1.922712e+003,7.635401e-003
1.924641e+003,7.703764e-003
1.926569e+003,7.697247e-003
1.928498e+003,7.744795e-003
1.930426e+003,8.022161e-003
1.932355e+003,7.986839e-003
1.934283e+003,7.744752e-003
1.936212e+003,7.573536e-003
1.938140e+003,7.518121e-003
1.940069e+003,7.351458e-003
1.941997e+003,7.525043e-003
1.943926e+003,7.655758e-003
1.945854e+003,7.233688e-003
1.947783e+003,6.706872e-003
1.949711e+003,6.850443e-003
1.951640e+003,7.172986e-003
1.953568e+003,6.588467e-003
1.955497e+003,6.089903e-003
1.957425e+003,6.040430e-003
1.959354e+003,5.500045e-003
1.961282e+003,5.424428e-003
1.963211e+003,5.241024e-003
1.965139e+003,4.694572e-003
1.967068e+003,4.572994e-003
1.968996e+003,4.617722e-003
1.970925e+003,3.756173e-003
1.972853e+003,3.158729e-003
1.974782e+003,2.826281e-003
1.976710e+003,3.169060e-003
1.978639e+003,3.960402e-003
1.980567e+003,3.815684e-003
1.982496e+003,3.687791e-003
1.984424e+003,3.688867e-003
1.986353e+003,3.888704e-003
1.988281e+003,4.224512e-003
1.990210e+003,4.220891e-003
1.992138e+003,4.348810e-003
1.994067e+003,4.043526e-003
1.995995e+003,3.416591e-003
1.997924e+003,3.391186e-003
1.999852e+003,4.242070e-003
2.001781e+003,4.603834e-003
2.003709e+003,3.550372e-003
2.005638e+003,2.824780e-003
2.007566e+003,3.582902e-003
2.009495e+003,3.622031e-003
2.011423e+003,3.518027e-003
2.013352e+003,3.413566e-003
2.015280e+003,2.927446e-003
2.017208e+003,2.875618e-003
2.019137e+003,2.431182e-003
2.021066e+003,2.196829e-003
2.022994e+003,1.657713e-003
2.024922e+003,2.043867e-003
2.026851e+003,2.535586e-003
2.028780e+003,2.478065e-003
2.030708e+003,2.487903e-003
2.032636e+003,1.911038e-003
2.034565e+003,1.196334e-003
2.036494e+003,1.776988e-003
2.038422e+003,2.122088e-003
2.040350e+003,1.798572e-003
2.042279e+003,1.965954e-003
2.044208e+003,3.663843e-003
2.046136e+003,4.298407e-003
2.048064e+003,3.290581e-003
2.049993e+003,3.743358e-003
2.051921e+003,4.407073e-003
2.053850e+003,4.150761e-003
2.055778e+003,4.398072e-003
2.057707e+003,4.488179e-003
2.059635e+003,4.898051e-003
2.061564e+003,5.076206e-003
2.063492e+003,5.423895e-003
2.065421e+003,5.574572e-003
2.067349e+003,5.079135e-003
2.069278e+003,4.796705e-003
2.071206e+003,5.127064e-003
2.073135e+003,5.540925e-003
2.075063e+003,5.685192e-003
2.076992e+003,5.444931e-003
2.078920e+003,5.642742e-003
2.080849e+003,5.984232e-003
2.082777e+003,5.991958e-003
2.084706e+003,5.606959e-003
2.086634e+003,5.733075e-003
2.088563e+003,5.859828e-003
2.090491e+003,5.767078e-003
2.092420e+003,5.857914e-003
2.094348e+003,5.576207e-003
2.096277e+003,5.521585e-003
2.098205e+003,5.587565e-003
2.100134e+003,6.044767e-003
2.102062e+003,6.451162e-003
2.103991e+003,6.597275e-003
2.105919e+003,6.574871e-003
2.107848e+003,6.452844e-003
2.109776e+003,6.491520e-003
2.111705e+003,6.745792e-003
2.113633e+003,6.857231e-003
2.115562e+003,7.095215e-003
2.117490e+003,7.255762e-003
2.119419e+003,6.865882e-003
2.121347e+003,6.659011e-003
2.123276e+003,6.783250e-003
2.125204e+003,6.729976e-003
2.127133e+003,6.709483e-003
2.129061e+003,6.762989e-003
2.130990e+003,6.742797e-003
2.132918e+003,6.492596e-003
2.134847e+003,6.025683e-003
2.136775e+003,5.844768e-003
2.138704e+003,5.715560e-003
2.140632e+003,6.218606e-003
2.142561e+003,6.304224e-003
2.144489e+003,6.021618e-003
2.146418e+003,5.849268e-003
2.148346e+003,5.463634e-003
2.150275e+003,5.037613e-003
2.152203e+003,3.925416e-003
2.154132e+003,2.674415e-003
2.156060e+003,1.812298e-003
2.157989e+003,1.071650e-003
2.159917e+003,-4.903388e-004
2.161846e+003,1.545002e-003
2.163774e+003,2.614342e-003
2.165703e+003,2.867722e-003
2.167631e+003,1.865637e-003
2.169560e+003,1.542874e-003
2.171488e+003,2.509453e-003
2.173417e+003,3.117245e-003
2.175345e+003,3.230860e-003
2.177274e+003,3.106099e-003
2.179202e+003,3.293889e-003
2.181131e+003,3.640076e-003
2.183059e+003,3.376027e-003
2.184988e+003,3.379400e-003
2.186916e+003,4.340340e-003
2.188845e+003,4.599685e-003
2.190773e+003,4.559235e-003
2.192702e+003,4.435564e-003
2.194630e+003,4.663549e-003
2.196559e+003,3.930164e-003
2.198487e+003,4.124165e-003
2.200416e+003,4.942324e-003
2.202344e+003,5.049814e-003
2.204273e+003,5.055580e-003
2.206201e+003,4.776733e-003
2.208130e+003,4.742028e-003
2.210058e+003,5.139159e-003
2.211987e+003,5.536116e-003
2.213915e+003,5.733455e-003
2.215844e+003,5.930413e-003
2.217772e+003,5.893096e-003
2.219701e+003,6.404150e-003
2.221629e+003,6.277431e-003
2.223558e+003,6.039223e-003
2.225486e+003,6.724592e-003
2.227415e+003,7.173999e-003
2.229343e+003,6.945769e-003
2.231272e+003,7.127098e-003
2.233200e+003,7.244842e-003
2.235129e+003,7.196178e-003
2.237057e+003,6.990816e-003
2.238986e+003,7.125809e-003
2.240914e+003,7.368851e-003
2.242843e+003,6.986491e-003
2.244771e+003,6.885415e-003
2.246700e+003,7.304925e-003
2.248628e+003,7.419630e-003
2.250557e+003,7.314155e-003
2.252485e+003,7.386566e-003
2.254414e+003,7.586231e-003
2.256342e+003,7.772587e-003
2.258271e+003,7.617176e-003
2.260199e+003,7.460452e-003
2.262128e+003,7.538890e-003
2.264056e+003,7.916354e-003
2.265985e+003,7.970029e-003
2.267913e+003,7.642857e-003
2.269842e+003,7.620241e-003
2.271770e+003,7.764134e-003
2.273699e+003,7.655987e-003
2.275627e+003,7.744087e-003
2.277556e+003,7.854346e-003
2.279484e+003,7.867061e-003
2.281413e+003,7.717977e-003
2.283341e+003,7.695260e-003
2.285270e+003,7.878745e-003
2.287198e+003,7.998651e-003
2.289127e+003,8.230044e-003
2.291055e+003,8.309772e-003
2.292984e+003,8.431465e-003
2.294912e+003,8.409640e-003
2.296841e+003,8.296146e-003
2.298769e+003,8.219059e-003
2.300698e+003,8.254209e-003
2.302626e+003,8.386222e-003
2.304555e+003,8.459665e-003
2.306483e+003,8.619632e-003
2.308412e+003,8.653825e-003
2.310340e+003,8.538227e-003
2.312269e+003,8.481446e-003
2.314197e+003,8.548242e-003
2.316125e+003,8.311915e-003
2.318054e+003,8.204968e-003
2.319983e+003,8.406068e-003
2.321911e+003,8.758210e-003
2.323840e+003,8.883727e-003
2.325768e+003,8.666776e-003
2.327697e+003,8.424949e-003
2.329625e+003,8.398239e-003
2.331553e+003,8.341788e-003
2.333482e+003,8.485478e-003
2.335411e+003,9.033503e-003
2.337339e+003,9.171602e-003
2.339268e+003,8.760110e-003
2.341196e+003,8.583941e-003
2.343125e+003,8.690810e-003
2.345053e+003,8.366530e-003
2.346981e+003,8.137403e-003
2.348910e+003,8.127407e-003
2.350839e+003,8.033442e-003
2.352767e+003,7.965147e-003
2.354696e+003,7.962413e-003
2.356624e+003,8.214920e-003
2.358552e+003,8.167212e-003
2.360481e+003,8.028011e-003
2.362409e+003,7.945019e-003
2.364338e+003,8.185299e-003
2.366267e+003,8.060826e-003
2.368195e+003,8.123548e-003
2.370124e+003,8.506654e-003
2.372052e+003,8.669042e-003
2.373980e+003,8.904887e-003
2.375909e+003,8.892363e-003
2.377838e+003,8.883330e-003
2.379766e+003,8.768606e-003
2.381695e+003,8.661740e-003
2.383623e+003,8.639200e-003
2.385552e+003,8.770118e-003
2.387480e+003,8.855649e-003
2.389408e+003,8.820220e-003
2.391337e+003,8.911983e-003
2.393266e+003,8.975276e-003
2.395194e+003,9.015695e-003
2.397123e+003,9.110433e-003
2.399051e+003,9.167926e-003
2.400979e+003,9.184879e-003
2.402908e+003,9.228572e-003
2.404836e+003,9.355004e-003
2.406765e+003,9.367869e-003
2.408694e+003,9.391231e-003
2.410622e+003,9.422720e-003
2.412551e+003,9.394041e-003
2.414479e+003,9.402032e-003
2.416407e+003,9.408363e-003
2.418336e+003,9.385576e-003
2.420264e+003,9.471110e-003
2.422193e+003,9.586061e-003
2.424122e+003,9.635554e-003
2.426050e+003,9.718798e-003
2.427979e+003,9.728184e-003
2.429907e+003,9.651477e-003
2.431835e+003,9.713377e-003
2.433764e+003,9.650561e-003
2.435692e+003,9.628371e-003
2.437621e+003,9.641211e-003
2.439550e+003,9.561944e-003
2.441478e+003,9.599374e-003
2.443406e+003,9.656524e-003
2.445335e+003,9.602897e-003
2.447263e+003,9.657778e-003
2.449192e+003,9.634741e-003
2.451121e+003,9.654152e-003
2.453049e+003,9.619632e-003
2.454978e+003,9.546702e-003
2.456906e+003,9.601610e-003
2.458834e+003,9.576374e-003
2.460763e+003,9.327413e-003
2.462691e+003,9.457056e-003
2.464620e+003,9.526550e-003
2.466549e+003,9.455804e-003
2.468477e+003,9.309268e-003
2.470406e+003,9.376503e-003
2.472334e+003,9.373320e-003
2.474262e+003,9.228504e-003
2.476191e+003,9.301515e-003
2.478119e+003,9.411952e-003
2.480048e+003,9.401761e-003
2.481977e+003,9.388996e-003
2.483905e+003,9.370476e-003
2.485833e+003,9.241637e-003
2.487762e+003,9.188332e-003
2.489690e+003,9.337535e-003
2.491619e+003,9.417302e-003
2.493547e+003,9.274232e-003
2.495476e+003,9.329918e-003
2.497405e+003,9.337738e-003
2.499333e+003,9.262453e-003
2.501261e+003,9.293120e-003
2.503190e+003,9.432269e-003
2.505118e+003,9.422584e-003
2.507047e+003,9.261776e-003
2.508975e+003,9.320743e-003
2.510904e+003,9.492275e-003
2.512833e+003,9.454043e-003
2.514761e+003,9.307541e-003
2.516689e+003,9.245394e-003
2.518618e+003,9.270847e-003
2.520546e+003,9.426614e-003
2.522475e+003,9.429594e-003
2.524403e+003,9.461289e-003
2.526332e+003,9.482455e-003
2.528260e+003,9.499862e-003
2.530189e+003,9.377146e-003
2.532117e+003,9.341530e-003
2.534046e+003,9.365567e-003
2.535974e+003,9.371966e-003
2.537903e+003,9.455194e-003
2.539831e+003,9.454585e-003
2.541760e+003,9.433284e-003
2.543688e+003,9.498372e-003
2.545617e+003,9.481337e-003
2.547545e+003,9.494510e-003
2.549474e+003,9.416794e-003
2.551402e+003,9.422754e-003
2.553331e+003,9.423397e-003
2.555259e+003,9.380057e-003
2.557188e+003,9.365364e-003
2.559116e+003,9.395259e-003
2.561045e+003,9.435926e-003
2.562973e+003,9.364077e-003
2.564902e+003,9.389808e-003
2.566830e+003,9.422280e-003
2.568759e+003,9.444087e-003
2.570687e+003,9.450656e-003
2.572616e+003,9.457158e-003
2.574544e+003,9.455262e-003
2.576473e+003,9.416388e-003
2.578401e+003,9.467317e-003
2.580330e+003,9.575730e-003
2.582258e+003,9.594834e-003
2.584187e+003,9.436569e-003
2.586115e+003,9.334082e-003
2.588044e+003,9.438906e-003
2.589972e+003,9.465387e-003
2.591901e+003,9.421671e-003
2.593829e+003,9.504942e-003
2.595758e+003,9.509988e-003
2.597686e+003,9.400101e-003
2.599615e+003,9.373794e-003
2.601543e+003,9.358863e-003
2.603472e+003,9.400846e-003
2.605400e+003,9.415575e-003
2.607329e+003,9.378906e-003
2.609257e+003,9.362553e-003
2.611186e+003,9.330730e-003
2.613114e+003,9.325719e-003
2.615043e+003,9.279817e-003
2.616971e+003,9.233073e-003
2.618900e+003,9.186808e-003
2.620828e+003,9.215068e-003
2.622757e+003,9.306729e-003
2.624685e+003,9.297860e-003
2.626614e+003,9.209822e-003
2.628542e+003,9.218892e-003
2.630471e+003,9.294610e-003
2.632399e+003,9.338279e-003
2.634328e+003,9.284793e-003
2.636256e+003,9.270577e-003
2.638185e+003,9.313567e-003
2.640113e+003,9.355037e-003
2.642042e+003,9.427258e-003
2.643970e+003,9.484961e-003
2.645899e+003,9.475580e-003
2.647827e+003,9.551140e-003
2.649756e+003,9.570480e-003
2.651684e+003,9.590296e-003
2.653613e+003,9.685491e-003
2.655541e+003,9.742958e-003
2.657470e+003,9.751159e-003
2.659398e+003,9.810057e-003
2.661327e+003,9.839543e-003
2.663255e+003,9.873268e-003
2.665184e+003,9.865201e-003
2.667112e+003,9.936659e-003
2.669041e+003,9.987547e-003
2.670969e+003,1.004919e-002
2.672898e+003,1.010406e-002
2.674826e+003,1.013075e-002
2.676755e+003,1.011545e-002
2.678683e+003,1.012573e-002
2.680612e+003,1.017623e-002
2.682540e+003,1.016399e-002
2.684469e+003,1.021545e-002
2.686397e+003,1.027119e-002
2.688326e+003,1.027448e-002
2.690254e+003,1.025962e-002
2.692183e+003,1.027241e-002
2.694111e+003,1.029802e-002
2.696040e+003,1.034244e-002
2.697968e+003,1.034973e-002
2.699897e+003,1.036205e-002
2.701825e+003,1.040162e-002
2.703754e+003,1.042005e-002
2.705682e+003,1.038856e-002
2.707611e+003,1.041781e-002
2.709539e+003,1.043274e-002
2.711468e+003,1.037824e-002
2.713396e+003,1.040997e-002
2.715325e+003,1.043481e-002
2.717253e+003,1.043386e-002
2.719182e+003,1.040807e-002
2.721110e+003,1.039802e-002
2.723039e+003,1.044510e-002
2.724967e+003,1.046156e-002
2.726896e+003,1.037576e-002
2.728824e+003,1.038526e-002
2.730753e+003,1.040817e-002
2.732681e+003,1.038095e-002
2.734610e+003,1.036935e-002
2.736538e+003,1.039185e-002
2.738467e+003,1.039273e-002
2.740395e+003,1.041961e-002
2.742324e+003,1.041584e-002
2.744252e+003,1.042436e-002
2.746181e+003,1.039490e-002
2.748109e+003,1.038329e-002
2.750038e+003,1.039731e-002
2.751966e+003,1.044133e-002
2.753895e+003,1.047144e-002
2.755823e+003,1.046275e-002
2.757752e+003,1.047079e-002
2.759680e+003,1.050107e-002
2.761609e+003,1.049428e-002
2.763537e+003,1.045827e-002
2.765466e+003,1.046692e-002
2.767394e+003,1.049947e-002
2.769323e+003,1.049581e-002
2.771251e+003,1.048430e-002
2.773180e+003,1.052252e-002
2.775108e+003,1.054242e-002
2.777037e+003,1.049465e-002
2.778965e+003,1.046118e-002
2.780894e+003,1.045820e-002
2.782822e+003,1.045969e-002
2.784750e+003,1.044211e-002
2.786679e+003,1.044146e-002
2.788608e+003,1.044730e-002
2.790536e+003,1.045698e-002
2.792465e+003,1.054299e-002
2.794393e+003,1.053186e-002
2.796322e+003,1.048515e-002
2.798250e+003,1.045660e-002
2.800178e+003,1.047222e-002
2.802107e+003,1.046641e-002
2.804036e+003,1.048080e-002
2.805964e+003,1.044228e-002
2.807893e+003,1.043424e-002
2.809821e+003,1.041798e-002
2.811750e+003,1.037844e-002
2.813678e+003,1.034492e-002
2.815606e+003,1.035180e-002
2.817535e+003,1.036809e-002
2.819464e+003,1.035625e-002
2.821392e+003,1.025782e-002
2.823321e+003,1.027271e-002
2.825249e+003,1.028004e-002
2.827177e+003,1.020195e-002
2.829106e+003,1.011762e-002
2.831034e+003,1.009680e-002
2.832963e+003,1.004851e-002
2.834892e+003,9.981342e-003
2.836820e+003,9.892454e-003
2.838749e+003,9.773626e-003
2.840677e+003,9.524619e-003
2.842605e+003,9.195168e-003
2.844534e+003,8.761076e-003
2.846462e+003,8.284324e-003
2.848391e+003,7.855325e-003
2.850320e+003,7.507550e-003
2.852248e+003,7.225036e-003
2.854177e+003,7.050524e-003
2.856105e+003,7.026951e-003
2.858033e+003,7.161569e-003
2.859962e+003,7.386879e-003
2.861890e+003,7.671522e-003
2.863819e+003,7.940828e-003
2.865748e+003,8.200577e-003
2.867676e+003,8.487917e-003
2.869604e+003,8.750258e-003
2.871533e+003,8.939559e-003
2.873461e+003,9.173339e-003
2.875390e+003,9.371289e-003
2.877319e+003,9.583657e-003
2.879247e+003,9.727879e-003
2.881176e+003,9.823817e-003
2.883104e+003,9.829206e-003
2.885032e+003,9.769288e-003
2.886961e+003,9.672617e-003
2.888889e+003,9.517846e-003
2.890818e+003,9.371797e-003
2.892747e+003,9.307236e-003
2.894675e+003,9.160446e-003
2.896604e+003,8.922918e-003
2.898532e+003,8.766959e-003
2.900460e+003,8.647324e-003
2.902389e+003,8.380214e-003
2.904317e+003,8.064759e-003
2.906246e+003,7.816460e-003
2.908175e+003,7.559773e-003
2.910103e+003,7.239961e-003
2.912031e+003,6.860597e-003
2.913960e+003,6.436466e-003
2.915888e+003,5.969109e-003
2.917817e+003,5.486786e-003
2.919745e+003,5.066575e-003
2.921674e+003,4.684784e-003
2.923603e+003,4.290377e-003
2.925531e+003,4.036969e-003
2.927459e+003,4.000149e-003
2.929388e+003,4.081518e-003
2.931316e+003,4.199970e-003
2.933245e+003,4.411262e-003
2.935173e+003,4.741103e-003
2.937102e+003,5.091850e-003
2.939031e+003,5.430877e-003
2.940959e+003,5.744655e-003
2.942887e+003,6.012245e-003
2.944816e+003,6.156191e-003
2.946744e+003,6.290884e-003
2.948673e+003,6.329047e-003
2.950601e+003,6.393825e-003
2.952530e+003,6.491672e-003
2.954458e+003,6.584306e-003
2.956387e+003,6.758020e-003
2.958315e+003,6.996384e-003
2.960244e+003,7.276949e-003
2.962172e+003,7.629051e-003
2.964101e+003,7.924417e-003
2.966029e+003,8.211703e-003
2.967958e+003,8.421372e-003
2.969886e+003,8.724261e-003
2.971815e+003,8.978685e-003
2.973743e+003,9.157330e-003
2.975672e+003,9.298871e-003
2.977600e+003,9.398646e-003
2.979529e+003,9.549599e-003
2.981457e+003,9.639064e-003
2.983386e+003,9.672320e-003
2.985314e+003,9.734134e-003
2.987243e+003,9.832272e-003
2.989171e+003,9.905017e-003
2.991100e+003,9.895407e-003
2.993028e+003,1.001406e-002
2.994957e+003,1.008755e-002
2.996885e+003,1.013324e-002
2.998814e+003,1.021206e-002
3.000742e+003,1.025262e-002
3.002671e+003,1.032676e-002
3.004599e+003,1.037370e-002
3.006528e+003,1.032918e-002
3.008456e+003,1.044476e-002
3.010385e+003,1.055539e-002
3.012313e+003,1.054257e-002
3.014242e+003,1.060350e-002
3.016170e+003,1.069666e-002
3.018099e+003,1.074533e-002
3.020027e+003,1.082730e-002
3.021956e+003,1.088906e-002
3.023884e+003,1.092863e-002
3.025813e+003,1.096332e-002
3.027741e+003,1.105744e-002
3.029670e+003,1.115113e-002
3.031598e+003,1.116851e-002
3.033527e+003,1.117383e-002
3.035455e+003,1.118741e-002
3.037384e+003,1.119762e-002
3.039312e+003,1.127809e-002
3.041241e+003,1.128889e-002
3.043169e+003,1.129247e-002
3.045098e+003,1.133231e-002
3.047026e+003,1.139816e-002
3.048955e+003,1.141032e-002
3.050883e+003,1.148151e-002
3.052812e+003,1.154691e-002
3.054740e+003,1.154991e-002
3.056669e+003,1.160948e-002
3.058597e+003,1.160499e-002
3.060526e+003,1.163626e-002
3.062454e+003,1.171421e-002
3.064383e+003,1.175150e-002
3.066311e+003,1.175462e-002
3.068240e+003,1.175218e-002
3.070168e+003,1.181091e-002
3.072097e+003,1.186789e-002
3.074025e+003,1.187623e-002
3.075954e+003,1.182298e-002
3.077882e+003,1.189308e-002
3.079811e+003,1.193403e-002
3.081739e+003,1.201089e-002
3.083668e+003,1.202464e-002
3.085596e+003,1.209161e-002
3.087525e+003,1.216177e-002
3.089453e+003,1.221668e-002
3.091382e+003,1.216058e-002
3.093310e+003,1.223185e-002
3.095239e+003,1.225870e-002
3.097167e+003,1.230074e-002
3.099096e+003,1.226850e-002
3.101024e+003,1.228108e-002
3.102953e+003,1.234233e-002
3.104881e+003,1.246572e-002
3.106810e+003,1.248653e-002
3.108738e+003,1.250177e-002
3.110667e+003,1.256269e-002
3.112595e+003,1.261978e-002
3.114524e+003,1.265724e-002
3.116452e+003,1.270141e-002
3.118381e+003,1.272595e-002
3.120309e+003,1.278363e-002
3.122238e+003,1.283695e-002
3.124166e+003,1.284660e-002
3.126095e+003,1.281979e-002
3.128023e+003,1.286042e-002
3.129952e+003,1.294346e-002
3.131880e+003,1.298735e-002
3.133809e+003,1.300972e-002
3.135737e+003,1.312227e-002
3.137666e+003,1.318943e-002
3.139594e+003,1.330713e-002
3.141523e+003,1.341926e-002
3.143451e+003,1.344623e-002
3.145380e+003,1.340611e-002
3.147308e+003,1.337773e-002
3.149237e+003,1.344793e-002
3.151165e+003,1.357240e-002
3.153094e+003,1.364786e-002
3.155022e+003,1.359495e-002
3.156951e+003,1.365364e-002
3.158879e+003,1.374068e-002
3.160808e+003,1.378903e-002
3.162736e+003,1.391490e-002
3.164665e+003,1.391871e-002
3.166593e+003,1.396886e-002
3.168522e+003,1.397789e-002
3.170450e+003,1.408488e-002
3.172379e+003,1.418694e-002
3.174307e+003,1.428899e-002
3.176236e+003,1.433428e-002
3.178164e+003,1.435275e-002
3.180093e+003,1.443632e-002
3.182021e+003,1.458531e-002
3.183950e+003,1.462259e-002
3.185878e+003,1.464215e-002
3.187807e+003,1.471214e-002
3.189735e+003,1.476995e-002
3.191664e+003,1.475912e-002
3.193592e+003,1.485138e-002
3.195521e+003,1.499782e-002
3.197449e+003,1.505990e-002
3.199378e+003,1.501536e-002
3.201306e+003,1.505510e-002
3.203235e+003,1.522113e-002
3.205163e+003,1.532791e-002
3.207092e+003,1.541827e-002
3.209020e+003,1.550298e-002
3.210948e+003,1.555569e-002
3.212877e+003,1.561091e-002
3.214806e+003,1.567367e-002
3.216734e+003,1.569894e-002
3.218663e+003,1.573373e-002
3.220591e+003,1.582908e-002
3.222520e+003,1.592778e-002
3.224448e+003,1.599443e-002
3.226376e+003,1.609569e-002
3.228305e+003,1.617850e-002
3.230234e+003,1.632635e-002
3.232162e+003,1.644613e-002
3.234091e+003,1.644324e-002
3.236019e+003,1.646580e-002
3.237948e+003,1.663092e-002
3.239876e+003,1.667693e-002
3.241804e+003,1.671877e-002
3.243733e+003,1.684880e-002
3.245662e+003,1.695267e-002
3.247590e+003,1.701305e-002
3.249519e+003,1.719258e-002
3.251447e+003,1.733633e-002
3.253375e+003,1.734647e-002
3.255304e+003,1.733975e-002
3.257232e+003,1.744408e-002
3.259161e+003,1.753432e-002
3.261090e+003,1.762075e-002
3.263018e+003,1.775267e-002
3.264947e+003,1.786042e-002
3.266875e+003,1.795925e-002
3.268803e+003,1.804094e-002
3.270732e+003,1.820639e-002
3.272660e+003,1.826407e-002
3.274589e+003,1.824076e-002
3.276518e+003,1.830442e-002
3.278446e+003,1.836983e-002
3.280375e+003,1.842598e-002
3.282303e+003,1.846809e-002
3.284231e+003,1.855117e-002
3.286160e+003,1.851980e-002
3.288088e+003,1.850632e-002
3.290017e+003,1.857980e-002
3.291946e+003,1.862428e-002
3.293874e+003,1.868814e-002
3.295802e+003,1.871286e-002
3.297731e+003,1.862679e-002
3.299659e+003,1.867566e-002
3.301588e+003,1.871566e-002
3.303516e+003,1.873622e-002
3.305445e+003,1.873366e-002
3.307374e+003,1.876615e-002
3.309302e+003,1.882272e-002
3.311230e+003,1.884602e-002
3.313159e+003,1.882132e-002
3.315087e+003,1.882084e-002
3.317016e+003,1.885053e-002
3.318944e+003,1.895010e-002
3.320873e+003,1.900455e-002
3.322802e+003,1.902134e-002
3.324730e+003,1.904737e-002
3.326658e+003,1.902951e-002
3.328587e+003,1.901452e-002
3.330515e+003,1.903535e-002
3.332444e+003,1.908035e-002
3.334372e+003,1.907806e-002
3.336301e+003,1.910072e-002
3.338229e+003,1.913989e-002
3.340158e+003,1.915862e-002
3.342086e+003,1.904399e-002
3.344015e+003,1.902239e-002
3.345943e+003,1.899093e-002
3.347872e+003,1.901530e-002
3.349800e+003,1.902873e-002
3.351729e+003,1.894422e-002
3.353657e+003,1.889941e-002
3.355586e+003,1.892398e-002
3.357514e+003,1.893686e-002
3.359443e+003,1.888503e-002
3.361371e+003,1.877511e-002
3.363300e+003,1.877178e-002
3.365229e+003,1.866630e-002
3.367157e+003,1.860514e-002
3.369085e+003,1.859927e-002
3.371014e+003,1.850955e-002
3.372942e+003,1.843549e-002
3.374871e+003,1.841529e-002
3.376799e+003,1.843527e-002
3.378728e+003,1.840903e-002
3.380656e+003,1.833216e-002
3.382585e+003,1.832862e-002
3.384513e+003,1.828759e-002
3.386442e+003,1.821890e-002
3.388370e+003,1.815687e-002
3.390299e+003,1.810438e-002
3.392227e+003,1.804616e-002
3.394156e+003,1.793650e-002
3.396084e+003,1.787283e-002
3.398013e+003,1.783095e-002
3.399941e+003,1.783370e-002
3.401870e+003,1.779356e-002
3.403798e+003,1.766939e-002
3.405727e+003,1.756851e-002
3.407655e+003,1.751873e-002
3.409584e+003,1.741683e-002
3.411512e+003,1.735327e-002
3.413441e+003,1.736791e-002
3.415369e+003,1.732172e-002
3.417298e+003,1.719432e-002
3.419226e+003,1.700229e-002
3.421155e+003,1.697074e-002
3.423083e+003,1.694739e-002
3.425012e+003,1.683167e-002
3.426940e+003,1.673626e-002
3.428869e+003,1.667313e-002
3.430797e+003,1.650796e-002
3.432726e+003,1.631439e-002
3.434654e+003,1.621791e-002
3.436583e+003,1.627682e-002
3.438511e+003,1.611527e-002
3.440440e+003,1.588509e-002
3.442368e+003,1.580128e-002
3.444297e+003,1.578600e-002
3.446225e+003,1.565365e-002
3.448154e+003,1.552499e-002
3.450082e+003,1.538611e-002
3.452011e+003,1.519917e-002
3.453939e+003,1.503856e-002
3.455868e+003,1.496350e-002
3.457796e+003,1.494138e-002
3.459725e+003,1.488375e-002
3.461653e+003,1.474722e-002
3.463582e+003,1.460411e-002
3.465510e+003,1.443437e-002
3.467439e+003,1.431734e-002
3.469367e+003,1.428493e-002
3.471296e+003,1.412090e-002
3.473224e+003,1.398738e-002
3.475153e+003,1.397851e-002
3.477081e+003,1.387589e-002
3.479010e+003,1.373845e-002
3.480938e+003,1.363313e-002
3.482867e+003,1.351954e-002
3.484795e+003,1.350001e-002
3.486724e+003,1.339231e-002
3.488652e+003,1.324493e-002
3.490581e+003,1.315503e-002
3.492509e+003,1.308698e-002
3.494438e+003,1.299849e-002
3.496366e+003,1.295473e-002
3.498295e+003,1.287182e-002
3.500223e+003,1.271051e-002
3.502152e+003,1.254511e-002
3.504080e+003,1.238672e-002
3.506009e+003,1.234353e-002
3.507937e+003,1.227941e-002
3.509866e+003,1.218621e-002
3.511794e+003,1.202705e-002
3.513723e+003,1.191179e-002
3.515651e+003,1.177618e-002
3.517580e+003,1.171508e-002
3.519508e+003,1.169815e-002
3.521437e+003,1.166577e-002
3.523365e+003,1.154178e-002
3.525294e+003,1.143452e-002
3.527222e+003,1.138847e-002
3.529151e+003,1.140251e-002
3.531079e+003,1.136100e-002
3.533008e+003,1.123872e-002
3.534936e+003,1.114282e-002
3.536865e+003,1.103720e-002
3.538793e+003,1.094820e-002
3.540722e+003,1.081095e-002
3.542650e+003,1.074636e-002
3.544579e+003,1.075122e-002
3.546507e+003,1.063671e-002
3.548436e+003,1.055840e-002
3.550364e+003,1.040521e-002
3.552293e+003,1.031150e-002
3.554221e+003,1.030481e-002
3.556150e+003,1.022439e-002
3.558078e+003,1.018459e-002
3.560007e+003,1.023516e-002
3.561935e+003,1.013610e-002
3.563864e+003,1.016615e-002
3.565792e+003,1.015537e-002
3.567721e+003,1.003952e-002
3.569649e+003,9.907993e-003
3.571578e+003,9.846558e-003
3.573506e+003,9.739064e-003
3.575435e+003,9.724303e-003
3.577363e+003,9.777452e-003
3.579292e+003,9.763082e-003
3.581220e+003,9.753476e-003
3.583149e+003,9.694138e-003
3.585077e+003,9.650298e-003
3.587006e+003,9.647402e-003
3.588934e+003,9.558271e-003
3.590863e+003,9.501678e-003
3.592791e+003,9.569659e-003
3.594720e+003,9.560729e-003
3.596648e+003,9.467294e-003
3.598577e+003,9.441452e-003
3.600505e+003,9.415725e-003
3.602434e+003,9.332115e-003
3.604362e+003,9.269535e-003
3.606291e+003,9.100062e-003
3.608219e+003,9.059926e-003
3.610148e+003,8.963822e-003
3.612076e+003,8.635132e-003
3.614005e+003,8.506087e-003
3.615933e+003,8.610100e-003
3.617862e+003,8.687872e-003
3.619790e+003,8.813802e-003
3.621719e+003,8.944821e-003
3.623647e+003,8.994654e-003
3.625576e+003,8.978717e-003
3.627504e+003,8.872545e-003
3.629433e+003,8.904493e-003
3.631361e+003,8.726154e-003
3.633290e+003,8.569409e-003
3.635218e+003,8.507826e-003
3.637146e+003,8.361343e-003
3.639075e+003,8.211860e-003
3.641004e+003,8.139653e-003
3.642932e+003,8.027215e-003
3.644861e+003,7.935490e-003
3.646789e+003,7.885137e-003
3.648718e+003,7.889600e-003
3.650646e+003,7.829965e-003
3.652574e+003,7.827102e-003
3.654503e+003,7.765594e-003
3.656432e+003,7.748424e-003
3.658360e+003,7.779522e-003
3.660289e+003,7.792853e-003
3.662217e+003,7.843410e-003
3.664146e+003,7.796803e-003
3.666074e+003,7.720103e-003
3.668002e+003,7.772748e-003
3.669931e+003,7.771312e-003
3.671860e+003,7.757213e-003
3.673788e+003,7.754853e-003
3.675717e+003,7.701108e-003
3.677645e+003,7.654504e-003
3.679573e+003,7.712663e-003
3.681502e+003,7.794902e-003
3.683430e+003,7.878269e-003
3.685359e+003,7.921169e-003
3.687288e+003,8.014332e-003
3.689216e+003,8.122751e-003
3.691145e+003,8.212867e-003
3.693073e+003,8.207483e-003
3.695001e+003,8.195710e-003
3.696930e+003,8.206871e-003
3.698858e+003,8.408773e-003
3.700787e+003,8.485167e-003
3.702716e+003,8.403815e-003
3.704644e+003,8.337913e-003
3.706573e+003,8.225756e-003
3.708501e+003,8.114279e-003
3.710429e+003,8.080416e-003
3.712358e+003,7.956137e-003
3.714286e+003,7.806253e-003
3.716215e+003,7.859407e-003
3.718144e+003,8.065207e-003
3.720072e+003,8.177562e-003
3.722000e+003,8.358968e-003
3.723929e+003,8.563154e-003
3.725857e+003,8.605943e-003
3.727786e+003,8.583922e-003
3.729714e+003,8.477732e-003
3.731643e+003,8.357747e-003
3.733572e+003,8.338558e-003
3.735500e+003,8.303985e-003
3.737428e+003,8.156069e-003
3.739357e+003,8.076807e-003
3.741285e+003,7.968903e-003
3.743214e+003,7.811703e-003
3.745142e+003,7.804108e-003
3.747071e+003,7.789274e-003
3.749000e+003,7.780246e-003
3.750928e+003,7.742292e-003
3.752856e+003,7.778344e-003
3.754785e+003,7.776647e-003
3.756713e+003,7.789054e-003
3.758642e+003,7.794259e-003
3.760570e+003,7.725612e-003
3.762499e+003,7.716535e-003
3.764427e+003,7.722585e-003
3.766356e+003,7.699317e-003
3.768284e+003,7.744613e-003
3.770213e+003,7.758462e-003
3.772141e+003,7.711589e-003
3.774070e+003,7.794428e-003
3.775998e+003,7.899205e-003
3.777927e+003,7.952896e-003
3.779855e+003,7.991972e-003
3.781784e+003,7.854905e-003
3.783712e+003,7.863305e-003
3.785641e+003,7.939291e-003
3.787569e+003,7.897891e-003
3.789498e+003,7.970381e-003
3.791426e+003,7.945627e-003
3.793355e+003,7.874512e-003
3.795283e+003,7.925542e-003
3.797212e+003,7.975617e-003
3.799140e+003,8.019365e-003
3.801069e+003,8.008854e-003
3.802997e+003,7.971863e-003
3.804926e+003,8.020225e-003
3.806854e+003,8.040640e-003
3.808783e+003,8.081634e-003
3.810711e+003,8.101906e-003
3.812640e+003,8.021229e-003
3.814568e+003,8.019392e-003
3.816497e+003,7.956714e-003
3.818425e+003,7.930913e-003
3.820354e+003,7.966093e-003
3.822282e+003,7.994512e-003
3.824211e+003,7.979690e-003
3.826139e+003,8.063709e-003
3.828068e+003,8.045796e-003
3.829996e+003,8.059796e-003
3.831925e+003,8.045769e-003
3.833853e+003,8.052012e-003
3.835782e+003,8.069718e-003
3.837710e+003,8.124747e-003
3.839639e+003,8.105202e-003
3.841567e+003,8.030689e-003
3.843496e+003,8.078292e-003
3.845424e+003,8.122614e-003
3.847353e+003,8.143207e-003
3.849281e+003,8.145631e-003
3.851210e+003,8.032854e-003
3.853138e+003,7.992888e-003
3.855067e+003,8.133708e-003
3.856995e+003,8.164269e-003
3.858924e+003,8.124689e-003
3.860852e+003,8.206527e-003
3.862781e+003,8.156721e-003
3.864709e+003,8.107741e-003
3.866638e+003,8.152703e-003
3.868566e+003,8.183573e-003
3.870495e+003,8.191990e-003
3.872423e+003,8.160338e-003
3.874352e+003,8.135483e-003
3.876280e+003,8.101728e-003
3.878209e+003,8.120127e-003
3.880137e+003,8.129553e-003
3.882066e+003,8.109840e-003
3.883994e+003,8.112204e-003
3.885923e+003,8.142670e-003
3.887851e+003,8.196430e-003
3.889780e+003,8.172506e-003
3.891708e+003,8.138676e-003
3.893637e+003,8.195698e-003
3.895565e+003,8.277105e-003
3.897494e+003,8.233691e-003
3.899422e+003,8.183239e-003
3.901351e+003,8.195564e-003
3.903279e+003,8.174826e-003
3.905208e+003,8.139633e-003
3.907136e+003,8.165275e-003
3.909065e+003,8.176728e-003
3.910993e+003,8.185273e-003
3.912922e+003,8.299107e-003
3.914850e+003,8.392599e-003
3.916779e+003,8.339339e-003
3.918707e+003,8.288129e-003
3.920636e+003,8.274574e-003
3.922564e+003,8.236900e-003
3.924493e+003,8.207941e-003
3.926421e+003,8.251010e-003
3.928350e+003,8.264295e-003
3.930278e+003,8.273958e-003
3.932207e+003,8.294228e-003
3.934135e+003,8.310165e-003
3.936064e+003,8.278203e-003
3.937992e+003,8.274972e-003
3.939921e+003,8.322565e-003
3.941849e+003,8.239831e-003
3.943778e+003,8.153564e-003
3.945706e+003,8.206789e-003
3.947635e+003,8.277973e-003
3.949563e+003,8.372202e-003
3.951492e+003,8.392215e-003
3.953420e+003,8.445468e-003
3.955349e+003,8.441930e-003
3.957277e+003,8.367236e-003
3.959206e+003,8.308004e-003
3.961134e+003,8.267471e-003
3.963063e+003,8.261234e-003
3.964991e+003,8.327167e-003
3.966920e+003,8.336003e-003
3.968848e+003,8.323419e-003
3.970777e+003,8.234370e-003
3.972705e+003,8.194326e-003
3.974634e+003,8.224950e-003
3.976562e+003,8.252209e-003
3.978491e+003,8.192739e-003
3.980419e+003,8.144871e-003
3.982348e+003,8.220962e-003
3.984276e+003,8.265276e-003
3.986205e+003,8.180457e-003
3.988133e+003,8.192944e-003
3.990062e+003,8.167130e-003
3.991990e+003,8.152287e-003
3.993919e+003,8.287540e-003
3.995847e+003,8.402033e-003
3.997776e+003,8.341869e-003
3.999704e+003,8.341808e-003
4.001633e+003,0.000000e+000
