3.991989e+002,4.947784e-002
4.011274e+002,5.103853e-002
4.030559e+002,5.103853e-002
4.049844e+002,4.962632e-002
4.069129e+002,4.853766e-002
4.088414e+002,4.946529e-002
4.107699e+002,4.893363e-002
4.126984e+002,4.886280e-002
4.146269e+002,4.905667e-002
4.165554e+002,4.828281e-002
4.184839e+002,4.764578e-002
4.204124e+002,4.906795e-002
4.223409e+002,4.945697e-002
4.242694e+002,4.921979e-002
4.261979e+002,4.919776e-002
4.281264e+002,4.928177e-002
4.300549e+002,4.927886e-002
4.319834e+002,4.860307e-002
4.339119e+002,4.821695e-002
4.358404e+002,4.874609e-002
4.377689e+002,4.910462e-002
4.396974e+002,4.864947e-002
4.416259e+002,4.736624e-002
4.435544e+002,4.742839e-002
4.454829e+002,4.777879e-002
4.474114e+002,4.863055e-002
4.493399e+002,4.835425e-002
4.512684e+002,4.854089e-002
4.531969e+002,4.838533e-002
4.551254e+002,4.833720e-002
4.570539e+002,4.872129e-002
4.589824e+002,4.862019e-002
4.609109e+002,4.801450e-002
4.628394e+002,4.774210e-002
4.647679e+002,4.780232e-002
4.666964e+002,4.768014e-002
4.686249e+002,4.726869e-002
4.705533e+002,4.733328e-002
4.724819e+002,4.732834e-002
4.744103e+002,4.728064e-002
4.763389e+002,4.681276e-002
4.782673e+002,4.650012e-002
4.801959e+002,4.717311e-002
4.821243e+002,4.722081e-002
4.840529e+002,4.718521e-002
4.859813e+002,4.693281e-002
4.879099e+002,4.747727e-002
4.898383e+002,4.797243e-002
4.917668e+002,4.776384e-002
4.936953e+002,4.779024e-002
4.956238e+002,4.765733e-002
4.975523e+002,4.758292e-002
4.994808e+002,4.778332e-002
5.014093e+002,4.770518e-002
5.033378e+002,4.787176e-002
5.052663e+002,4.811079e-002
5.071948e+002,4.881220e-002
5.091233e+002,4.874974e-002
5.110518e+002,4.908329e-002
5.129803e+002,4.985031e-002
5.149088e+002,4.953652e-002
5.168373e+002,4.966070e-002
5.187658e+002,4.940822e-002
5.206943e+002,5.033972e-002
5.226228e+002,4.984941e-002
5.245513e+002,4.969232e-002
5.264798e+002,4.939422e-002
5.284083e+002,4.951762e-002
5.303368e+002,4.938245e-002
5.322653e+002,4.961612e-002
5.341938e+002,4.933841e-002
5.361223e+002,4.890840e-002
5.380508e+002,4.836426e-002
5.399792e+002,4.804497e-002
5.419078e+002,4.759008e-002
5.438363e+002,4.799611e-002
5.457648e+002,4.815147e-002
5.476932e+002,4.850629e-002
5.496218e+002,4.828208e-002
5.515503e+002,4.819466e-002
5.534788e+002,4.808868e-002
5.554072e+002,4.846318e-002
5.573358e+002,4.880505e-002
5.592643e+002,4.929244e-002
5.611927e+002,4.919173e-002
5.631212e+002,4.880788e-002
5.650497e+002,4.848374e-002
5.669783e+002,4.863884e-002
5.689067e+002,4.827088e-002
5.708352e+002,4.789203e-002
5.727637e+002,4.738253e-002
5.746923e+002,4.763959e-002
5.766207e+002,4.757456e-002
5.785492e+002,4.754353e-002
5.804777e+002,4.715672e-002
5.824063e+002,4.699855e-002
5.843347e+002,4.684116e-002
5.862632e+002,4.716037e-002
5.881917e+002,4.692122e-002
5.901202e+002,4.689767e-002
5.920487e+002,4.665227e-002
5.939772e+002,4.660751e-002
5.959057e+002,4.646678e-002
5.978342e+002,4.654793e-002
5.997627e+002,4.636821e-002
6.016912e+002,4.646994e-002
6.036197e+002,4.626176e-002
6.055482e+002,4.609727e-002
6.074767e+002,4.585659e-002
6.094052e+002,4.572750e-002
6.113337e+002,4.529189e-002
6.132622e+002,4.507110e-002
6.151907e+002,4.490110e-002
6.171192e+002,4.463211e-002
6.190477e+002,4.406904e-002
6.209762e+002,4.371763e-002
6.229047e+002,4.305458e-002
6.248332e+002,4.249399e-002
6.267617e+002,4.174185e-002
6.286902e+002,4.130216e-002
6.306187e+002,4.095687e-002
6.325472e+002,4.086984e-002
6.344756e+002,4.035586e-002
6.364042e+002,4.017584e-002
6.383326e+002,3.999883e-002
6.402612e+002,3.957312e-002
6.421896e+002,3.920393e-002
6.441182e+002,3.896253e-002
6.460466e+002,3.856856e-002
6.479752e+002,3.853017e-002
6.499036e+002,3.824760e-002
6.518322e+002,3.800116e-002
6.537606e+002,3.768803e-002
6.556891e+002,3.766830e-002
6.576177e+002,3.753681e-002
6.595461e+002,3.756438e-002
6.614746e+002,3.745615e-002
6.634031e+002,3.762711e-002
6.653317e+002,3.753160e-002
6.672601e+002,3.731389e-002
6.691886e+002,3.707949e-002
6.711171e+002,3.689335e-002
6.730457e+002,3.627373e-002
6.749741e+002,3.571066e-002
6.769026e+002,3.478339e-002
6.788311e+002,3.432233e-002
6.807596e+002,3.391542e-002
6.826881e+002,3.355400e-002
6.846166e+002,3.302879e-002
6.865451e+002,3.286513e-002
6.884736e+002,3.253134e-002
6.904021e+002,3.239879e-002
6.923306e+002,3.195919e-002
6.942591e+002,3.181110e-002
6.961876e+002,3.177137e-002
6.981161e+002,3.177392e-002
7.000446e+002,3.143870e-002
7.019731e+002,3.108469e-002
7.039016e+002,3.077287e-002
7.058301e+002,3.047725e-002
7.077585e+002,2.991168e-002
7.096871e+002,2.963252e-002
7.116156e+002,2.936841e-002
7.135441e+002,2.912046e-002
7.154725e+002,2.878086e-002
7.174011e+002,2.867536e-002
7.193296e+002,2.839305e-002
7.212581e+002,2.820282e-002
7.231865e+002,2.789157e-002
7.251151e+002,2.768877e-002
7.270436e+002,2.737679e-002
7.289720e+002,2.714407e-002
7.309005e+002,2.678625e-002
7.328290e+002,2.652508e-002
7.347576e+002,2.620352e-002
7.366860e+002,2.610970e-002
7.386145e+002,2.575179e-002
7.405430e+002,2.553885e-002
7.424716e+002,2.530609e-002
7.444000e+002,2.518383e-002
7.463285e+002,2.484380e-002
7.482570e+002,2.473634e-002
7.501855e+002,2.457162e-002
7.521140e+002,2.445662e-002
7.540425e+002,2.414954e-002
7.559710e+002,2.399913e-002
7.578995e+002,2.370927e-002
7.598280e+002,2.362019e-002
7.617565e+002,2.332648e-002
7.636850e+002,2.328327e-002
7.656135e+002,2.312392e-002
7.675420e+002,2.295101e-002
7.694705e+002,2.268560e-002
7.713990e+002,2.256179e-002
7.733275e+002,2.237814e-002
7.752560e+002,2.232313e-002
7.771844e+002,2.212345e-002
7.791130e+002,2.208154e-002
7.810415e+002,2.195435e-002
7.829700e+002,2.170634e-002
7.848984e+002,2.141169e-002
7.868270e+002,2.134521e-002
7.887555e+002,2.119085e-002
7.906840e+002,2.132322e-002
7.926124e+002,2.128041e-002
7.945410e+002,2.131796e-002
7.964695e+002,2.130035e-002
7.983979e+002,2.132847e-002
8.003264e+002,2.118358e-002
8.022549e+002,2.110096e-002
8.041835e+002,2.099860e-002
8.061119e+002,2.097562e-002
8.080404e+002,2.081138e-002
8.099689e+002,2.074447e-002
8.118975e+002,2.061228e-002
8.138259e+002,2.060401e-002
8.157545e+002,2.037240e-002
8.176830e+002,2.018534e-002
8.196115e+002,1.994219e-002
8.215399e+002,1.973167e-002
8.234684e+002,1.971402e-002
8.253970e+002,1.989592e-002
8.273254e+002,1.984136e-002
8.292539e+002,1.988315e-002
8.311824e+002,1.988815e-002
8.331110e+002,1.988981e-002
8.350394e+002,1.973150e-002
8.369679e+002,1.950288e-002
8.388964e+002,1.932392e-002
8.408250e+002,1.912769e-002
8.427534e+002,1.893244e-002
8.446819e+002,1.897352e-002
8.466104e+002,1.890095e-002
8.485389e+002,1.876434e-002
8.504674e+002,1.847337e-002
8.523959e+002,1.839334e-002
8.543244e+002,1.835680e-002
8.562529e+002,1.830219e-002
8.581814e+002,1.814925e-002
8.601099e+002,1.821224e-002
8.620384e+002,1.819731e-002
8.639669e+002,1.822264e-002
8.658954e+002,1.829217e-002
8.678239e+002,1.828847e-002
8.697524e+002,1.818691e-002
8.716809e+002,1.824179e-002
8.736094e+002,1.823667e-002
8.755378e+002,1.824852e-002
8.774664e+002,1.809267e-002
8.793949e+002,1.824690e-002
8.813234e+002,1.840371e-002
8.832518e+002,1.854829e-002
8.851804e+002,1.876295e-002
8.871089e+002,1.928183e-002
8.890374e+002,1.975477e-002
8.909658e+002,2.031684e-002
8.928943e+002,2.075817e-002
8.948229e+002,2.111609e-002
8.967513e+002,2.118852e-002
8.986798e+002,2.115300e-002
9.006083e+002,2.092033e-002
9.025369e+002,2.054825e-002
9.044653e+002,2.005010e-002
9.063938e+002,1.968313e-002
9.083223e+002,1.927040e-002
9.102509e+002,1.904303e-002
9.121793e+002,1.888468e-002
9.141078e+002,1.887503e-002
9.160364e+002,1.886734e-002
9.179648e+002,1.895168e-002
9.198933e+002,1.889399e-002
9.218218e+002,1.899762e-002
9.237504e+002,1.914123e-002
9.256788e+002,1.933425e-002
9.276073e+002,1.941393e-002
9.295358e+002,1.950555e-002
9.314644e+002,1.967828e-002
9.333928e+002,1.994025e-002
9.353213e+002,2.016358e-002
9.372498e+002,2.045408e-002
9.391783e+002,2.081357e-002
9.411068e+002,2.132965e-002
9.430353e+002,2.184618e-002
9.449637e+002,2.249897e-002
9.468923e+002,2.309715e-002
9.488208e+002,2.368530e-002
9.507493e+002,2.439607e-002
9.526777e+002,2.526302e-002
9.546063e+002,2.606608e-002
9.565348e+002,2.680567e-002
9.584633e+002,2.763342e-002
9.603917e+002,2.858711e-002
9.623203e+002,2.946259e-002
9.642488e+002,3.040713e-002
9.661772e+002,3.118790e-002
9.681057e+002,3.205237e-002
9.700343e+002,3.299002e-002
9.719628e+002,3.404544e-002
9.738912e+002,3.508334e-002
9.758197e+002,3.617004e-002
9.777483e+002,3.727560e-002
9.796768e+002,3.861552e-002
9.816052e+002,4.004747e-002
9.835337e+002,4.158643e-002
9.854623e+002,4.299372e-002
9.873907e+002,4.429396e-002
9.893192e+002,4.537213e-002
9.912477e+002,4.626349e-002
9.931763e+002,4.682498e-002
9.951047e+002,4.729246e-002
9.970332e+002,4.772713e-002
9.989617e+002,4.822994e-002
1.000890e+003,4.889870e-002
1.002819e+003,4.960953e-002
1.004747e+003,5.034586e-002
1.006676e+003,5.130760e-002
1.008604e+003,5.222581e-002
1.010533e+003,5.320685e-002
1.012461e+003,5.433834e-002
1.014390e+003,5.563086e-002
1.016318e+003,5.694088e-002
1.018247e+003,5.838815e-002
1.020175e+003,5.983416e-002
1.022104e+003,6.138495e-002
1.024032e+003,6.316765e-002
1.025961e+003,6.510139e-002
1.027889e+003,6.711292e-002
1.029818e+003,6.917415e-002
1.031746e+003,7.102666e-002
1.033675e+003,7.261582e-002
1.035603e+003,7.369316e-002
1.037532e+003,7.399365e-002
1.039460e+003,7.375743e-002
1.041389e+003,7.333645e-002
1.043317e+003,7.276851e-002
1.045246e+003,7.225174e-002
1.047174e+003,7.187171e-002
1.049103e+003,7.155068e-002
1.051031e+003,7.117700e-002
1.052960e+003,7.065386e-002
1.054888e+003,6.992906e-002
1.056817e+003,6.905336e-002
1.058745e+003,6.813709e-002
1.060674e+003,6.710136e-002
1.062602e+003,6.578070e-002
1.064531e+003,6.422461e-002
1.066459e+003,6.273410e-002
1.068388e+003,6.144381e-002
1.070316e+003,6.018257e-002
1.072245e+003,5.900073e-002
1.074173e+003,5.783657e-002
1.076102e+003,5.667872e-002
1.078030e+003,5.543887e-002
1.079959e+003,5.405973e-002
1.081887e+003,5.268175e-002
1.083816e+003,5.159624e-002
1.085744e+003,5.062719e-002
1.087673e+003,4.965511e-002
1.089601e+003,4.873661e-002
1.091530e+003,4.794919e-002
1.093458e+003,4.711922e-002
1.095387e+003,4.634539e-002
1.097315e+003,4.562203e-002
1.099244e+003,4.507278e-002
1.101172e+003,4.467168e-002
1.103101e+003,4.440390e-002
1.105029e+003,4.418434e-002
1.106958e+003,4.385799e-002
1.108886e+003,4.322956e-002
1.110815e+003,4.246967e-002
1.112743e+003,4.160097e-002
1.114672e+003,4.055802e-002
1.116600e+003,3.940250e-002
1.118529e+003,3.832263e-002
1.120457e+003,3.723477e-002
1.122386e+003,3.617655e-002
1.124314e+003,3.500173e-002
1.126243e+003,3.380973e-002
1.128171e+003,3.254842e-002
1.130100e+003,3.126908e-002
1.132028e+003,3.000127e-002
1.133957e+003,2.887938e-002
1.135885e+003,2.786900e-002
1.137814e+003,2.715335e-002
1.139742e+003,2.664798e-002
1.141671e+003,2.638908e-002
1.143599e+003,2.633271e-002
1.145528e+003,2.644317e-002
1.147456e+003,2.664570e-002
1.149385e+003,2.692439e-002
1.151313e+003,2.726260e-002
1.153242e+003,2.770740e-002
1.155170e+003,2.815318e-002
1.157099e+003,2.853665e-002
1.159027e+003,2.879206e-002
1.160956e+003,2.885969e-002
1.162884e+003,2.858665e-002
1.164813e+003,2.792748e-002
1.166741e+003,2.700805e-002
1.168670e+003,2.587905e-002
1.170598e+003,2.460483e-002
1.172526e+003,2.326610e-002
1.174455e+003,2.199056e-002
1.176384e+003,2.084555e-002
1.178312e+003,1.986404e-002
1.180240e+003,1.907315e-002
1.182169e+003,1.833648e-002
1.184098e+003,1.777813e-002
1.186026e+003,1.742618e-002
1.187954e+003,1.721691e-002
1.189883e+003,1.712359e-002
1.191812e+003,1.720722e-002
1.193740e+003,1.743477e-002
1.195668e+003,1.781040e-002
1.197597e+003,1.819317e-002
1.199526e+003,1.865201e-002
1.201454e+003,1.902199e-002
1.203382e+003,1.926739e-002
1.205311e+003,1.947349e-002
1.207240e+003,1.963692e-002
1.209168e+003,1.971673e-002
1.211096e+003,1.987563e-002
1.213025e+003,2.007682e-002
1.214953e+003,2.031612e-002
1.216882e+003,2.056072e-002
1.218810e+003,2.084722e-002
1.220739e+003,2.115464e-002
1.222667e+003,2.144041e-002
1.224596e+003,2.176072e-002
1.226524e+003,2.212205e-002
1.228453e+003,2.244705e-002
1.230381e+003,2.273420e-002
1.232310e+003,2.298734e-002
1.234238e+003,2.324733e-002
1.236167e+003,2.342564e-002
1.238095e+003,2.351294e-002
1.240024e+003,2.352214e-002
1.241952e+003,2.352077e-002
1.243881e+003,2.347394e-002
1.245809e+003,2.340746e-002
1.247738e+003,2.328694e-002
1.249666e+003,2.317508e-002
1.251595e+003,2.302583e-002
1.253523e+003,2.289431e-002
1.255452e+003,2.269422e-002
1.257380e+003,2.243411e-002
1.259309e+003,2.211358e-002
1.261237e+003,2.180277e-002
1.263166e+003,2.139345e-002
1.265094e+003,2.097006e-002
1.267023e+003,2.054749e-002
1.268951e+003,2.012530e-002
1.270880e+003,1.975258e-002
1.272808e+003,1.940655e-002
1.274737e+003,1.904605e-002
1.276665e+003,1.873877e-002
1.278594e+003,1.849003e-002
1.280522e+003,1.832580e-002
1.282451e+003,1.816722e-002
1.284379e+003,1.799872e-002
1.286308e+003,1.784126e-002
1.288236e+003,1.769857e-002
1.290165e+003,1.758255e-002
1.292093e+003,1.756302e-002
1.294022e+003,1.754419e-002
1.295950e+003,1.758880e-002
1.297879e+003,1.765995e-002
1.299807e+003,1.781996e-002
1.301736e+003,1.800691e-002
1.303664e+003,1.823605e-002
1.305593e+003,1.849650e-002
1.307521e+003,1.877219e-002
1.309450e+003,1.900759e-002
1.311378e+003,1.923660e-002
1.313307e+003,1.941299e-002
1.315235e+003,1.956378e-002
1.317164e+003,1.964662e-002
1.319092e+003,1.969731e-002
1.321021e+003,1.968792e-002
1.322949e+003,1.960336e-002
1.324878e+003,1.945963e-002
1.326806e+003,1.937485e-002
1.328735e+003,1.932985e-002
1.330663e+003,1.933272e-002
1.332592e+003,1.932122e-002
1.334520e+003,1.928637e-002
1.336449e+003,1.915141e-002
1.338377e+003,1.902026e-002
1.340306e+003,1.886745e-002
1.342234e+003,1.871535e-002
1.344163e+003,1.857589e-002
1.346091e+003,1.851942e-002
1.348020e+003,1.847420e-002
1.349948e+003,1.852305e-002
1.351877e+003,1.857409e-002
1.353805e+003,1.859674e-002
1.355734e+003,1.861622e-002
1.357662e+003,1.865841e-002
1.359591e+003,1.868453e-002
1.361519e+003,1.874268e-002
1.363448e+003,1.886724e-002
1.365376e+003,1.904123e-002
1.367305e+003,1.917578e-002
1.369233e+003,1.933002e-002
1.371162e+003,1.938209e-002
1.373090e+003,1.926355e-002
1.375019e+003,1.904539e-002
1.376947e+003,1.880565e-002
1.378876e+003,1.851061e-002
1.380804e+003,1.817171e-002
1.382733e+003,1.779863e-002
1.384661e+003,1.745215e-002
1.386590e+003,1.722022e-002
1.388518e+003,1.710705e-002
1.390447e+003,1.712253e-002
1.392375e+003,1.711705e-002
1.394304e+003,1.702962e-002
1.396232e+003,1.698272e-002
1.398161e+003,1.694957e-002
1.400089e+003,1.692167e-002
1.402018e+003,1.687475e-002
1.403946e+003,1.687895e-002
1.405875e+003,1.692518e-002
1.407803e+003,1.698320e-002
1.409732e+003,1.704323e-002
1.411660e+003,1.708451e-002
1.413589e+003,1.718095e-002
1.415517e+003,1.734607e-002
1.417446e+003,1.745612e-002
1.419374e+003,1.765788e-002
1.421303e+003,1.792302e-002
1.423231e+003,1.815026e-002
1.425160e+003,1.823370e-002
1.427088e+003,1.822164e-002
1.429017e+003,1.809426e-002
1.430945e+003,1.793141e-002
1.432874e+003,1.771810e-002
1.434802e+003,1.749341e-002
1.436731e+003,1.722828e-002
1.438659e+003,1.708351e-002
1.440588e+003,1.694117e-002
1.442516e+003,1.679667e-002
1.444445e+003,1.666381e-002
1.446373e+003,1.658088e-002
1.448302e+003,1.653355e-002
1.450230e+003,1.648110e-002
1.452159e+003,1.631008e-002
1.454087e+003,1.607724e-002
1.456016e+003,1.572558e-002
1.457944e+003,1.549713e-002
1.459873e+003,1.542874e-002
1.461801e+003,1.537041e-002
1.463730e+003,1.527056e-002
1.465658e+003,1.512655e-002
1.467587e+003,1.500738e-002
1.469515e+003,1.498337e-002
1.471444e+003,1.499393e-002
1.473372e+003,1.495374e-002
1.475301e+003,1.494482e-002
1.477229e+003,1.491763e-002
1.479158e+003,1.487919e-002
1.481086e+003,1.482220e-002
1.483015e+003,1.475347e-002
1.484943e+003,1.471580e-002
1.486872e+003,1.462676e-002
1.488800e+003,1.454743e-002
1.490729e+003,1.454246e-002
1.492657e+003,1.461963e-002
1.494586e+003,1.474469e-002
1.496514e+003,1.495137e-002
1.498443e+003,1.529950e-002
1.500371e+003,1.575079e-002
1.502300e+003,1.619365e-002
1.504228e+003,1.652763e-002
1.506157e+003,1.680114e-002
1.508085e+003,1.717533e-002
1.510014e+003,1.753042e-002
1.511942e+003,1.784012e-002
1.513871e+003,1.807609e-002
1.515799e+003,1.806379e-002
1.517728e+003,1.779549e-002
1.519656e+003,1.744725e-002
1.521585e+003,1.713400e-002
1.523513e+003,1.700315e-002
1.525442e+003,1.688002e-002
1.527370e+003,1.686121e-002
1.529299e+003,1.689755e-002
1.531227e+003,1.687161e-002
1.533156e+003,1.685088e-002
1.535084e+003,1.690940e-002
1.537013e+003,1.689287e-002
1.538941e+003,1.678327e-002
1.540870e+003,1.672865e-002
1.542798e+003,1.674091e-002
1.544727e+003,1.667862e-002
1.546655e+003,1.659200e-002
1.548584e+003,1.641637e-002
1.550512e+003,1.624878e-002
1.552441e+003,1.604493e-002
1.554369e+003,1.580811e-002
1.556298e+003,1.555912e-002
1.558226e+003,1.533588e-002
1.560155e+003,1.524047e-002
1.562083e+003,1.521418e-002
1.564012e+003,1.510607e-002
1.565940e+003,1.503691e-002
1.567869e+003,1.497476e-002
1.569797e+003,1.495538e-002
1.571726e+003,1.504408e-002
1.573654e+003,1.512195e-002
1.575583e+003,1.517963e-002
1.577511e+003,1.538617e-002
1.579440e+003,1.563660e-002
1.581368e+003,1.586563e-002
1.583297e+003,1.614598e-002
1.585225e+003,1.644978e-002
1.587154e+003,1.668788e-002
1.589082e+003,1.691771e-002
1.591010e+003,1.714696e-002
1.592939e+003,1.735717e-002
1.594868e+003,1.756806e-002
1.596796e+003,1.775928e-002
1.598724e+003,1.791829e-002
1.600653e+003,1.805609e-002
1.602582e+003,1.815216e-002
1.604510e+003,1.817835e-002
1.606438e+003,1.812034e-002
1.608367e+003,1.802310e-002
1.610296e+003,1.793283e-002
1.612224e+003,1.800680e-002
1.614152e+003,1.819403e-002
1.616081e+003,1.841121e-002
1.618010e+003,1.876461e-002
1.619938e+003,1.918015e-002
1.621866e+003,1.954513e-002
1.623795e+003,1.996166e-002
1.625724e+003,2.040560e-002
1.627652e+003,2.073825e-002
1.629580e+003,2.101728e-002
1.631509e+003,2.121002e-002
1.633438e+003,2.123619e-002
1.635366e+003,2.119670e-002
1.637294e+003,2.120866e-002
1.639223e+003,2.119343e-002
1.641151e+003,2.116114e-002
1.643080e+003,2.112910e-002
1.645008e+003,2.105929e-002
1.646937e+003,2.096981e-002
1.648865e+003,2.093695e-002
1.650794e+003,2.075754e-002
1.652722e+003,2.044842e-002
1.654651e+003,2.028070e-002
1.656579e+003,2.001332e-002
1.658508e+003,1.957456e-002
1.660436e+003,1.912076e-002
1.662365e+003,1.867363e-002
1.664293e+003,1.821317e-002
1.666222e+003,1.767603e-002
1.668150e+003,1.703017e-002
1.670079e+003,1.642559e-002
1.672007e+003,1.588553e-002
1.673936e+003,1.529184e-002
1.675864e+003,1.471453e-002
1.677793e+003,1.413966e-002
1.679721e+003,1.346922e-002
1.681650e+003,1.273120e-002
1.683578e+003,1.186031e-002
1.685507e+003,1.111081e-002
1.687435e+003,1.047585e-002
1.689364e+003,9.737333e-003
1.691292e+003,9.127927e-003
1.693221e+003,8.688292e-003
1.695149e+003,8.296178e-003
1.697078e+003,8.139094e-003
1.699006e+003,7.972921e-003
1.700935e+003,7.845744e-003
1.702863e+003,7.795645e-003
1.704792e+003,7.592344e-003
1.706720e+003,7.465210e-003
1.708649e+003,7.362546e-003
1.710577e+003,7.262973e-003
1.712506e+003,7.122328e-003
1.714434e+003,6.944591e-003
1.716363e+003,6.700700e-003
1.718291e+003,6.573121e-003
1.720220e+003,6.543486e-003
1.722148e+003,6.465993e-003
1.724077e+003,6.272994e-003
1.726005e+003,6.042415e-003
1.727934e+003,5.827909e-003
1.729862e+003,5.601393e-003
1.731791e+003,5.247771e-003
1.733719e+003,4.789363e-003
1.735648e+003,4.440418e-003
1.737576e+003,4.147213e-003
1.739505e+003,3.868781e-003
1.741433e+003,3.773815e-003
1.743362e+003,3.799753e-003
1.745290e+003,3.981690e-003
1.747219e+003,4.341646e-003
1.749147e+003,4.881099e-003
1.751076e+003,5.455212e-003
1.753004e+003,6.021047e-003
1.754933e+003,6.466598e-003
1.756861e+003,6.860025e-003
1.758790e+003,7.197176e-003
1.760718e+003,7.396147e-003
1.762647e+003,7.531351e-003
1.764575e+003,7.616756e-003
1.766504e+003,7.645521e-003
1.768432e+003,7.636112e-003
1.770361e+003,7.637394e-003
1.772289e+003,7.663495e-003
1.774218e+003,7.642890e-003
1.776146e+003,7.678267e-003
1.778075e+003,7.691116e-003
1.780003e+003,7.710340e-003
1.781932e+003,7.741404e-003
1.783860e+003,7.721167e-003
1.785789e+003,7.796219e-003
1.787717e+003,7.876379e-003
1.789646e+003,7.876987e-003
1.791574e+003,7.817000e-003
1.793503e+003,7.847532e-003
1.795431e+003,7.949062e-003
1.797360e+003,7.990538e-003
1.799288e+003,8.028946e-003
1.801217e+003,8.020036e-003
1.803145e+003,8.001574e-003
1.805074e+003,8.107124e-003
1.807002e+003,8.152126e-003
1.808931e+003,8.151045e-003
1.810859e+003,8.156819e-003
1.812788e+003,8.150100e-003
1.814716e+003,8.159554e-003
1.816645e+003,8.177718e-003
1.818573e+003,8.249641e-003
1.820502e+003,8.180014e-003
1.822430e+003,8.156008e-003
1.824359e+003,8.221782e-003
1.826287e+003,8.272335e-003
1.828216e+003,8.181129e-003
1.830144e+003,8.076574e-003
1.832073e+003,8.121404e-003
1.834001e+003,8.130957e-003
1.835930e+003,8.170865e-003
1.837858e+003,8.275813e-003
1.839787e+003,8.237720e-003
1.841715e+003,8.208276e-003
1.843644e+003,8.132679e-003
1.845572e+003,8.082312e-003
1.847501e+003,8.076607e-003
1.849429e+003,8.169108e-003
1.851358e+003,8.301041e-003
1.853286e+003,8.285844e-003
1.855215e+003,8.102195e-003
1.857143e+003,8.068674e-003
1.859072e+003,8.058987e-003
1.861000e+003,8.032693e-003
1.862929e+003,8.116104e-003
1.864857e+003,8.160195e-003
1.866786e+003,8.161951e-003
1.868714e+003,8.170155e-003
1.870643e+003,8.269667e-003
1.872571e+003,8.189806e-003
1.874500e+003,8.074785e-003
1.876428e+003,8.195681e-003
1.878357e+003,8.162558e-003
1.880285e+003,8.051156e-003
1.882214e+003,8.087949e-003
1.884142e+003,8.042684e-003
1.886071e+003,7.982978e-003
1.887999e+003,8.200341e-003
1.889928e+003,8.340288e-003
1.891856e+003,8.154962e-003
1.893785e+003,7.986117e-003
1.895713e+003,8.061316e-003
1.897642e+003,8.083156e-003
1.899570e+003,8.029419e-003
1.901499e+003,8.181229e-003
1.903427e+003,8.343361e-003
1.905356e+003,8.253423e-003
1.907284e+003,8.133017e-003
1.909213e+003,7.991719e-003
1.911141e+003,8.154861e-003
1.913070e+003,8.227557e-003
1.914998e+003,7.958679e-003
1.916927e+003,7.984902e-003
1.918855e+003,8.106415e-003
1.920784e+003,8.088861e-003
1.922712e+003,8.153915e-003
1.924641e+003,7.983147e-003
1.926569e+003,7.946228e-003
1.928498e+003,7.920581e-003
1.930426e+003,8.184978e-003
1.932355e+003,8.322859e-003
1.934283e+003,8.127413e-003
1.936212e+003,7.986758e-003
1.938140e+003,8.070598e-003
1.940069e+003,8.013826e-003
1.941997e+003,8.137237e-003
1.943926e+003,8.273348e-003
1.945854e+003,8.024558e-003
1.947783e+003,7.665114e-003
1.949711e+003,7.214929e-003
1.951640e+003,7.217355e-003
1.953568e+003,7.191550e-003
1.955497e+003,7.228371e-003
1.957425e+003,7.072077e-003
1.959354e+003,6.566763e-003
1.961282e+003,6.335289e-003
1.963211e+003,5.886917e-003
1.965139e+003,5.774854e-003
1.967068e+003,6.032201e-003
1.968996e+003,5.241265e-003
1.970925e+003,4.458227e-003
1.972853e+003,4.804539e-003
1.974782e+003,4.506703e-003
1.976710e+003,4.343921e-003
1.978639e+003,4.888605e-003
1.980567e+003,4.794790e-003
1.982496e+003,5.099228e-003
1.984424e+003,5.553298e-003
1.986353e+003,5.144255e-003
1.988281e+003,4.509180e-003
1.990210e+003,4.611440e-003
1.992138e+003,5.102279e-003
1.994067e+003,5.217589e-003
1.995995e+003,4.679592e-003
1.997924e+003,3.858150e-003
1.999852e+003,3.724987e-003
2.001781e+003,4.308849e-003
2.003709e+003,4.768492e-003
2.005638e+003,4.331974e-003
2.007566e+003,4.039143e-003
2.009495e+003,4.182740e-003
2.011423e+003,4.393389e-003
2.013352e+003,4.454913e-003
2.015280e+003,3.776823e-003
2.017208e+003,3.286444e-003
2.019137e+003,2.781312e-003
2.021066e+003,2.227772e-003
2.022994e+003,1.412213e-003
2.024922e+003,2.531948e-003
2.026851e+003,2.706054e-003
2.028780e+003,2.014443e-003
2.030708e+003,2.536414e-003
2.032636e+003,2.357979e-003
2.034565e+003,2.580376e-003
2.036494e+003,2.767439e-003
2.038422e+003,3.139105e-003
2.040350e+003,3.187333e-003
2.042279e+003,3.366878e-003
2.044208e+003,4.399213e-003
2.046136e+003,4.549157e-003
2.048064e+003,4.294995e-003
2.049993e+003,4.379264e-003
2.051921e+003,5.097786e-003
2.053850e+003,4.994440e-003
2.055778e+003,4.986731e-003
2.057707e+003,5.248810e-003
2.059635e+003,5.454575e-003
2.061564e+003,5.470613e-003
2.063492e+003,5.649359e-003
2.065421e+003,5.569508e-003
2.067349e+003,5.219969e-003
2.069278e+003,5.193511e-003
2.071206e+003,5.560178e-003
2.073135e+003,5.756554e-003
2.075063e+003,5.764377e-003
2.076992e+003,5.683532e-003
2.078920e+003,6.021215e-003
2.080849e+003,6.396719e-003
2.082777e+003,6.381520e-003
2.084706e+003,6.030353e-003
2.086634e+003,6.072587e-003
2.088563e+003,6.303316e-003
2.090491e+003,6.362052e-003
2.092420e+003,6.257901e-003
2.094348e+003,6.370861e-003
2.096277e+003,6.462866e-003
2.098205e+003,6.439055e-003
2.100134e+003,6.689125e-003
2.102062e+003,6.678660e-003
2.103991e+003,6.504469e-003
2.105919e+003,6.613490e-003
2.107848e+003,7.337979e-003
2.109776e+003,7.451221e-003
2.111705e+003,7.277427e-003
2.113633e+003,7.321871e-003
2.115562e+003,7.427357e-003
2.117490e+003,7.458401e-003
2.119419e+003,7.420380e-003
2.121347e+003,7.276652e-003
2.123276e+003,7.604786e-003
2.125204e+003,7.708688e-003
2.127133e+003,7.619522e-003
2.129061e+003,7.307888e-003
2.130990e+003,7.055845e-003
2.132918e+003,6.670350e-003
2.134847e+003,5.974585e-003
2.136775e+003,6.391809e-003
2.138704e+003,6.573222e-003
2.140632e+003,6.651273e-003
2.142561e+003,6.656454e-003
2.144489e+003,6.351830e-003
2.146418e+003,5.960174e-003
2.148346e+003,5.928767e-003
2.150275e+003,5.131681e-003
2.152203e+003,4.150926e-003
2.154132e+003,3.990084e-003
2.156060e+003,4.385255e-003
2.157989e+003,4.048608e-003
2.159917e+003,3.573322e-003
2.161846e+003,3.321233e-003
2.163774e+003,3.841235e-003
2.165703e+003,4.125737e-003
2.167631e+003,3.184730e-003
2.169560e+003,3.044465e-003
2.171488e+003,4.268961e-003
2.173417e+003,4.732046e-003
2.175345e+003,4.507238e-003
2.177274e+003,4.262939e-003
2.179202e+003,4.706488e-003
2.181131e+003,4.791875e-003
2.183059e+003,4.291950e-003
2.184988e+003,4.202479e-003
2.186916e+003,5.334741e-003
2.188845e+003,5.558701e-003
2.190773e+003,5.294892e-003
2.192702e+003,5.208735e-003
2.194630e+003,5.173862e-003
2.196559e+003,4.589137e-003
2.198487e+003,4.542259e-003
2.200416e+003,5.206086e-003
2.202344e+003,5.149586e-003
2.204273e+003,5.141874e-003
2.206201e+003,5.032618e-003
2.208130e+003,5.631333e-003
2.210058e+003,6.366927e-003
2.211987e+003,6.451297e-003
2.213915e+003,6.230203e-003
2.215844e+003,6.452373e-003
2.217772e+003,6.482506e-003
2.219701e+003,6.626510e-003
2.221629e+003,6.543990e-003
2.223558e+003,6.280995e-003
2.225486e+003,6.798866e-003
2.227415e+003,7.062479e-003
2.229343e+003,7.095282e-003
2.231272e+003,7.348234e-003
2.233200e+003,7.230397e-003
2.235129e+003,7.179245e-003
2.237057e+003,7.365415e-003
2.238986e+003,7.311868e-003
2.240914e+003,7.670657e-003
2.242843e+003,7.521193e-003
2.244771e+003,7.582759e-003
2.246700e+003,8.064806e-003
2.248628e+003,8.198491e-003
2.250557e+003,7.987319e-003
2.252485e+003,7.601733e-003
2.254414e+003,7.339529e-003
2.256342e+003,7.704996e-003
2.258271e+003,7.793350e-003
2.260199e+003,7.456428e-003
2.262128e+003,7.598395e-003
2.264056e+003,7.894742e-003
2.265985e+003,7.890463e-003
2.267913e+003,7.849472e-003
2.269842e+003,7.777432e-003
2.271770e+003,7.691049e-003
2.273699e+003,7.565354e-003
2.275627e+003,7.656972e-003
2.277556e+003,7.809186e-003
2.279484e+003,7.807022e-003
2.281413e+003,7.868729e-003
2.283341e+003,8.027053e-003
2.285270e+003,8.135765e-003
2.287198e+003,8.156093e-003
2.289127e+003,8.269523e-003
2.291055e+003,8.371903e-003
2.292984e+003,8.460037e-003
2.294912e+003,8.484799e-003
2.296841e+003,8.464410e-003
2.298769e+003,8.397292e-003
2.300698e+003,8.404661e-003
2.302626e+003,8.322255e-003
2.304555e+003,8.136961e-003
2.306483e+003,8.371688e-003
2.308412e+003,8.625236e-003
2.310340e+003,8.467863e-003
2.312269e+003,8.239173e-003
2.314197e+003,8.296177e-003
2.316125e+003,8.409586e-003
2.318054e+003,8.390923e-003
2.319983e+003,8.462804e-003
2.321911e+003,8.810866e-003
2.323840e+003,8.959589e-003
2.325768e+003,8.726296e-003
2.327697e+003,8.592127e-003
2.329625e+003,8.643613e-003
2.331553e+003,8.721981e-003
2.333482e+003,8.683565e-003
2.335411e+003,9.119502e-003
2.337339e+003,9.156103e-003
2.339268e+003,8.817750e-003
2.341196e+003,8.582830e-003
2.343125e+003,8.774571e-003
2.345053e+003,8.493600e-003
2.346981e+003,8.280121e-003
2.348910e+003,8.295405e-003
2.350839e+003,8.150596e-003
2.352767e+003,8.013247e-003
2.354696e+003,8.064166e-003
2.356624e+003,8.302717e-003
2.358552e+003,8.310512e-003
2.360481e+003,8.036486e-003
2.362409e+003,7.743806e-003
2.364338e+003,8.030413e-003
2.366267e+003,7.882803e-003
2.368195e+003,8.004336e-003
2.370124e+003,8.492305e-003
2.372052e+003,8.601398e-003
2.373980e+003,8.627082e-003
2.375909e+003,8.628612e-003
2.377838e+003,8.618909e-003
2.379766e+003,8.499992e-003
2.381695e+003,8.457781e-003
2.383623e+003,8.384758e-003
2.385552e+003,8.498329e-003
2.387480e+003,8.620856e-003
2.389408e+003,8.561218e-003
2.391337e+003,8.610845e-003
2.393266e+003,8.768049e-003
2.395194e+003,8.841004e-003
2.397123e+003,8.888218e-003
2.399051e+003,8.988961e-003
2.400979e+003,8.990161e-003
2.402908e+003,8.846250e-003
2.404836e+003,8.885276e-003
2.406765e+003,9.005113e-003
2.408694e+003,9.065872e-003
2.410622e+003,9.130160e-003
2.412551e+003,9.236627e-003
2.414479e+003,9.245258e-003
2.416407e+003,9.101162e-003
2.418336e+003,9.031770e-003
2.420264e+003,9.156656e-003
2.422193e+003,9.264077e-003
2.424122e+003,9.258290e-003
2.426050e+003,9.178686e-003
2.427979e+003,9.141969e-003
2.429907e+003,9.204542e-003
2.431835e+003,9.218486e-003
2.433764e+003,9.059343e-003
2.435692e+003,9.052712e-003
2.437621e+003,9.224511e-003
2.439550e+003,9.176283e-003
2.441478e+003,9.199635e-003
2.443406e+003,9.313668e-003
2.445335e+003,9.340040e-003
2.447263e+003,9.311299e-003
2.449192e+003,9.240452e-003
2.451121e+003,9.186538e-003
2.453049e+003,9.053828e-003
2.454978e+003,9.267191e-003
2.456906e+003,9.449775e-003
2.458834e+003,9.289498e-003
2.460763e+003,9.174760e-003
2.462691e+003,9.171139e-003
2.464620e+003,9.201023e-003
2.466549e+003,9.140515e-003
2.468477e+003,9.044321e-003
2.470406e+003,9.021182e-003
2.472334e+003,9.020437e-003
2.474262e+003,9.077003e-003
2.476191e+003,9.101060e-003
2.478119e+003,9.039924e-003
2.480048e+003,9.042867e-003
2.481977e+003,9.061711e-003
2.483905e+003,9.002406e-003
2.485833e+003,9.013739e-003
2.487762e+003,8.968106e-003
2.489690e+003,9.027406e-003
2.491619e+003,9.044897e-003
2.493547e+003,8.989586e-003
2.495476e+003,9.034984e-003
2.497405e+003,9.060358e-003
2.499333e+003,8.982854e-003
2.501261e+003,8.854062e-003
2.503190e+003,8.824710e-003
2.505118e+003,8.853217e-003
2.507047e+003,8.863395e-003
2.508975e+003,8.933842e-003
2.510904e+003,8.992765e-003
2.512833e+003,9.001121e-003
2.514761e+003,8.928228e-003
2.516689e+003,8.964859e-003
2.518618e+003,9.142680e-003
2.520546e+003,9.141969e-003
2.522475e+003,9.084109e-003
2.524403e+003,9.089928e-003
2.526332e+003,9.115339e-003
2.528260e+003,9.157231e-003
2.530189e+003,9.032514e-003
2.532117e+003,9.044456e-003
2.534046e+003,8.959785e-003
2.535974e+003,8.901813e-003
2.537903e+003,8.989451e-003
2.539831e+003,8.999801e-003
2.541760e+003,8.859777e-003
2.543688e+003,8.940370e-003
2.545617e+003,8.962695e-003
2.547545e+003,8.944497e-003
2.549474e+003,8.907766e-003
2.551402e+003,8.857139e-003
2.553331e+003,8.925184e-003
2.555259e+003,8.939153e-003
2.557188e+003,9.020031e-003
2.559116e+003,9.068646e-003
2.561045e+003,9.021959e-003
2.562973e+003,8.973958e-003
2.564902e+003,9.036100e-003
2.566830e+003,9.009307e-003
2.568759e+003,8.999565e-003
2.570687e+003,8.881826e-003
2.572616e+003,8.815783e-003
2.574544e+003,8.979100e-003
2.576473e+003,8.943854e-003
2.578401e+003,8.919773e-003
2.580330e+003,8.991108e-003
2.582258e+003,9.070677e-003
2.584187e+003,8.921498e-003
2.586115e+003,8.847096e-003
2.588044e+003,8.929074e-003
2.589972e+003,8.932219e-003
2.591901e+003,9.004639e-003
2.593829e+003,9.106880e-003
2.595758e+003,9.102177e-003
2.597686e+003,9.029842e-003
2.599615e+003,9.003556e-003
2.601543e+003,8.957418e-003
2.603472e+003,9.019321e-003
2.605400e+003,9.010322e-003
2.607329e+003,9.028522e-003
2.609257e+003,9.004233e-003
2.611186e+003,8.953528e-003
2.613114e+003,8.959853e-003
2.615043e+003,8.930596e-003
2.616971e+003,8.885344e-003
2.618900e+003,8.842294e-003
2.620828e+003,8.891870e-003
2.622757e+003,8.922783e-003
2.624685e+003,8.904113e-003
2.626614e+003,8.905872e-003
2.628542e+003,8.881691e-003
2.630471e+003,8.910945e-003
2.632399e+003,9.001967e-003
2.634328e+003,9.022941e-003
2.636256e+003,8.946830e-003
2.638185e+003,8.977612e-003
2.640113e+003,9.058903e-003
2.642042e+003,9.138891e-003
2.643970e+003,9.134085e-003
2.645899e+003,9.176148e-003
2.647827e+003,9.287501e-003
2.649756e+003,9.369190e-003
2.651684e+003,9.389605e-003
2.653613e+003,9.406603e-003
2.655541e+003,9.395023e-003
2.657470e+003,9.410632e-003
2.659398e+003,9.475682e-003
2.661327e+003,9.544941e-003
2.663255e+003,9.590973e-003
2.665184e+003,9.620309e-003
2.667112e+003,9.643277e-003
2.669041e+003,9.622443e-003
2.670969e+003,9.687999e-003
2.672898e+003,9.799992e-003
2.674826e+003,9.805515e-003
2.676755e+003,9.828934e-003
2.678683e+003,9.809650e-003
2.680612e+003,9.779048e-003
2.682540e+003,9.816226e-003
2.684469e+003,9.849372e-003
2.686397e+003,9.893742e-003
2.688326e+003,9.931404e-003
2.690254e+003,9.944286e-003
2.692183e+003,9.950253e-003
2.694111e+003,9.950491e-003
2.696040e+003,1.001511e-002
2.697968e+003,1.000691e-002
2.699897e+003,1.005302e-002
2.701825e+003,1.009968e-002
2.703754e+003,1.007801e-002
2.705682e+003,1.005658e-002
2.707611e+003,1.004298e-002
2.709539e+003,1.005238e-002
2.711468e+003,1.008761e-002
2.713396e+003,1.013760e-002
2.715325e+003,1.010921e-002
2.717253e+003,1.009741e-002
2.719182e+003,1.011149e-002
2.721110e+003,1.011637e-002
2.723039e+003,1.010525e-002
2.724967e+003,1.011352e-002
2.726896e+003,1.010053e-002
2.728824e+003,1.009955e-002
2.730753e+003,1.010508e-002
2.732681e+003,1.010430e-002
2.734610e+003,1.007998e-002
2.736538e+003,1.009009e-002
2.738467e+003,1.010396e-002
2.740395e+003,1.006899e-002
2.742324e+003,1.008398e-002
2.744252e+003,1.014798e-002
2.746181e+003,1.015863e-002
2.748109e+003,1.012231e-002
2.750038e+003,1.007517e-002
2.751966e+003,1.010877e-002
2.753895e+003,1.017576e-002
2.755823e+003,1.015470e-002
2.757752e+003,1.015520e-002
2.759680e+003,1.022213e-002
2.761609e+003,1.019747e-002
2.763537e+003,1.016039e-002
2.765466e+003,1.019126e-002
2.767394e+003,1.019316e-002
2.769323e+003,1.020412e-002
2.771251e+003,1.019581e-002
2.773180e+003,1.017573e-002
2.775108e+003,1.017274e-002
2.777037e+003,1.021111e-002
2.778965e+003,1.024822e-002
2.780894e+003,1.027183e-002
2.782822e+003,1.022474e-002
2.784750e+003,1.017857e-002
2.786679e+003,1.019689e-002
2.788608e+003,1.022121e-002
2.790536e+003,1.018014e-002
2.792465e+003,1.019319e-002
2.794393e+003,1.021847e-002
2.796322e+003,1.020924e-002
2.798250e+003,1.016599e-002
2.800178e+003,1.021972e-002
2.802107e+003,1.016582e-002
2.804036e+003,1.014991e-002
2.805964e+003,1.018614e-002
2.807893e+003,1.017668e-002
2.809821e+003,1.011783e-002
2.811750e+003,1.012027e-002
2.813678e+003,1.011057e-002
2.815606e+003,1.005767e-002
2.817535e+003,1.003254e-002
2.819464e+003,1.002362e-002
2.821392e+003,9.946388e-003
2.823321e+003,9.926624e-003
2.825249e+003,9.923709e-003
2.827177e+003,9.848661e-003
2.829106e+003,9.796636e-003
2.831034e+003,9.791452e-003
2.832963e+003,9.733708e-003
2.834892e+003,9.654322e-003
2.836820e+003,9.560826e-003
2.838749e+003,9.384560e-003
2.840677e+003,9.193204e-003
2.842605e+003,8.956877e-003
2.844534e+003,8.525288e-003
2.846462e+003,8.030128e-003
2.848391e+003,7.633077e-003
2.850320e+003,7.297004e-003
2.852248e+003,6.982469e-003
2.854177e+003,6.756192e-003
2.856105e+003,6.687880e-003
2.858033e+003,6.843699e-003
2.859962e+003,7.091577e-003
2.861890e+003,7.380374e-003
2.863819e+003,7.695770e-003
2.865748e+003,7.938196e-003
2.867676e+003,8.186935e-003
2.869604e+003,8.419636e-003
2.871533e+003,8.630694e-003
2.873461e+003,8.924778e-003
2.875390e+003,9.140515e-003
2.877319e+003,9.344035e-003
2.879247e+003,9.509684e-003
2.881176e+003,9.536609e-003
2.883104e+003,9.469214e-003
2.885032e+003,9.460544e-003
2.886961e+003,9.396919e-003
2.888889e+003,9.250640e-003
2.890818e+003,9.091857e-003
2.892747e+003,8.956471e-003
2.894675e+003,8.851661e-003
2.896604e+003,8.698196e-003
2.898532e+003,8.495823e-003
2.900460e+003,8.294422e-003
2.902389e+003,8.047611e-003
2.904317e+003,7.748724e-003
2.906246e+003,7.517226e-003
2.908175e+003,7.282650e-003
2.910103e+003,6.934491e-003
2.912031e+003,6.572078e-003
2.913960e+003,6.160025e-003
2.915888e+003,5.660571e-003
2.917817e+003,5.182848e-003
2.919745e+003,4.764372e-003
2.921674e+003,4.343687e-003
2.923603e+003,3.977544e-003
2.925531e+003,3.758641e-003
2.927459e+003,3.665638e-003
2.929388e+003,3.778027e-003
2.931316e+003,3.934377e-003
2.933245e+003,4.123697e-003
2.935173e+003,4.459543e-003
2.937102e+003,4.838343e-003
2.939031e+003,5.174026e-003
2.940959e+003,5.494965e-003
2.942887e+003,5.810906e-003
2.944816e+003,6.005348e-003
2.946744e+003,6.070948e-003
2.948673e+003,6.059090e-003
2.950601e+003,6.069939e-003
2.952530e+003,6.148189e-003
2.954458e+003,6.303286e-003
2.956387e+003,6.515784e-003
2.958315e+003,6.722186e-003
2.960244e+003,7.008461e-003
2.962172e+003,7.378337e-003
2.964101e+003,7.672853e-003
2.966029e+003,7.921094e-003
2.967958e+003,8.141576e-003
2.969886e+003,8.513489e-003
2.971815e+003,8.796331e-003
2.973743e+003,8.941235e-003
2.975672e+003,9.102521e-003
2.977600e+003,9.189843e-003
2.979529e+003,9.251176e-003
2.981457e+003,9.354919e-003
2.983386e+003,9.421132e-003
2.985314e+003,9.528212e-003
2.987243e+003,9.606117e-003
2.989171e+003,9.690891e-003
2.991100e+003,9.768000e-003
2.993028e+003,9.848405e-003
2.994957e+003,9.960505e-003
2.996885e+003,9.996091e-003
2.998814e+003,9.990289e-003
3.000742e+003,1.008013e-002
3.002671e+003,1.016679e-002
3.004599e+003,1.020934e-002
3.006528e+003,1.020883e-002
3.008456e+003,1.024668e-002
3.010385e+003,1.033358e-002
3.012313e+003,1.041586e-002
3.014242e+003,1.049620e-002
3.016170e+003,1.054085e-002
3.018099e+003,1.057209e-002
3.020027e+003,1.066405e-002
3.021956e+003,1.072235e-002
3.023884e+003,1.078897e-002
3.025813e+003,1.081381e-002
3.027741e+003,1.088680e-002
3.029670e+003,1.096503e-002
3.031598e+003,1.097018e-002
3.033527e+003,1.097052e-002
3.035455e+003,1.099669e-002
3.037384e+003,1.104869e-002
3.039312e+003,1.116554e-002
3.041241e+003,1.118612e-002
3.043169e+003,1.116174e-002
3.045098e+003,1.112740e-002
3.047026e+003,1.125137e-002
3.048955e+003,1.130076e-002
3.050883e+003,1.134088e-002
3.052812e+003,1.146621e-002
3.054740e+003,1.147971e-002
3.056669e+003,1.148540e-002
3.058597e+003,1.144615e-002
3.060526e+003,1.151763e-002
3.062454e+003,1.162787e-002
3.064383e+003,1.164438e-002
3.066311e+003,1.164473e-002
3.068240e+003,1.162702e-002
3.070168e+003,1.165078e-002
3.072097e+003,1.168805e-002
3.074025e+003,1.175605e-002
3.075954e+003,1.177484e-002
3.077882e+003,1.182478e-002
3.079811e+003,1.189721e-002
3.081739e+003,1.189838e-002
3.083668e+003,1.189642e-002
3.085596e+003,1.195106e-002
3.087525e+003,1.202024e-002
3.089453e+003,1.215048e-002
3.091382e+003,1.215604e-002
3.093310e+003,1.210849e-002
3.095239e+003,1.215320e-002
3.097167e+003,1.213872e-002
3.099096e+003,1.216407e-002
3.101024e+003,1.223444e-002
3.102953e+003,1.228569e-002
3.104881e+003,1.231264e-002
3.106810e+003,1.228758e-002
3.108738e+003,1.235019e-002
3.110667e+003,1.242085e-002
3.112595e+003,1.252485e-002
3.114524e+003,1.262291e-002
3.116452e+003,1.262253e-002
3.118381e+003,1.265270e-002
3.120309e+003,1.276402e-002
3.122238e+003,1.270936e-002
3.124166e+003,1.269334e-002
3.126095e+003,1.273427e-002
3.128023e+003,1.284028e-002
3.129952e+003,1.295680e-002
3.131880e+003,1.293158e-002
3.133809e+003,1.293666e-002
3.135737e+003,1.304390e-002
3.137666e+003,1.317598e-002
3.139594e+003,1.330296e-002
3.141523e+003,1.327097e-002
3.143451e+003,1.325458e-002
3.145380e+003,1.334370e-002
3.147308e+003,1.336762e-002
3.149237e+003,1.341140e-002
3.151165e+003,1.354619e-002
3.153094e+003,1.359103e-002
3.155022e+003,1.358498e-002
3.156951e+003,1.373214e-002
3.158879e+003,1.379114e-002
3.160808e+003,1.381012e-002
3.162736e+003,1.385699e-002
3.164665e+003,1.392031e-002
3.166593e+003,1.402792e-002
3.168522e+003,1.404747e-002
3.170450e+003,1.413663e-002
3.172379e+003,1.421254e-002
3.174307e+003,1.430366e-002
3.176236e+003,1.437324e-002
3.178164e+003,1.446195e-002
3.180093e+003,1.452459e-002
3.182021e+003,1.465163e-002
3.183950e+003,1.475187e-002
3.185878e+003,1.480978e-002
3.187807e+003,1.487134e-002
3.189735e+003,1.493600e-002
3.191664e+003,1.497246e-002
3.193592e+003,1.501192e-002
3.195521e+003,1.509267e-002
3.197449e+003,1.514556e-002
3.199378e+003,1.516658e-002
3.201306e+003,1.521358e-002
3.203235e+003,1.533767e-002
3.205163e+003,1.542036e-002
3.207092e+003,1.549979e-002
3.209020e+003,1.563242e-002
3.210948e+003,1.566399e-002
3.212877e+003,1.574214e-002
3.214806e+003,1.588687e-002
3.216734e+003,1.592612e-002
3.218663e+003,1.588402e-002
3.220591e+003,1.600354e-002
3.222520e+003,1.608890e-002
3.224448e+003,1.618466e-002
3.226376e+003,1.626430e-002
3.228305e+003,1.633645e-002
3.230234e+003,1.640147e-002
3.232162e+003,1.643988e-002
3.234091e+003,1.648630e-002
3.236019e+003,1.654151e-002
3.237948e+003,1.665215e-002
3.239876e+003,1.682009e-002
3.241804e+003,1.687727e-002
3.243733e+003,1.699096e-002
3.245662e+003,1.698333e-002
3.247590e+003,1.701823e-002
3.249519e+003,1.718823e-002
3.251447e+003,1.729260e-002
3.253375e+003,1.733802e-002
3.255304e+003,1.745608e-002
3.257232e+003,1.755873e-002
3.259161e+003,1.765214e-002
3.261090e+003,1.776639e-002
3.263018e+003,1.787276e-002
3.264947e+003,1.793096e-002
3.266875e+003,1.803448e-002
3.268803e+003,1.809126e-002
3.270732e+003,1.815169e-002
3.272660e+003,1.819856e-002
3.274589e+003,1.825081e-002
3.276518e+003,1.831543e-002
3.278446e+003,1.835476e-002
3.280375e+003,1.850763e-002
3.282303e+003,1.862341e-002
3.284231e+003,1.865849e-002
3.286160e+003,1.863174e-002
3.288088e+003,1.856723e-002
3.290017e+003,1.859569e-002
3.291946e+003,1.869975e-002
3.293874e+003,1.875707e-002
3.295802e+003,1.876528e-002
3.297731e+003,1.871908e-002
3.299659e+003,1.875341e-002
3.301588e+003,1.883868e-002
3.303516e+003,1.873296e-002
3.305445e+003,1.871292e-002
3.307374e+003,1.881271e-002
3.309302e+003,1.884436e-002
3.311230e+003,1.883581e-002
3.313159e+003,1.884709e-002
3.315087e+003,1.887317e-002
3.317016e+003,1.890716e-002
3.318944e+003,1.890047e-002
3.320873e+003,1.896194e-002
3.322802e+003,1.902519e-002
3.324730e+003,1.903566e-002
3.326658e+003,1.898980e-002
3.328587e+003,1.904436e-002
3.330515e+003,1.912751e-002
3.332444e+003,1.916355e-002
3.334372e+003,1.911295e-002
3.336301e+003,1.919051e-002
3.338229e+003,1.921744e-002
3.340158e+003,1.909479e-002
3.342086e+003,1.903029e-002
3.344015e+003,1.907895e-002
3.345943e+003,1.908642e-002
3.347872e+003,1.903469e-002
3.349800e+003,1.899421e-002
3.351729e+003,1.904218e-002
3.353657e+003,1.898327e-002
3.355586e+003,1.888861e-002
3.357514e+003,1.886274e-002
3.359443e+003,1.887153e-002
3.361371e+003,1.871350e-002
3.363300e+003,1.860655e-002
3.365229e+003,1.862968e-002
3.367157e+003,1.863626e-002
3.369085e+003,1.858082e-002
3.371014e+003,1.853834e-002
3.372942e+003,1.845581e-002
3.374871e+003,1.836757e-002
3.376799e+003,1.841227e-002
3.378728e+003,1.838904e-002
3.380656e+003,1.835876e-002
3.382585e+003,1.833922e-002
3.384513e+003,1.823881e-002
3.386442e+003,1.814913e-002
3.388370e+003,1.811535e-002
3.390299e+003,1.809708e-002
3.392227e+003,1.800239e-002
3.394156e+003,1.797182e-002
3.396084e+003,1.788950e-002
3.398013e+003,1.778039e-002
3.399941e+003,1.768372e-002
3.401870e+003,1.764727e-002
3.403798e+003,1.766344e-002
3.405727e+003,1.759579e-002
3.407655e+003,1.753289e-002
3.409584e+003,1.749489e-002
3.411512e+003,1.738735e-002
3.413441e+003,1.737219e-002
3.415369e+003,1.732854e-002
3.417298e+003,1.715064e-002
3.419226e+003,1.705561e-002
3.421155e+003,1.697611e-002
3.423083e+003,1.680744e-002
3.425012e+003,1.670480e-002
3.426940e+003,1.662719e-002
3.428869e+003,1.657870e-002
3.430797e+003,1.648704e-002
3.432726e+003,1.637271e-002
3.434654e+003,1.619644e-002
3.436583e+003,1.614128e-002
3.438511e+003,1.594191e-002
3.440440e+003,1.579673e-002
3.442368e+003,1.579446e-002
3.444297e+003,1.574440e-002
3.446225e+003,1.560303e-002
3.448154e+003,1.544021e-002
3.450082e+003,1.525555e-002
3.452011e+003,1.508983e-002
3.453939e+003,1.499009e-002
3.455868e+003,1.494982e-002
3.457796e+003,1.492639e-002
3.459725e+003,1.481871e-002
3.461653e+003,1.469821e-002
3.463582e+003,1.456615e-002
3.465510e+003,1.438699e-002
3.467439e+003,1.427469e-002
3.469367e+003,1.415061e-002
3.471296e+003,1.400127e-002
3.473224e+003,1.391642e-002
3.475153e+003,1.383102e-002
3.477081e+003,1.377728e-002
3.479010e+003,1.372217e-002
3.480938e+003,1.360753e-002
3.482867e+003,1.347041e-002
3.484795e+003,1.335669e-002
3.486724e+003,1.326298e-002
3.488652e+003,1.316891e-002
3.490581e+003,1.310413e-002
3.492509e+003,1.298850e-002
3.494438e+003,1.295024e-002
3.496366e+003,1.285201e-002
3.498295e+003,1.271554e-002
3.500223e+003,1.257179e-002
3.502152e+003,1.255875e-002
3.504080e+003,1.246023e-002
3.506009e+003,1.230488e-002
3.507937e+003,1.224010e-002
3.509866e+003,1.218766e-002
3.511794e+003,1.198312e-002
3.513723e+003,1.187444e-002
3.515651e+003,1.178546e-002
3.517580e+003,1.180120e-002
3.519508e+003,1.172228e-002
3.521437e+003,1.170092e-002
3.523365e+003,1.164225e-002
3.525294e+003,1.152313e-002
3.527222e+003,1.141187e-002
3.529151e+003,1.134184e-002
3.531079e+003,1.119679e-002
3.533008e+003,1.108515e-002
3.534936e+003,1.101581e-002
3.536865e+003,1.090974e-002
3.538793e+003,1.084981e-002
3.540722e+003,1.078148e-002
3.542650e+003,1.071651e-002
3.544579e+003,1.070841e-002
3.546507e+003,1.063414e-002
3.548436e+003,1.051100e-002
3.550364e+003,1.049941e-002
3.552293e+003,1.049927e-002
3.554221e+003,1.039191e-002
3.556150e+003,1.039414e-002
3.558078e+003,1.029646e-002
3.560007e+003,1.017070e-002
3.561935e+003,1.004646e-002
3.563864e+003,1.003386e-002
3.565792e+003,1.001756e-002
3.567721e+003,9.964469e-003
3.569649e+003,9.865678e-003
3.571578e+003,9.847184e-003
3.573506e+003,9.765475e-003
3.575435e+003,9.658433e-003
3.577363e+003,9.633461e-003
3.579292e+003,9.558151e-003
3.581220e+003,9.492144e-003
3.583149e+003,9.479871e-003
3.585077e+003,9.459361e-003
3.587006e+003,9.489334e-003
3.588934e+003,9.408914e-003
3.590863e+003,9.357926e-003
3.592791e+003,9.384123e-003
3.594720e+003,9.361302e-003
3.596648e+003,9.285623e-003
3.598577e+003,9.335393e-003
3.600505e+003,9.318857e-003
3.602434e+003,9.121899e-003
3.604362e+003,8.957116e-003
3.606291e+003,8.832642e-003
3.608219e+003,8.773134e-003
3.610148e+003,8.766462e-003
3.612076e+003,8.607692e-003
3.614005e+003,8.585961e-003
3.615933e+003,8.572110e-003
3.617862e+003,8.488720e-003
3.619790e+003,8.591752e-003
3.621719e+003,8.667625e-003
3.623647e+003,8.621166e-003
3.625576e+003,8.585770e-003
3.627504e+003,8.561163e-003
3.629433e+003,8.449298e-003
3.631361e+003,8.368656e-003
3.633290e+003,8.342330e-003
3.635218e+003,8.092351e-003
3.637146e+003,7.970705e-003
3.639075e+003,8.007017e-003
3.641004e+003,7.966162e-003
3.642932e+003,7.806834e-003
3.644861e+003,7.784660e-003
3.646789e+003,7.698034e-003
3.648718e+003,7.689601e-003
3.650646e+003,7.629185e-003
3.652574e+003,7.552132e-003
3.654503e+003,7.577698e-003
3.656432e+003,7.589735e-003
3.658360e+003,7.525970e-003
3.660289e+003,7.566790e-003
3.662217e+003,7.510100e-003
3.664146e+003,7.473620e-003
3.666074e+003,7.415741e-003
3.668002e+003,7.443235e-003
3.669931e+003,7.490355e-003
3.671860e+003,7.491346e-003
3.673788e+003,7.380736e-003
3.675717e+003,7.309983e-003
3.677645e+003,7.384817e-003
3.679573e+003,7.535897e-003
3.681502e+003,7.579033e-003
3.683430e+003,7.571680e-003
3.685359e+003,7.538752e-003
3.687288e+003,7.593677e-003
3.689216e+003,7.768385e-003
3.691145e+003,7.717856e-003
3.693073e+003,7.661377e-003
3.695001e+003,7.816608e-003
3.696930e+003,7.842620e-003
3.698858e+003,7.865821e-003
3.700787e+003,7.896227e-003
3.702716e+003,7.871639e-003
3.704644e+003,7.784271e-003
3.706573e+003,7.791880e-003
3.708501e+003,7.775411e-003
3.710429e+003,7.762078e-003
3.712358e+003,7.563915e-003
3.714286e+003,7.456470e-003
3.716215e+003,7.524284e-003
3.718144e+003,7.672439e-003
3.720072e+003,7.774241e-003
3.722000e+003,7.899756e-003
3.723929e+003,7.984173e-003
3.725857e+003,8.036343e-003
3.727786e+003,8.079687e-003
3.729714e+003,8.145167e-003
3.731643e+003,8.119137e-003
3.733572e+003,8.037764e-003
3.735500e+003,7.960928e-003
3.737428e+003,7.727730e-003
3.739357e+003,7.581987e-003
3.741285e+003,7.542192e-003
3.743214e+003,7.456677e-003
3.745142e+003,7.482746e-003
3.747071e+003,7.418904e-003
3.749000e+003,7.357189e-003
3.750928e+003,7.413035e-003
3.752856e+003,7.437528e-003
3.754785e+003,7.518114e-003
3.756713e+003,7.559796e-003
3.758642e+003,7.526607e-003
3.760570e+003,7.447550e-003
3.762499e+003,7.439972e-003
3.764427e+003,7.493177e-003
3.766356e+003,7.539427e-003
3.768284e+003,7.532311e-003
3.770213e+003,7.527513e-003
3.772141e+003,7.487099e-003
3.774070e+003,7.468867e-003
3.775998e+003,7.629490e-003
3.777927e+003,7.648943e-003
3.779855e+003,7.620542e-003
3.781784e+003,7.588540e-003
3.783712e+003,7.570271e-003
3.785641e+003,7.669588e-003
3.787569e+003,7.748930e-003
3.789498e+003,7.714192e-003
3.791426e+003,7.670857e-003
3.793355e+003,7.624147e-003
3.795283e+003,7.647525e-003
3.797212e+003,7.735232e-003
3.799140e+003,7.734089e-003
3.801069e+003,7.672223e-003
3.802997e+003,7.685000e-003
3.804926e+003,7.701363e-003
3.806854e+003,7.746481e-003
3.808783e+003,7.741966e-003
3.810711e+003,7.780239e-003
3.812640e+003,7.811330e-003
3.814568e+003,7.750284e-003
3.816497e+003,7.700099e-003
3.818425e+003,7.695587e-003
3.820354e+003,7.671206e-003
3.822282e+003,7.735143e-003
3.824211e+003,7.765499e-003
3.826139e+003,7.757640e-003
3.828068e+003,7.784172e-003
3.829996e+003,7.783527e-003
3.831925e+003,7.751293e-003
3.833853e+003,7.782395e-003
3.835782e+003,7.822307e-003
3.837710e+003,7.800744e-003
3.839639e+003,7.806875e-003
3.841567e+003,7.804572e-003
3.843496e+003,7.809306e-003
3.845424e+003,7.856523e-003
3.847353e+003,7.870378e-003
3.849281e+003,7.863277e-003
3.851210e+003,7.803138e-003
3.853138e+003,7.818304e-003
3.855067e+003,7.947695e-003
3.856995e+003,7.930364e-003
3.858924e+003,7.926956e-003
3.860852e+003,7.964893e-003
3.862781e+003,7.909644e-003
3.864709e+003,7.850947e-003
3.866638e+003,7.846320e-003
3.868566e+003,7.865028e-003
3.870495e+003,7.943751e-003
3.872423e+003,7.957151e-003
3.874352e+003,7.868027e-003
3.876280e+003,7.914722e-003
3.878209e+003,7.976878e-003
3.880137e+003,7.951695e-003
3.882066e+003,7.894765e-003
3.883994e+003,7.969640e-003
3.885923e+003,7.991551e-003
3.887851e+003,7.968795e-003
3.889780e+003,7.938189e-003
3.891708e+003,7.943557e-003
3.893637e+003,8.055132e-003
3.895565e+003,8.054256e-003
3.897494e+003,8.083713e-003
3.899422e+003,8.106186e-003
3.901351e+003,8.012907e-003
3.903279e+003,8.012420e-003
3.905208e+003,8.015492e-003
3.907136e+003,8.030496e-003
3.909065e+003,8.002665e-003
3.910993e+003,7.979838e-003
3.912922e+003,8.002874e-003
3.914850e+003,8.044817e-003
3.916779e+003,8.042758e-003
3.918707e+003,8.052395e-003
3.920636e+003,8.083237e-003
3.922564e+003,8.069571e-003
3.924493e+003,8.065313e-003
3.926421e+003,8.117451e-003
3.928350e+003,8.044017e-003
3.930278e+003,8.022462e-003
3.932207e+003,8.129495e-003
3.934135e+003,8.132232e-003
3.936064e+003,8.159853e-003
3.937992e+003,8.141092e-003
3.939921e+003,8.110881e-003
3.941849e+003,8.049882e-003
3.943778e+003,7.986156e-003
3.945706e+003,8.007539e-003
3.947635e+003,8.021488e-003
3.949563e+003,8.057607e-003
3.951492e+003,8.033100e-003
3.953420e+003,8.045541e-003
3.955349e+003,8.085781e-003
3.957277e+003,8.104025e-003
3.959206e+003,8.125518e-003
3.961134e+003,8.134600e-003
3.963063e+003,8.122209e-003
3.964991e+003,8.090969e-003
3.966920e+003,8.097535e-003
3.968848e+003,8.163400e-003
3.970777e+003,8.145039e-003
3.972705e+003,8.073471e-003
3.974634e+003,8.112571e-003
3.976562e+003,8.163224e-003
3.978491e+003,8.126535e-003
3.980419e+003,8.059657e-003
3.982348e+003,8.123798e-003
3.984276e+003,8.179521e-003
3.986205e+003,8.067958e-003
3.988133e+003,8.114805e-003
3.990062e+003,8.115486e-003
3.991990e+003,8.092177e-003
3.993919e+003,8.104528e-003
3.995847e+003,8.166023e-003
3.997776e+003,8.146067e-003
3.999704e+003,8.145948e-003
4.001633e+003,0.000000e+000
