3.991989e+002,5.242969e-002
4.011274e+002,4.802076e-002
4.030559e+002,4.802076e-002
4.049844e+002,4.835200e-002
4.069129e+002,4.638761e-002
4.088414e+002,4.642267e-002
4.107699e+002,4.540177e-002
4.126984e+002,4.546618e-002
4.146269e+002,4.562259e-002
4.165554e+002,4.666721e-002
4.184839e+002,4.531903e-002
4.204124e+002,4.311362e-002
4.223409e+002,4.243632e-002
4.242694e+002,4.227139e-002
4.261979e+002,4.363085e-002
4.281264e+002,4.376231e-002
4.300549e+002,4.289307e-002
4.319834e+002,4.266219e-002
4.339119e+002,4.236425e-002
4.358404e+002,4.316138e-002
4.377689e+002,4.364782e-002
4.396974e+002,4.295786e-002
4.416259e+002,4.279215e-002
4.435544e+002,4.256442e-002
4.454829e+002,4.225350e-002
4.474114e+002,4.186527e-002
4.493399e+002,4.152917e-002
4.512684e+002,4.122101e-002
4.531969e+002,4.026040e-002
4.551254e+002,4.001546e-002
4.570539e+002,3.978011e-002
4.589824e+002,4.017387e-002
4.609109e+002,4.069264e-002
4.628394e+002,4.049915e-002
4.647679e+002,4.011697e-002
4.666964e+002,3.991374e-002
4.686249e+002,3.966762e-002
4.705533e+002,3.949739e-002
4.724819e+002,3.926275e-002
4.744103e+002,3.929635e-002
4.763389e+002,3.905247e-002
4.782673e+002,3.926995e-002
4.801959e+002,3.967139e-002
4.821243e+002,3.919765e-002
4.840529e+002,3.951998e-002
4.859813e+002,3.956425e-002
4.879099e+002,3.958762e-002
4.898383e+002,3.987051e-002
4.917668e+002,3.987911e-002
4.936953e+002,3.975426e-002
4.956238e+002,4.005196e-002
4.975523e+002,3.959641e-002
4.994808e+002,3.902128e-002
5.014093e+002,3.930040e-002
5.033378e+002,3.926449e-002
5.052663e+002,3.922372e-002
5.071948e+002,3.924070e-002
5.091233e+002,3.939123e-002
5.110518e+002,3.905426e-002
5.129803e+002,3.970553e-002
5.149088e+002,3.984899e-002
5.168373e+002,3.979539e-002
5.187658e+002,3.970634e-002
5.206943e+002,3.983041e-002
5.226228e+002,3.965988e-002
5.245513e+002,3.951998e-002
5.264798e+002,3.961053e-002
5.284083e+002,4.027327e-002
5.303368e+002,4.015973e-002
5.322653e+002,3.935525e-002
5.341938e+002,3.868274e-002
5.361223e+002,3.885995e-002
5.380508e+002,3.870536e-002
5.399792e+002,3.899682e-002
5.419078e+002,3.898903e-002
5.438363e+002,3.914268e-002
5.457648e+002,3.890581e-002
5.476932e+002,3.878907e-002
5.496218e+002,3.868063e-002
5.515503e+002,3.885222e-002
5.534788e+002,3.896055e-002
5.554072e+002,3.925399e-002
5.573358e+002,3.925695e-002
5.592643e+002,3.950724e-002
5.611927e+002,3.941211e-002
5.631212e+002,3.944367e-002
5.650497e+002,3.914415e-002
5.669783e+002,3.912153e-002
5.689067e+002,3.889465e-002
5.708352e+002,3.872960e-002
5.727637e+002,3.829123e-002
5.746923e+002,3.846140e-002
5.766207e+002,3.838487e-002
5.785492e+002,3.818046e-002
5.804777e+002,3.808023e-002
5.824063e+002,3.783411e-002
5.843347e+002,3.759396e-002
5.862632e+002,3.784250e-002
5.881917e+002,3.770386e-002
5.901202e+002,3.760064e-002
5.920487e+002,3.748282e-002
5.939772e+002,3.771502e-002
5.959057e+002,3.750943e-002
5.978342e+002,3.731247e-002
5.997627e+002,3.709273e-002
6.016912e+002,3.744112e-002
6.036197e+002,3.726689e-002
6.055482e+002,3.694135e-002
6.074767e+002,3.681315e-002
6.094052e+002,3.702918e-002
6.113337e+002,3.675415e-002
6.132622e+002,3.649101e-002
6.151907e+002,3.631528e-002
6.171192e+002,3.596678e-002
6.190477e+002,3.540822e-002
6.209762e+002,3.538442e-002
6.229047e+002,3.494043e-002
6.248332e+002,3.440455e-002
6.267617e+002,3.402982e-002
6.286902e+002,3.398412e-002
6.306187e+002,3.377621e-002
6.325472e+002,3.359724e-002
6.344756e+002,3.309264e-002
6.364042e+002,3.299372e-002
6.383326e+002,3.292814e-002
6.402612e+002,3.285187e-002
6.421896e+002,3.256695e-002
6.441182e+002,3.227702e-002
6.460466e+002,3.200508e-002
6.479752e+002,3.192966e-002
6.499036e+002,3.173343e-002
6.518322e+002,3.180125e-002
6.537606e+002,3.178011e-002
6.556891e+002,3.183230e-002
6.576177e+002,3.180046e-002
6.595461e+002,3.169492e-002
6.614746e+002,3.160323e-002
6.634031e+002,3.174739e-002
6.653317e+002,3.149954e-002
6.672601e+002,3.131955e-002
6.691886e+002,3.113825e-002
6.711171e+002,3.092318e-002
6.730457e+002,3.055269e-002
6.749741e+002,3.029160e-002
6.769026e+002,2.994782e-002
6.788311e+002,2.973436e-002
6.807596e+002,2.914237e-002
6.826881e+002,2.889894e-002
6.846166e+002,2.878471e-002
6.865451e+002,2.853526e-002
6.884736e+002,2.831202e-002
6.904021e+002,2.821892e-002
6.923306e+002,2.803080e-002
6.942591e+002,2.809023e-002
6.961876e+002,2.787048e-002
6.981161e+002,2.767792e-002
7.000446e+002,2.755912e-002
7.019731e+002,2.743692e-002
7.039016e+002,2.713334e-002
7.058301e+002,2.704270e-002
7.077585e+002,2.678782e-002
7.096871e+002,2.649782e-002
7.116156e+002,2.635743e-002
7.135441e+002,2.626129e-002
7.154725e+002,2.592638e-002
7.174011e+002,2.583799e-002
7.193296e+002,2.566017e-002
7.212581e+002,2.550334e-002
7.231865e+002,2.533142e-002
7.251151e+002,2.516412e-002
7.270436e+002,2.487978e-002
7.289720e+002,2.472232e-002
7.309005e+002,2.447949e-002
7.328290e+002,2.420690e-002
7.347576e+002,2.399719e-002
7.366860e+002,2.404143e-002
7.386145e+002,2.392611e-002
7.405430e+002,2.383862e-002
7.424716e+002,2.361662e-002
7.444000e+002,2.350190e-002
7.463285e+002,2.323368e-002
7.482570e+002,2.318217e-002
7.501855e+002,2.299465e-002
7.521140e+002,2.284085e-002
7.540425e+002,2.274095e-002
7.559710e+002,2.275589e-002
7.578995e+002,2.253810e-002
7.598280e+002,2.227291e-002
7.617565e+002,2.204466e-002
7.636850e+002,2.202859e-002
7.656135e+002,2.201496e-002
7.675420e+002,2.202399e-002
7.694705e+002,2.188266e-002
7.713990e+002,2.178845e-002
7.733275e+002,2.170773e-002
7.752560e+002,2.162589e-002
7.771844e+002,2.156439e-002
7.791130e+002,2.159458e-002
7.810415e+002,2.147978e-002
7.829700e+002,2.136804e-002
7.848984e+002,2.120821e-002
7.868270e+002,2.119322e-002
7.887555e+002,2.106448e-002
7.906840e+002,2.097910e-002
7.926124e+002,2.085939e-002
7.945410e+002,2.082448e-002
7.964695e+002,2.071114e-002
7.983979e+002,2.069811e-002
8.003264e+002,2.058028e-002
8.022549e+002,2.068407e-002
8.041835e+002,2.078385e-002
8.061119e+002,2.063525e-002
8.080404e+002,2.045808e-002
8.099689e+002,2.044714e-002
8.118975e+002,2.038365e-002
8.138259e+002,2.036570e-002
8.157545e+002,2.020603e-002
8.176830e+002,2.019992e-002
8.196115e+002,2.015344e-002
8.215399e+002,2.015188e-002
8.234684e+002,2.002688e-002
8.253970e+002,1.990338e-002
8.273254e+002,1.990116e-002
8.292539e+002,2.005894e-002
8.311824e+002,1.993637e-002
8.331110e+002,1.975608e-002
8.350394e+002,1.965824e-002
8.369679e+002,1.967973e-002
8.388964e+002,1.958749e-002
8.408250e+002,1.954669e-002
8.427534e+002,1.935953e-002
8.446819e+002,1.920906e-002
8.466104e+002,1.919670e-002
8.485389e+002,1.921720e-002
8.504674e+002,1.926389e-002
8.523959e+002,1.941452e-002
8.543244e+002,1.932662e-002
8.562529e+002,1.920958e-002
8.581814e+002,1.918662e-002
8.601099e+002,1.925551e-002
8.620384e+002,1.924959e-002
8.639669e+002,1.929940e-002
8.658954e+002,1.932756e-002
8.678239e+002,1.932545e-002
8.697524e+002,1.928842e-002
8.716809e+002,1.929119e-002
8.736094e+002,1.930629e-002
8.755378e+002,1.934311e-002
8.774664e+002,1.941306e-002
8.793949e+002,1.956728e-002
8.813234e+002,1.963151e-002
8.832518e+002,1.972345e-002
8.851804e+002,1.983942e-002
8.871089e+002,2.002088e-002
8.890374e+002,2.025907e-002
8.909658e+002,2.060439e-002
8.928943e+002,2.077857e-002
8.948229e+002,2.089683e-002
8.967513e+002,2.103776e-002
8.986798e+002,2.115140e-002
9.006083e+002,2.103324e-002
9.025369e+002,2.076852e-002
9.044653e+002,2.048823e-002
9.063938e+002,2.030424e-002
9.083223e+002,2.009264e-002
9.102509e+002,2.007977e-002
9.121793e+002,1.994702e-002
9.141078e+002,1.986161e-002
9.160364e+002,1.984615e-002
9.179648e+002,1.984126e-002
9.198933e+002,1.987258e-002
9.218218e+002,1.991958e-002
9.237504e+002,2.000506e-002
9.256788e+002,2.016035e-002
9.276073e+002,2.020523e-002
9.295358e+002,2.036844e-002
9.314644e+002,2.048660e-002
9.333928e+002,2.063928e-002
9.353213e+002,2.079150e-002
9.372498e+002,2.104948e-002
9.391783e+002,2.126510e-002
9.411068e+002,2.162951e-002
9.430353e+002,2.197003e-002
9.449637e+002,2.223779e-002
9.468923e+002,2.267820e-002
9.488208e+002,2.317854e-002
9.507493e+002,2.358807e-002
9.526777e+002,2.407045e-002
9.546063e+002,2.442993e-002
9.565348e+002,2.487296e-002
9.584633e+002,2.544827e-002
9.603917e+002,2.607625e-002
9.623203e+002,2.654995e-002
9.642488e+002,2.703993e-002
9.661772e+002,2.752619e-002
9.681057e+002,2.807966e-002
9.700343e+002,2.858708e-002
9.719628e+002,2.914920e-002
9.738912e+002,2.976637e-002
9.758197e+002,3.044288e-002
9.777483e+002,3.115277e-002
9.796768e+002,3.193067e-002
9.816052e+002,3.272031e-002
9.835337e+002,3.360165e-002
9.854623e+002,3.446291e-002
9.873907e+002,3.532059e-002
9.893192e+002,3.603793e-002
9.912477e+002,3.656772e-002
9.931763e+002,3.691818e-002
9.951047e+002,3.724545e-002
9.970332e+002,3.752352e-002
9.989617e+002,3.795820e-002
1.000890e+003,3.849052e-002
1.002819e+003,3.906652e-002
1.004747e+003,3.961359e-002
1.006676e+003,4.014682e-002
1.008604e+003,4.070850e-002
1.010533e+003,4.133140e-002
1.012461e+003,4.202085e-002
1.014390e+003,4.276372e-002
1.016318e+003,4.353924e-002
1.018247e+003,4.437274e-002
1.020175e+003,4.533906e-002
1.022104e+003,4.627911e-002
1.024032e+003,4.724688e-002
1.025961e+003,4.834837e-002
1.027889e+003,4.947814e-002
1.029818e+003,5.054459e-002
1.031746e+003,5.155448e-002
1.033675e+003,5.234013e-002
1.035603e+003,5.285950e-002
1.037532e+003,5.303112e-002
1.039460e+003,5.277501e-002
1.041389e+003,5.243399e-002
1.043317e+003,5.209007e-002
1.045246e+003,5.184878e-002
1.047174e+003,5.162124e-002
1.049103e+003,5.141060e-002
1.051031e+003,5.116864e-002
1.052960e+003,5.088152e-002
1.054888e+003,5.043606e-002
1.056817e+003,5.000492e-002
1.058745e+003,4.931898e-002
1.060674e+003,4.850728e-002
1.062602e+003,4.785522e-002
1.064531e+003,4.724037e-002
1.066459e+003,4.649657e-002
1.068388e+003,4.560006e-002
1.070316e+003,4.482327e-002
1.072245e+003,4.415731e-002
1.074173e+003,4.352617e-002
1.076102e+003,4.284358e-002
1.078030e+003,4.208097e-002
1.079959e+003,4.128891e-002
1.081887e+003,4.047832e-002
1.083816e+003,3.976418e-002
1.085744e+003,3.911684e-002
1.087673e+003,3.855052e-002
1.089601e+003,3.802214e-002
1.091530e+003,3.754104e-002
1.093458e+003,3.712136e-002
1.095387e+003,3.673770e-002
1.097315e+003,3.647502e-002
1.099244e+003,3.632027e-002
1.101172e+003,3.619741e-002
1.103101e+003,3.609561e-002
1.105029e+003,3.592936e-002
1.106958e+003,3.556668e-002
1.108886e+003,3.511402e-002
1.110815e+003,3.457050e-002
1.112743e+003,3.391562e-002
1.114672e+003,3.312900e-002
1.116600e+003,3.241884e-002
1.118529e+003,3.181040e-002
1.120457e+003,3.116070e-002
1.122386e+003,3.043868e-002
1.124314e+003,2.971588e-002
1.126243e+003,2.901751e-002
1.128171e+003,2.827054e-002
1.130100e+003,2.750413e-002
1.132028e+003,2.681001e-002
1.133957e+003,2.626921e-002
1.135885e+003,2.576136e-002
1.137814e+003,2.536294e-002
1.139742e+003,2.514409e-002
1.141671e+003,2.514128e-002
1.143599e+003,2.525561e-002
1.145528e+003,2.539825e-002
1.147456e+003,2.558697e-002
1.149385e+003,2.582528e-002
1.151313e+003,2.607583e-002
1.153242e+003,2.633296e-002
1.155170e+003,2.650726e-002
1.157099e+003,2.663477e-002
1.159027e+003,2.671137e-002
1.160956e+003,2.666021e-002
1.162884e+003,2.646553e-002
1.164813e+003,2.601011e-002
1.166741e+003,2.537324e-002
1.168670e+003,2.461427e-002
1.170598e+003,2.379509e-002
1.172526e+003,2.296190e-002
1.174455e+003,2.212840e-002
1.176384e+003,2.140546e-002
1.178312e+003,2.077947e-002
1.180240e+003,2.024887e-002
1.182169e+003,1.987258e-002
1.184098e+003,1.959730e-002
1.186026e+003,1.930011e-002
1.187954e+003,1.913699e-002
1.189883e+003,1.905211e-002
1.191812e+003,1.907808e-002
1.193740e+003,1.918388e-002
1.195668e+003,1.934646e-002
1.197597e+003,1.955666e-002
1.199526e+003,1.982779e-002
1.201454e+003,2.004215e-002
1.203382e+003,2.015764e-002
1.205311e+003,2.022732e-002
1.207240e+003,2.029151e-002
1.209168e+003,2.031514e-002
1.211096e+003,2.039035e-002
1.213025e+003,2.054300e-002
1.214953e+003,2.065441e-002
1.216882e+003,2.080564e-002
1.218810e+003,2.103042e-002
1.220739e+003,2.116961e-002
1.222667e+003,2.131367e-002
1.224596e+003,2.153340e-002
1.226524e+003,2.175451e-002
1.228453e+003,2.197326e-002
1.230381e+003,2.213826e-002
1.232310e+003,2.224026e-002
1.234238e+003,2.234737e-002
1.236167e+003,2.243847e-002
1.238095e+003,2.246537e-002
1.240024e+003,2.253167e-002
1.241952e+003,2.256443e-002
1.243881e+003,2.245478e-002
1.245809e+003,2.242135e-002
1.247738e+003,2.235362e-002
1.249666e+003,2.225047e-002
1.251595e+003,2.215048e-002
1.253523e+003,2.204687e-002
1.255452e+003,2.190048e-002
1.257380e+003,2.178433e-002
1.259309e+003,2.158918e-002
1.261237e+003,2.137478e-002
1.263166e+003,2.112686e-002
1.265094e+003,2.088575e-002
1.267023e+003,2.060085e-002
1.268951e+003,2.032224e-002
1.270880e+003,2.007447e-002
1.272808e+003,1.987870e-002
1.274737e+003,1.967598e-002
1.276665e+003,1.945002e-002
1.278594e+003,1.925033e-002
1.280522e+003,1.910665e-002
1.282451e+003,1.893051e-002
1.284379e+003,1.870237e-002
1.286308e+003,1.852185e-002
1.288236e+003,1.838054e-002
1.290165e+003,1.829236e-002
1.292093e+003,1.821989e-002
1.294022e+003,1.813697e-002
1.295950e+003,1.813547e-002
1.297879e+003,1.819177e-002
1.299807e+003,1.828993e-002
1.301736e+003,1.840076e-002
1.303664e+003,1.851582e-002
1.305593e+003,1.869438e-002
1.307521e+003,1.885263e-002
1.309450e+003,1.903092e-002
1.311378e+003,1.923122e-002
1.313307e+003,1.935795e-002
1.315235e+003,1.945825e-002
1.317164e+003,1.951716e-002
1.319092e+003,1.952890e-002
1.321021e+003,1.943916e-002
1.322949e+003,1.932785e-002
1.324878e+003,1.922134e-002
1.326806e+003,1.911958e-002
1.328735e+003,1.907147e-002
1.330663e+003,1.903131e-002
1.332592e+003,1.898164e-002
1.334520e+003,1.894069e-002
1.336449e+003,1.890811e-002
1.338377e+003,1.881312e-002
1.340306e+003,1.872742e-002
1.342234e+003,1.874257e-002
1.344163e+003,1.868668e-002
1.346091e+003,1.863733e-002
1.348020e+003,1.866062e-002
1.349948e+003,1.873814e-002
1.351877e+003,1.877849e-002
1.353805e+003,1.884350e-002
1.355734e+003,1.892791e-002
1.357662e+003,1.904198e-002
1.359591e+003,1.915196e-002
1.361519e+003,1.925940e-002
1.363448e+003,1.936330e-002
1.365376e+003,1.949446e-002
1.367305e+003,1.961851e-002
1.369233e+003,1.965271e-002
1.371162e+003,1.964757e-002
1.373090e+003,1.966932e-002
1.375019e+003,1.960167e-002
1.376947e+003,1.946808e-002
1.378876e+003,1.933459e-002
1.380804e+003,1.915542e-002
1.382733e+003,1.890080e-002
1.384661e+003,1.863383e-002
1.386590e+003,1.836831e-002
1.388518e+003,1.821077e-002
1.390447e+003,1.808411e-002
1.392375e+003,1.804523e-002
1.394304e+003,1.797639e-002
1.396232e+003,1.783498e-002
1.398161e+003,1.782821e-002
1.400089e+003,1.784362e-002
1.402018e+003,1.788609e-002
1.403946e+003,1.794205e-002
1.405875e+003,1.795594e-002
1.407803e+003,1.798972e-002
1.409732e+003,1.802620e-002
1.411660e+003,1.806403e-002
1.413589e+003,1.816700e-002
1.415517e+003,1.827351e-002
1.417446e+003,1.835360e-002
1.419374e+003,1.846806e-002
1.421303e+003,1.852344e-002
1.423231e+003,1.851150e-002
1.425160e+003,1.850286e-002
1.427088e+003,1.850137e-002
1.429017e+003,1.845169e-002
1.430945e+003,1.843385e-002
1.432874e+003,1.836791e-002
1.434802e+003,1.826996e-002
1.436731e+003,1.817885e-002
1.438659e+003,1.809908e-002
1.440588e+003,1.806417e-002
1.442516e+003,1.804275e-002
1.444445e+003,1.801909e-002
1.446373e+003,1.803886e-002
1.448302e+003,1.806498e-002
1.450230e+003,1.810517e-002
1.452159e+003,1.809562e-002
1.454087e+003,1.802982e-002
1.456016e+003,1.789720e-002
1.457944e+003,1.780626e-002
1.459873e+003,1.773892e-002
1.461801e+003,1.768921e-002
1.463730e+003,1.761707e-002
1.465658e+003,1.751275e-002
1.467587e+003,1.728532e-002
1.469515e+003,1.697338e-002
1.471444e+003,1.658008e-002
1.473372e+003,1.617946e-002
1.475301e+003,1.586619e-002
1.477229e+003,1.563763e-002
1.479158e+003,1.538249e-002
1.481086e+003,1.522362e-002
1.483015e+003,1.506711e-002
1.484943e+003,1.491748e-002
1.486872e+003,1.480306e-002
1.488800e+003,1.470750e-002
1.490729e+003,1.464908e-002
1.492657e+003,1.467357e-002
1.494586e+003,1.476647e-002
1.496514e+003,1.495156e-002
1.498443e+003,1.514408e-002
1.500371e+003,1.536248e-002
1.502300e+003,1.557398e-002
1.504228e+003,1.577186e-002
1.506157e+003,1.594139e-002
1.508085e+003,1.608195e-002
1.510014e+003,1.616480e-002
1.511942e+003,1.626310e-002
1.513871e+003,1.628291e-002
1.515799e+003,1.619636e-002
1.517728e+003,1.605508e-002
1.519656e+003,1.588645e-002
1.521585e+003,1.575765e-002
1.523513e+003,1.572065e-002
1.525442e+003,1.570659e-002
1.527370e+003,1.567329e-002
1.529299e+003,1.569484e-002
1.531227e+003,1.577310e-002
1.533156e+003,1.577733e-002
1.535084e+003,1.582107e-002
1.537013e+003,1.588416e-002
1.538941e+003,1.592226e-002
1.540870e+003,1.593694e-002
1.542798e+003,1.597965e-002
1.544727e+003,1.595999e-002
1.546655e+003,1.590194e-002
1.548584e+003,1.584769e-002
1.550512e+003,1.581258e-002
1.552441e+003,1.575391e-002
1.554369e+003,1.572071e-002
1.556298e+003,1.563421e-002
1.558226e+003,1.566366e-002
1.560155e+003,1.571658e-002
1.562083e+003,1.568511e-002
1.564012e+003,1.566995e-002
1.565940e+003,1.569547e-002
1.567869e+003,1.575560e-002
1.569797e+003,1.584074e-002
1.571726e+003,1.592803e-002
1.573654e+003,1.604080e-002
1.575583e+003,1.623881e-002
1.577511e+003,1.643451e-002
1.579440e+003,1.661662e-002
1.581368e+003,1.683291e-002
1.583297e+003,1.701558e-002
1.585225e+003,1.721824e-002
1.587154e+003,1.741524e-002
1.589082e+003,1.756989e-002
1.591010e+003,1.772425e-002
1.592939e+003,1.787738e-002
1.594868e+003,1.799225e-002
1.596796e+003,1.807567e-002
1.598724e+003,1.817265e-002
1.600653e+003,1.828790e-002
1.602582e+003,1.834018e-002
1.604510e+003,1.834160e-002
1.606438e+003,1.832781e-002
1.608367e+003,1.828531e-002
1.610296e+003,1.824169e-002
1.612224e+003,1.828547e-002
1.614152e+003,1.840198e-002
1.616081e+003,1.857132e-002
1.618010e+003,1.873730e-002
1.619938e+003,1.888652e-002
1.621866e+003,1.909711e-002
1.623795e+003,1.930181e-002
1.625724e+003,1.946415e-002
1.627652e+003,1.956209e-002
1.629580e+003,1.965225e-002
1.631509e+003,1.971915e-002
1.633438e+003,1.976451e-002
1.635366e+003,1.978239e-002
1.637294e+003,1.975616e-002
1.639223e+003,1.969525e-002
1.641151e+003,1.966409e-002
1.643080e+003,1.961478e-002
1.645008e+003,1.953698e-002
1.646937e+003,1.949571e-002
1.648865e+003,1.947815e-002
1.650794e+003,1.940474e-002
1.652722e+003,1.927124e-002
1.654651e+003,1.908072e-002
1.656579e+003,1.880290e-002
1.658508e+003,1.856817e-002
1.660436e+003,1.831265e-002
1.662365e+003,1.803918e-002
1.664293e+003,1.776119e-002
1.666222e+003,1.747358e-002
1.668150e+003,1.711019e-002
1.670079e+003,1.674253e-002
1.672007e+003,1.649498e-002
1.673936e+003,1.615692e-002
1.675864e+003,1.581640e-002
1.677793e+003,1.556099e-002
1.679721e+003,1.532908e-002
1.681650e+003,1.503234e-002
1.683578e+003,1.476862e-002
1.685507e+003,1.456674e-002
1.687435e+003,1.428965e-002
1.689364e+003,1.402763e-002
1.691292e+003,1.382514e-002
1.693221e+003,1.362729e-002
1.695149e+003,1.347718e-002
1.697078e+003,1.332166e-002
1.699006e+003,1.311009e-002
1.700935e+003,1.295900e-002
1.702863e+003,1.281979e-002
1.704792e+003,1.273524e-002
1.706720e+003,1.265770e-002
1.708649e+003,1.261520e-002
1.710577e+003,1.255039e-002
1.712506e+003,1.255107e-002
1.714434e+003,1.255093e-002
1.716363e+003,1.258554e-002
1.718291e+003,1.255158e-002
1.720220e+003,1.251920e-002
1.722148e+003,1.253966e-002
1.724077e+003,1.259987e-002
1.726005e+003,1.264086e-002
1.727934e+003,1.259427e-002
1.729862e+003,1.256072e-002
1.731791e+003,1.250733e-002
1.733719e+003,1.246734e-002
1.735648e+003,1.242799e-002
1.737576e+003,1.234810e-002
1.739505e+003,1.227055e-002
1.741433e+003,1.211815e-002
1.743362e+003,1.187564e-002
1.745290e+003,1.170013e-002
1.747219e+003,1.150489e-002
1.749147e+003,1.126549e-002
1.751076e+003,1.106140e-002
1.753004e+003,1.085205e-002
1.754933e+003,1.066564e-002
1.756861e+003,1.048276e-002
1.758790e+003,1.033455e-002
1.760718e+003,1.017991e-002
1.762647e+003,1.007576e-002
1.764575e+003,9.985378e-003
1.766504e+003,9.945448e-003
1.768432e+003,9.910876e-003
1.770361e+003,9.914620e-003
1.772289e+003,9.820362e-003
1.774218e+003,9.689265e-003
1.776146e+003,9.772856e-003
1.778075e+003,9.807929e-003
1.780003e+003,9.693954e-003
1.781932e+003,9.688999e-003
1.783860e+003,9.689402e-003
1.785789e+003,9.613458e-003
1.787717e+003,9.661603e-003
1.789646e+003,9.758768e-003
1.791574e+003,9.736102e-003
1.793503e+003,9.615523e-003
1.795431e+003,9.536734e-003
1.797360e+003,9.623125e-003
1.799288e+003,9.545186e-003
1.801217e+003,9.501585e-003
1.803145e+003,9.596642e-003
1.805074e+003,9.624266e-003
1.807002e+003,9.588929e-003
1.808931e+003,9.556528e-003
1.810859e+003,9.463049e-003
1.812788e+003,9.464086e-003
1.814716e+003,9.462939e-003
1.816645e+003,9.456600e-003
1.818573e+003,9.486621e-003
1.820502e+003,9.571376e-003
1.822430e+003,9.649170e-003
1.824359e+003,9.630223e-003
1.826287e+003,9.609298e-003
1.828216e+003,9.576893e-003
1.830144e+003,9.504043e-003
1.832073e+003,9.496784e-003
1.834001e+003,9.497413e-003
1.835930e+003,9.519548e-003
1.837858e+003,9.555897e-003
1.839787e+003,9.453762e-003
1.841715e+003,9.429134e-003
1.843644e+003,9.502237e-003
1.845572e+003,9.543991e-003
1.847501e+003,9.622172e-003
1.849429e+003,9.665219e-003
1.851358e+003,9.641735e-003
1.853286e+003,9.649055e-003
1.855215e+003,9.603174e-003
1.857143e+003,9.555497e-003
1.859072e+003,9.638877e-003
1.861000e+003,9.709062e-003
1.862929e+003,9.714167e-003
1.864857e+003,9.605223e-003
1.866786e+003,9.566542e-003
1.868714e+003,9.773352e-003
1.870643e+003,9.878851e-003
1.872571e+003,9.740480e-003
1.874500e+003,9.721893e-003
1.876428e+003,9.800282e-003
1.878357e+003,9.835148e-003
1.880285e+003,9.863186e-003
1.882214e+003,9.830678e-003
1.884142e+003,9.836940e-003
1.886071e+003,1.002115e-002
1.887999e+003,1.005144e-002
1.889928e+003,1.001235e-002
1.891856e+003,9.932506e-003
1.893785e+003,9.805528e-003
1.895713e+003,9.955795e-003
1.897642e+003,9.890021e-003
1.899570e+003,9.949462e-003
1.901499e+003,1.009871e-002
1.903427e+003,1.011651e-002
1.905356e+003,1.009016e-002
1.907284e+003,1.006342e-002
1.909213e+003,9.829262e-003
1.911141e+003,9.904933e-003
1.913070e+003,1.015532e-002
1.914998e+003,1.004511e-002
1.916927e+003,9.912889e-003
1.918855e+003,1.005552e-002
1.920784e+003,1.010171e-002
1.922712e+003,1.022254e-002
1.924641e+003,1.040344e-002
1.926569e+003,1.023890e-002
1.928498e+003,1.013292e-002
1.930426e+003,1.025436e-002
1.932355e+003,1.056718e-002
1.934283e+003,1.013114e-002
1.936212e+003,9.805141e-003
1.938140e+003,1.017776e-002
1.940069e+003,1.023792e-002
1.941997e+003,1.038516e-002
1.943926e+003,1.093355e-002
1.945854e+003,1.098888e-002
1.947783e+003,1.075024e-002
1.949711e+003,1.067213e-002
1.951640e+003,1.040279e-002
1.953568e+003,1.065318e-002
1.955497e+003,1.095276e-002
1.957425e+003,1.130873e-002
1.959354e+003,1.145700e-002
1.961282e+003,1.152726e-002
1.963211e+003,1.124052e-002
1.965139e+003,1.117442e-002
1.967068e+003,1.115532e-002
1.968996e+003,1.204040e-002
1.970925e+003,1.299375e-002
1.972853e+003,1.314388e-002
1.974782e+003,1.282256e-002
1.976710e+003,1.266801e-002
1.978639e+003,1.278109e-002
1.980567e+003,1.328864e-002
1.982496e+003,1.346320e-002
1.984424e+003,1.171740e-002
1.986353e+003,1.095615e-002
1.988281e+003,1.158674e-002
1.990210e+003,1.148941e-002
1.992138e+003,1.224750e-002
1.994067e+003,1.232712e-002
1.995995e+003,1.231414e-002
1.997924e+003,1.209734e-002
1.999852e+003,1.205376e-002
2.001781e+003,1.214508e-002
2.003709e+003,1.293964e-002
2.005638e+003,1.330827e-002
2.007566e+003,1.263442e-002
2.009495e+003,1.245415e-002
2.011423e+003,1.320311e-002
2.013352e+003,1.335287e-002
2.015280e+003,1.372274e-002
2.017208e+003,1.385769e-002
2.019137e+003,1.435359e-002
2.021066e+003,1.444196e-002
2.022994e+003,1.310080e-002
2.024922e+003,1.239432e-002
2.026851e+003,1.327176e-002
2.028780e+003,1.415606e-002
2.030708e+003,1.472626e-002
2.032636e+003,1.381571e-002
2.034565e+003,1.318676e-002
2.036494e+003,1.295329e-002
2.038422e+003,1.305984e-002
2.040350e+003,1.248461e-002
2.042279e+003,1.232716e-002
2.044208e+003,1.189518e-002
2.046136e+003,1.191782e-002
2.048064e+003,1.199679e-002
2.049993e+003,1.142110e-002
2.051921e+003,1.103395e-002
2.053850e+003,1.114260e-002
2.055778e+003,1.118074e-002
2.057707e+003,1.092907e-002
2.059635e+003,1.069721e-002
2.061564e+003,1.055051e-002
2.063492e+003,1.089494e-002
2.065421e+003,1.110880e-002
2.067349e+003,1.115759e-002
2.069278e+003,1.073308e-002
2.071206e+003,1.067055e-002
2.073135e+003,1.068171e-002
2.075063e+003,1.041810e-002
2.076992e+003,1.063454e-002
2.078920e+003,1.068371e-002
2.080849e+003,1.057993e-002
2.082777e+003,1.054458e-002
2.084706e+003,1.036409e-002
2.086634e+003,1.061441e-002
2.088563e+003,1.080359e-002
2.090491e+003,1.059911e-002
2.092420e+003,1.048704e-002
2.094348e+003,1.034674e-002
2.096277e+003,1.014024e-002
2.098205e+003,1.030701e-002
2.100134e+003,1.031950e-002
2.102062e+003,1.026348e-002
2.103991e+003,1.015476e-002
2.105919e+003,9.987581e-003
2.107848e+003,9.757055e-003
2.109776e+003,1.014544e-002
2.111705e+003,9.939269e-003
2.113633e+003,9.655846e-003
2.115562e+003,9.662453e-003
2.117490e+003,9.508633e-003
2.119419e+003,9.589246e-003
2.121347e+003,9.763528e-003
2.123276e+003,9.639145e-003
2.125204e+003,9.422991e-003
2.127133e+003,9.455092e-003
2.129061e+003,9.656626e-003
2.130990e+003,8.845506e-003
2.132918e+003,8.983937e-003
2.134847e+003,9.500946e-003
2.136775e+003,9.449336e-003
2.138704e+003,9.562791e-003
2.140632e+003,9.854253e-003
2.142561e+003,9.503587e-003
2.144489e+003,9.453264e-003
2.146418e+003,1.014964e-002
2.148346e+003,1.034057e-002
2.150275e+003,9.873065e-003
2.152203e+003,9.858558e-003
2.154132e+003,9.685255e-003
2.156060e+003,1.025287e-002
2.157989e+003,1.037423e-002
2.159917e+003,9.913911e-003
2.161846e+003,9.637315e-003
2.163774e+003,1.086358e-002
2.165703e+003,1.261678e-002
2.167631e+003,1.275402e-002
2.169560e+003,1.146189e-002
2.171488e+003,1.185057e-002
2.173417e+003,1.209652e-002
2.175345e+003,1.215942e-002
2.177274e+003,1.188044e-002
2.179202e+003,1.158108e-002
2.181131e+003,1.219537e-002
2.183059e+003,1.224850e-002
2.184988e+003,1.280965e-002
2.186916e+003,1.256728e-002
2.188845e+003,1.206399e-002
2.190773e+003,1.186171e-002
2.192702e+003,1.195073e-002
2.194630e+003,1.185681e-002
2.196559e+003,1.215976e-002
2.198487e+003,1.257605e-002
2.200416e+003,1.213751e-002
2.202344e+003,1.185561e-002
2.204273e+003,1.230239e-002
2.206201e+003,1.241403e-002
2.208130e+003,1.235690e-002
2.210058e+003,1.234909e-002
2.211987e+003,1.235045e-002
2.213915e+003,1.285562e-002
2.215844e+003,1.294747e-002
2.217772e+003,1.253540e-002
2.219701e+003,1.284572e-002
2.221629e+003,1.300260e-002
2.223558e+003,1.262987e-002
2.225486e+003,1.239310e-002
2.227415e+003,1.252847e-002
2.229343e+003,1.290064e-002
2.231272e+003,1.298224e-002
2.233200e+003,1.311028e-002
2.235129e+003,1.334735e-002
2.237057e+003,1.283922e-002
2.238986e+003,1.268520e-002
2.240914e+003,1.249239e-002
2.242843e+003,1.246224e-002
2.244771e+003,1.229519e-002
2.246700e+003,1.229488e-002
2.248628e+003,1.278233e-002
2.250557e+003,1.282145e-002
2.252485e+003,1.262692e-002
2.254414e+003,1.233246e-002
2.256342e+003,1.241039e-002
2.258271e+003,1.264135e-002
2.260199e+003,1.264882e-002
2.262128e+003,1.265596e-002
2.264056e+003,1.238667e-002
2.265985e+003,1.230819e-002
2.267913e+003,1.233339e-002
2.269842e+003,1.209054e-002
2.271770e+003,1.219330e-002
2.273699e+003,1.224251e-002
2.275627e+003,1.190897e-002
2.277556e+003,1.172831e-002
2.279484e+003,1.177786e-002
2.281413e+003,1.183872e-002
2.283341e+003,1.181799e-002
2.285270e+003,1.172256e-002
2.287198e+003,1.156169e-002
2.289127e+003,1.156072e-002
2.291055e+003,1.151401e-002
2.292984e+003,1.136947e-002
2.294912e+003,1.103484e-002
2.296841e+003,1.082074e-002
2.298769e+003,1.090776e-002
2.300698e+003,1.106223e-002
2.302626e+003,1.115480e-002
2.304555e+003,1.098846e-002
2.306483e+003,1.076335e-002
2.308412e+003,1.072255e-002
2.310340e+003,1.067949e-002
2.312269e+003,1.044534e-002
2.314197e+003,1.034991e-002
2.316125e+003,1.040605e-002
2.318054e+003,1.057990e-002
2.319983e+003,1.057975e-002
2.321911e+003,1.051608e-002
2.323840e+003,1.057559e-002
2.325768e+003,1.032484e-002
2.327697e+003,9.992257e-003
2.329625e+003,9.704171e-003
2.331553e+003,9.813411e-003
2.333482e+003,9.901405e-003
2.335411e+003,9.844949e-003
2.337339e+003,9.959017e-003
2.339268e+003,9.990274e-003
2.341196e+003,1.022194e-002
2.343125e+003,1.015296e-002
2.345053e+003,1.040088e-002
2.346981e+003,1.065913e-002
2.348910e+003,1.076511e-002
2.350839e+003,1.097964e-002
2.352767e+003,1.115164e-002
2.354696e+003,1.132002e-002
2.356624e+003,1.102555e-002
2.358552e+003,1.125048e-002
2.360481e+003,1.142964e-002
2.362409e+003,1.154577e-002
2.364338e+003,1.174563e-002
2.366267e+003,1.204203e-002
2.368195e+003,1.167872e-002
2.370124e+003,1.125631e-002
2.372052e+003,1.101845e-002
2.373980e+003,1.114219e-002
2.375909e+003,1.127714e-002
2.377838e+003,1.129424e-002
2.379766e+003,1.121844e-002
2.381695e+003,1.118164e-002
2.383623e+003,1.111774e-002
2.385552e+003,1.116138e-002
2.387480e+003,1.124500e-002
2.389408e+003,1.129332e-002
2.391337e+003,1.124190e-002
2.393266e+003,1.109754e-002
2.395194e+003,1.109577e-002
2.397123e+003,1.135073e-002
2.399051e+003,1.131520e-002
2.400979e+003,1.113549e-002
2.402908e+003,1.105625e-002
2.404836e+003,1.100769e-002
2.406765e+003,1.083950e-002
2.408694e+003,1.083308e-002
2.410622e+003,1.096249e-002
2.412551e+003,1.098594e-002
2.414479e+003,1.100952e-002
2.416407e+003,1.103494e-002
2.418336e+003,1.113576e-002
2.420264e+003,1.108752e-002
2.422193e+003,1.093806e-002
2.424122e+003,1.093038e-002
2.426050e+003,1.086803e-002
2.427979e+003,1.099868e-002
2.429907e+003,1.106502e-002
2.431835e+003,1.100028e-002
2.433764e+003,1.097194e-002
2.435692e+003,1.099335e-002
2.437621e+003,1.095777e-002
2.439550e+003,1.101241e-002
2.441478e+003,1.092331e-002
2.443406e+003,1.101516e-002
2.445335e+003,1.110894e-002
2.447263e+003,1.100935e-002
2.449192e+003,1.090649e-002
2.451121e+003,1.100245e-002
2.453049e+003,1.090473e-002
2.454978e+003,1.087442e-002
2.456906e+003,1.093789e-002
2.458834e+003,1.093160e-002
2.460763e+003,1.088145e-002
2.462691e+003,1.088251e-002
2.464620e+003,1.082271e-002
2.466549e+003,1.079985e-002
2.468477e+003,1.089321e-002
2.470406e+003,1.089345e-002
2.472334e+003,1.089905e-002
2.474262e+003,1.098033e-002
2.476191e+003,1.094604e-002
2.478119e+003,1.095865e-002
2.480048e+003,1.107447e-002
2.481977e+003,1.106614e-002
2.483905e+003,1.101047e-002
2.485833e+003,1.099498e-002
2.487762e+003,1.089395e-002
2.489690e+003,1.084789e-002
2.491619e+003,1.089528e-002
2.493547e+003,1.095111e-002
2.495476e+003,1.096507e-002
2.497405e+003,1.110221e-002
2.499333e+003,1.101931e-002
2.501261e+003,1.094744e-002
2.503190e+003,1.108766e-002
2.505118e+003,1.114766e-002
2.507047e+003,1.113093e-002
2.508975e+003,1.110856e-002
2.510904e+003,1.106465e-002
2.512833e+003,1.110058e-002
2.514761e+003,1.117655e-002
2.516689e+003,1.118519e-002
2.518618e+003,1.129441e-002
2.520546e+003,1.137168e-002
2.522475e+003,1.144372e-002
2.524403e+003,1.133277e-002
2.526332e+003,1.123068e-002
2.528260e+003,1.133586e-002
2.530189e+003,1.142944e-002
2.532117e+003,1.142712e-002
2.534046e+003,1.148812e-002
2.535974e+003,1.154290e-002
2.537903e+003,1.153868e-002
2.539831e+003,1.157526e-002
2.541760e+003,1.164601e-002
2.543688e+003,1.155923e-002
2.545617e+003,1.161324e-002
2.547545e+003,1.160367e-002
2.549474e+003,1.161249e-002
2.551402e+003,1.172501e-002
2.553331e+003,1.180311e-002
2.555259e+003,1.177032e-002
2.557188e+003,1.185340e-002
2.559116e+003,1.197835e-002
2.561045e+003,1.203919e-002
2.562973e+003,1.206603e-002
2.564902e+003,1.193598e-002
2.566830e+003,1.202822e-002
2.568759e+003,1.224673e-002
2.570687e+003,1.221684e-002
2.572616e+003,1.214392e-002
2.574544e+003,1.211707e-002
2.576473e+003,1.220304e-002
2.578401e+003,1.228313e-002
2.580330e+003,1.227887e-002
2.582258e+003,1.223081e-002
2.584187e+003,1.217247e-002
2.586115e+003,1.231255e-002
2.588044e+003,1.239348e-002
2.589972e+003,1.229029e-002
2.591901e+003,1.230208e-002
2.593829e+003,1.231773e-002
2.595758e+003,1.233395e-002
2.597686e+003,1.240773e-002
2.599615e+003,1.247289e-002
2.601543e+003,1.260552e-002
2.603472e+003,1.269889e-002
2.605400e+003,1.266614e-002
2.607329e+003,1.261047e-002
2.609257e+003,1.258823e-002
2.611186e+003,1.261214e-002
2.613114e+003,1.262629e-002
2.615043e+003,1.263404e-002
2.616971e+003,1.270189e-002
2.618900e+003,1.269653e-002
2.620828e+003,1.267641e-002
2.622757e+003,1.265884e-002
2.624685e+003,1.267480e-002
2.626614e+003,1.260961e-002
2.628542e+003,1.258243e-002
2.630471e+003,1.261278e-002
2.632399e+003,1.263694e-002
2.634328e+003,1.254389e-002
2.636256e+003,1.248902e-002
2.638185e+003,1.249014e-002
2.640113e+003,1.251200e-002
2.642042e+003,1.252571e-002
2.643970e+003,1.249396e-002
2.645899e+003,1.252124e-002
2.647827e+003,1.252250e-002
2.649756e+003,1.246682e-002
2.651684e+003,1.245666e-002
2.653613e+003,1.247104e-002
2.655541e+003,1.246463e-002
2.657470e+003,1.242300e-002
2.659398e+003,1.238894e-002
2.661327e+003,1.236491e-002
2.663255e+003,1.234899e-002
2.665184e+003,1.235178e-002
2.667112e+003,1.233477e-002
2.669041e+003,1.234469e-002
2.670969e+003,1.235969e-002
2.672898e+003,1.237619e-002
2.674826e+003,1.233746e-002
2.676755e+003,1.228081e-002
2.678683e+003,1.226111e-002
2.680612e+003,1.226895e-002
2.682540e+003,1.229772e-002
2.684469e+003,1.228187e-002
2.686397e+003,1.227522e-002
2.688326e+003,1.228248e-002
2.690254e+003,1.221524e-002
2.692183e+003,1.219765e-002
2.694111e+003,1.221347e-002
2.696040e+003,1.220812e-002
2.697968e+003,1.223132e-002
2.699897e+003,1.227106e-002
2.701825e+003,1.227761e-002
2.703754e+003,1.228535e-002
2.705682e+003,1.227948e-002
2.707611e+003,1.228470e-002
2.709539e+003,1.227331e-002
2.711468e+003,1.226950e-002
2.713396e+003,1.225208e-002
2.715325e+003,1.228347e-002
2.717253e+003,1.227021e-002
2.719182e+003,1.224595e-002
2.721110e+003,1.226888e-002
2.723039e+003,1.230021e-002
2.724967e+003,1.229595e-002
2.726896e+003,1.231084e-002
2.728824e+003,1.234203e-002
2.730753e+003,1.232598e-002
2.732681e+003,1.232277e-002
2.734610e+003,1.230651e-002
2.736538e+003,1.231486e-002
2.738467e+003,1.235233e-002
2.740395e+003,1.236900e-002
2.742324e+003,1.235768e-002
2.744252e+003,1.235778e-002
2.746181e+003,1.240660e-002
2.748109e+003,1.243405e-002
2.750038e+003,1.240872e-002
2.751966e+003,1.241509e-002
2.753895e+003,1.242835e-002
2.755823e+003,1.246914e-002
2.757752e+003,1.247879e-002
2.759680e+003,1.248063e-002
2.761609e+003,1.251047e-002
2.763537e+003,1.251667e-002
2.765466e+003,1.258338e-002
2.767394e+003,1.259675e-002
2.769323e+003,1.257953e-002
2.771251e+003,1.257922e-002
2.773180e+003,1.256612e-002
2.775108e+003,1.258829e-002
2.777037e+003,1.262435e-002
2.778965e+003,1.266846e-002
2.780894e+003,1.269541e-002
2.782822e+003,1.267913e-002
2.784750e+003,1.267395e-002
2.786679e+003,1.272594e-002
2.788608e+003,1.278808e-002
2.790536e+003,1.279484e-002
2.792465e+003,1.284002e-002
2.794393e+003,1.287231e-002
2.796322e+003,1.284483e-002
2.798250e+003,1.289214e-002
2.800178e+003,1.296174e-002
2.802107e+003,1.297730e-002
2.804036e+003,1.296536e-002
2.805964e+003,1.295351e-002
2.807893e+003,1.300288e-002
2.809821e+003,1.305819e-002
2.811750e+003,1.308049e-002
2.813678e+003,1.312891e-002
2.815606e+003,1.319404e-002
2.817535e+003,1.323219e-002
2.819464e+003,1.325348e-002
2.821392e+003,1.326762e-002
2.823321e+003,1.335399e-002
2.825249e+003,1.340186e-002
2.827177e+003,1.344260e-002
2.829106e+003,1.352982e-002
2.831034e+003,1.360000e-002
2.832963e+003,1.363337e-002
2.834892e+003,1.374950e-002
2.836820e+003,1.386552e-002
2.838749e+003,1.395064e-002
2.840677e+003,1.413784e-002
2.842605e+003,1.435132e-002
2.844534e+003,1.462470e-002
2.846462e+003,1.501070e-002
2.848391e+003,1.543684e-002
2.850320e+003,1.570228e-002
2.852248e+003,1.573420e-002
2.854177e+003,1.569232e-002
2.856105e+003,1.554511e-002
2.858033e+003,1.543897e-002
2.859962e+003,1.539973e-002
2.861890e+003,1.535012e-002
2.863819e+003,1.534021e-002
2.865748e+003,1.534638e-002
2.867676e+003,1.538191e-002
2.869604e+003,1.544261e-002
2.871533e+003,1.548879e-002
2.873461e+003,1.546833e-002
2.875390e+003,1.544412e-002
2.877319e+003,1.552667e-002
2.879247e+003,1.552176e-002
2.881176e+003,1.546898e-002
2.883104e+003,1.553841e-002
2.885032e+003,1.559600e-002
2.886961e+003,1.558175e-002
2.888889e+003,1.564632e-002
2.890818e+003,1.574337e-002
2.892747e+003,1.577587e-002
2.894675e+003,1.583226e-002
2.896604e+003,1.589636e-002
2.898532e+003,1.605297e-002
2.900460e+003,1.619674e-002
2.902389e+003,1.626072e-002
2.904317e+003,1.628380e-002
2.906246e+003,1.637945e-002
2.908175e+003,1.651335e-002
2.910103e+003,1.662291e-002
2.912031e+003,1.681278e-002
2.913960e+003,1.707672e-002
2.915888e+003,1.734341e-002
2.917817e+003,1.752145e-002
2.919745e+003,1.760177e-002
2.921674e+003,1.755388e-002
2.923603e+003,1.747212e-002
2.925531e+003,1.730406e-002
2.927459e+003,1.713297e-002
2.929388e+003,1.692156e-002
2.931316e+003,1.670974e-002
2.933245e+003,1.655035e-002
2.935173e+003,1.629237e-002
2.937102e+003,1.606129e-002
2.939031e+003,1.584057e-002
2.940959e+003,1.570102e-002
2.942887e+003,1.554899e-002
2.944816e+003,1.540854e-002
2.946744e+003,1.530583e-002
2.948673e+003,1.523659e-002
2.950601e+003,1.516931e-002
2.952530e+003,1.510204e-002
2.954458e+003,1.508229e-002
2.956387e+003,1.506895e-002
2.958315e+003,1.506907e-002
2.960244e+003,1.499803e-002
2.962172e+003,1.490354e-002
2.964101e+003,1.485046e-002
2.966029e+003,1.484306e-002
2.967958e+003,1.475523e-002
2.969886e+003,1.465176e-002
2.971815e+003,1.452019e-002
2.973743e+003,1.439718e-002
2.975672e+003,1.432774e-002
2.977600e+003,1.429789e-002
2.979529e+003,1.421688e-002
2.981457e+003,1.412743e-002
2.983386e+003,1.405701e-002
2.985314e+003,1.401528e-002
2.987243e+003,1.398935e-002
2.989171e+003,1.396409e-002
2.991100e+003,1.378081e-002
2.993028e+003,1.373687e-002
2.994957e+003,1.383373e-002
2.996885e+003,1.374683e-002
2.998814e+003,1.360898e-002
3.000742e+003,1.362944e-002
3.002671e+003,1.363709e-002
3.004599e+003,1.365113e-002
3.006528e+003,1.362734e-002
3.008456e+003,1.353235e-002
3.010385e+003,1.347239e-002
3.012313e+003,1.345798e-002
3.014242e+003,1.341899e-002
3.016170e+003,1.343863e-002
3.018099e+003,1.342366e-002
3.020027e+003,1.342374e-002
3.021956e+003,1.338840e-002
3.023884e+003,1.338635e-002
3.025813e+003,1.342357e-002
3.027741e+003,1.339938e-002
3.029670e+003,1.335031e-002
3.031598e+003,1.334390e-002
3.033527e+003,1.330826e-002
3.035455e+003,1.330728e-002
3.037384e+003,1.335680e-002
3.039312e+003,1.334544e-002
3.041241e+003,1.334917e-002
3.043169e+003,1.347821e-002
3.045098e+003,1.355976e-002
3.047026e+003,1.356125e-002
3.048955e+003,1.356347e-002
3.050883e+003,1.356175e-002
3.052812e+003,1.356993e-002
3.054740e+003,1.361047e-002
3.056669e+003,1.363252e-002
3.058597e+003,1.364684e-002
3.060526e+003,1.367641e-002
3.062454e+003,1.372916e-002
3.064383e+003,1.379322e-002
3.066311e+003,1.386217e-002
3.068240e+003,1.385310e-002
3.070168e+003,1.387177e-002
3.072097e+003,1.384810e-002
3.074025e+003,1.386318e-002
3.075954e+003,1.394042e-002
3.077882e+003,1.399558e-002
3.079811e+003,1.407380e-002
3.081739e+003,1.408059e-002
3.083668e+003,1.405577e-002
3.085596e+003,1.410571e-002
3.087525e+003,1.405206e-002
3.089453e+003,1.407667e-002
3.091382e+003,1.416448e-002
3.093310e+003,1.421515e-002
3.095239e+003,1.424117e-002
3.097167e+003,1.426878e-002
3.099096e+003,1.436576e-002
3.101024e+003,1.441133e-002
3.102953e+003,1.440364e-002
3.104881e+003,1.451399e-002
3.106810e+003,1.459810e-002
3.108738e+003,1.460014e-002
3.110667e+003,1.459456e-002
3.112595e+003,1.463228e-002
3.114524e+003,1.466411e-002
3.116452e+003,1.473178e-002
3.118381e+003,1.477069e-002
3.120309e+003,1.474556e-002
3.122238e+003,1.478689e-002
3.124166e+003,1.493556e-002
3.126095e+003,1.498202e-002
3.128023e+003,1.497971e-002
3.129952e+003,1.504264e-002
3.131880e+003,1.501275e-002
3.133809e+003,1.503055e-002
3.135737e+003,1.514128e-002
3.137666e+003,1.522353e-002
3.139594e+003,1.530727e-002
3.141523e+003,1.533911e-002
3.143451e+003,1.534775e-002
3.145380e+003,1.528221e-002
3.147308e+003,1.538216e-002
3.149237e+003,1.553901e-002
3.151165e+003,1.552773e-002
3.153094e+003,1.561027e-002
3.155022e+003,1.571899e-002
3.156951e+003,1.576786e-002
3.158879e+003,1.574210e-002
3.160808e+003,1.578018e-002
3.162736e+003,1.581247e-002
3.164665e+003,1.592638e-002
3.166593e+003,1.604546e-002
3.168522e+003,1.602853e-002
3.170450e+003,1.609386e-002
3.172379e+003,1.620196e-002
3.174307e+003,1.622620e-002
3.176236e+003,1.628988e-002
3.178164e+003,1.642025e-002
3.180093e+003,1.647020e-002
3.182021e+003,1.647437e-002
3.183950e+003,1.653437e-002
3.185878e+003,1.659205e-002
3.187807e+003,1.666050e-002
3.189735e+003,1.675292e-002
3.191664e+003,1.677995e-002
3.193592e+003,1.685673e-002
3.195521e+003,1.694866e-002
3.197449e+003,1.700011e-002
3.199378e+003,1.709405e-002
3.201306e+003,1.710654e-002
3.203235e+003,1.713321e-002
3.205163e+003,1.721916e-002
3.207092e+003,1.724364e-002
3.209020e+003,1.726521e-002
3.210948e+003,1.731650e-002
3.212877e+003,1.741939e-002
3.214806e+003,1.746712e-002
3.216734e+003,1.758620e-002
3.218663e+003,1.768988e-002
3.220591e+003,1.776586e-002
3.222520e+003,1.783469e-002
3.224448e+003,1.791872e-002
3.226376e+003,1.798871e-002
3.228305e+003,1.808090e-002
3.230234e+003,1.813829e-002
3.232162e+003,1.811796e-002
3.234091e+003,1.810231e-002
3.236019e+003,1.819536e-002
3.237948e+003,1.833073e-002
3.239876e+003,1.849207e-002
3.241804e+003,1.855433e-002
3.243733e+003,1.857912e-002
3.245662e+003,1.858961e-002
3.247590e+003,1.863558e-002
3.249519e+003,1.869652e-002
3.251447e+003,1.868742e-002
3.253375e+003,1.876943e-002
3.255304e+003,1.892010e-002
3.257232e+003,1.900413e-002
3.259161e+003,1.902527e-002
3.261090e+003,1.901451e-002
3.263018e+003,1.911335e-002
3.264947e+003,1.913713e-002
3.266875e+003,1.923414e-002
3.268803e+003,1.934270e-002
3.270732e+003,1.944073e-002
3.272660e+003,1.944624e-002
3.274589e+003,1.944903e-002
3.276518e+003,1.951665e-002
3.278446e+003,1.958431e-002
3.280375e+003,1.955638e-002
3.282303e+003,1.959403e-002
3.284231e+003,1.963953e-002
3.286160e+003,1.971989e-002
3.288088e+003,1.974709e-002
3.290017e+003,1.974373e-002
3.291946e+003,1.974227e-002
3.293874e+003,1.974068e-002
3.295802e+003,1.975076e-002
3.297731e+003,1.978872e-002
3.299659e+003,1.986662e-002
3.301588e+003,1.994851e-002
3.303516e+003,1.990258e-002
3.305445e+003,1.984191e-002
3.307374e+003,1.984341e-002
3.309302e+003,1.987893e-002
3.311230e+003,1.992416e-002
3.313159e+003,2.001017e-002
3.315087e+003,2.004756e-002
3.317016e+003,2.003966e-002
3.318944e+003,2.004401e-002
3.320873e+003,2.005387e-002
3.322802e+003,2.004942e-002
3.324730e+003,2.013142e-002
3.326658e+003,2.015817e-002
3.328587e+003,2.007108e-002
3.330515e+003,2.019490e-002
3.332444e+003,2.019928e-002
3.334372e+003,2.017205e-002
3.336301e+003,2.021301e-002
3.338229e+003,2.022280e-002
3.340158e+003,2.018194e-002
3.342086e+003,2.010124e-002
3.344015e+003,2.013896e-002
3.345943e+003,2.016873e-002
3.347872e+003,2.007261e-002
3.349800e+003,1.998245e-002
3.351729e+003,1.986387e-002
3.353657e+003,1.995128e-002
3.355586e+003,1.999152e-002
3.357514e+003,1.993955e-002
3.359443e+003,1.991314e-002
3.361371e+003,1.994989e-002
3.363300e+003,1.985786e-002
3.365229e+003,1.972250e-002
3.367157e+003,1.972513e-002
3.369085e+003,1.970257e-002
3.371014e+003,1.961751e-002
3.372942e+003,1.961218e-002
3.374871e+003,1.951901e-002
3.376799e+003,1.945360e-002
3.378728e+003,1.944220e-002
3.380656e+003,1.938999e-002
3.382585e+003,1.936987e-002
3.384513e+003,1.938972e-002
3.386442e+003,1.935506e-002
3.388370e+003,1.937233e-002
3.390299e+003,1.936788e-002
3.392227e+003,1.922534e-002
3.394156e+003,1.917350e-002
3.396084e+003,1.919625e-002
3.398013e+003,1.911301e-002
3.399941e+003,1.899520e-002
3.401870e+003,1.900713e-002
3.403798e+003,1.896454e-002
3.405727e+003,1.893946e-002
3.407655e+003,1.878035e-002
3.409584e+003,1.861428e-002
3.411512e+003,1.860536e-002
3.413441e+003,1.855426e-002
3.415369e+003,1.849856e-002
3.417298e+003,1.841823e-002
3.419226e+003,1.836364e-002
3.421155e+003,1.827849e-002
3.423083e+003,1.818960e-002
3.425012e+003,1.810238e-002
3.426940e+003,1.801259e-002
3.428869e+003,1.793311e-002
3.430797e+003,1.795967e-002
3.432726e+003,1.792007e-002
3.434654e+003,1.766749e-002
3.436583e+003,1.757758e-002
3.438511e+003,1.758775e-002
3.440440e+003,1.753084e-002
3.442368e+003,1.732504e-002
3.444297e+003,1.723604e-002
3.446225e+003,1.717094e-002
3.448154e+003,1.719729e-002
3.450082e+003,1.713935e-002
3.452011e+003,1.688118e-002
3.453939e+003,1.676230e-002
3.455868e+003,1.674842e-002
3.457796e+003,1.663135e-002
3.459725e+003,1.657508e-002
3.461653e+003,1.647301e-002
3.463582e+003,1.641484e-002
3.465510e+003,1.627481e-002
3.467439e+003,1.611238e-002
3.469367e+003,1.604365e-002
3.471296e+003,1.598108e-002
3.473224e+003,1.591824e-002
3.475153e+003,1.570787e-002
3.477081e+003,1.562566e-002
3.479010e+003,1.567612e-002
3.480938e+003,1.552505e-002
3.482867e+003,1.541708e-002
3.484795e+003,1.539305e-002
3.486724e+003,1.542413e-002
3.488652e+003,1.527757e-002
3.490581e+003,1.519399e-002
3.492509e+003,1.503485e-002
3.494438e+003,1.488188e-002
3.496366e+003,1.475000e-002
3.498295e+003,1.468740e-002
3.500223e+003,1.465667e-002
3.502152e+003,1.455756e-002
3.504080e+003,1.442532e-002
3.506009e+003,1.437575e-002
3.507937e+003,1.431918e-002
3.509866e+003,1.416030e-002
3.511794e+003,1.402210e-002
3.513723e+003,1.406815e-002
3.515651e+003,1.405373e-002
3.517580e+003,1.390071e-002
3.519508e+003,1.375423e-002
3.521437e+003,1.372208e-002
3.523365e+003,1.361337e-002
3.525294e+003,1.356339e-002
3.527222e+003,1.342247e-002
3.529151e+003,1.333138e-002
3.531079e+003,1.323062e-002
3.533008e+003,1.313937e-002
3.534936e+003,1.302593e-002
3.536865e+003,1.291408e-002
3.538793e+003,1.286528e-002
3.540722e+003,1.285901e-002
3.542650e+003,1.276423e-002
3.544579e+003,1.251405e-002
3.546507e+003,1.240683e-002
3.548436e+003,1.247384e-002
3.550364e+003,1.248286e-002
3.552293e+003,1.245918e-002
3.554221e+003,1.233983e-002
3.556150e+003,1.219030e-002
3.558078e+003,1.213000e-002
3.560007e+003,1.205247e-002
3.561935e+003,1.188672e-002
3.563864e+003,1.185045e-002
3.565792e+003,1.173718e-002
3.567721e+003,1.170809e-002
3.569649e+003,1.177864e-002
3.571578e+003,1.180657e-002
3.573506e+003,1.173552e-002
3.575435e+003,1.162998e-002
3.577363e+003,1.152925e-002
3.579292e+003,1.144367e-002
3.581220e+003,1.141049e-002
3.583149e+003,1.141562e-002
3.585077e+003,1.139567e-002
3.587006e+003,1.144779e-002
3.588934e+003,1.147250e-002
3.590863e+003,1.140156e-002
3.592791e+003,1.125272e-002
3.594720e+003,1.132879e-002
3.596648e+003,1.135660e-002
3.598577e+003,1.129428e-002
3.600505e+003,1.118481e-002
3.602434e+003,1.111067e-002
3.604362e+003,1.103462e-002
3.606291e+003,1.099318e-002
3.608219e+003,1.086603e-002
3.610148e+003,1.070921e-002
3.612076e+003,1.064328e-002
3.614005e+003,1.067160e-002
3.615933e+003,1.076091e-002
3.617862e+003,1.079827e-002
3.619790e+003,1.090662e-002
3.621719e+003,1.090971e-002
3.623647e+003,1.080967e-002
3.625576e+003,1.081352e-002
3.627504e+003,1.076223e-002
3.629433e+003,1.073310e-002
3.631361e+003,1.065673e-002
3.633290e+003,1.057134e-002
3.635218e+003,1.042622e-002
3.637146e+003,1.031906e-002
3.639075e+003,1.023877e-002
3.641004e+003,1.018815e-002
3.642932e+003,1.003770e-002
3.644861e+003,1.001197e-002
3.646789e+003,1.000901e-002
3.648718e+003,9.983439e-003
3.650646e+003,9.906743e-003
3.652574e+003,9.978441e-003
3.654503e+003,9.973238e-003
3.656432e+003,9.927701e-003
3.658360e+003,9.901844e-003
3.660289e+003,9.834764e-003
3.662217e+003,9.921400e-003
3.664146e+003,9.853135e-003
3.666074e+003,9.785242e-003
3.668002e+003,9.789300e-003
3.669931e+003,9.801270e-003
3.671860e+003,9.819145e-003
3.673788e+003,9.753008e-003
3.675717e+003,9.797002e-003
3.677645e+003,9.760225e-003
3.679573e+003,9.833779e-003
3.681502e+003,9.909120e-003
3.683430e+003,9.942874e-003
3.685359e+003,9.980507e-003
3.687288e+003,1.017111e-002
3.689216e+003,1.040160e-002
3.691145e+003,1.041058e-002
3.693073e+003,1.042630e-002
3.695001e+003,1.046921e-002
3.696930e+003,1.042270e-002
3.698858e+003,1.052180e-002
3.700787e+003,1.060921e-002
3.702716e+003,1.061223e-002
3.704644e+003,1.062367e-002
3.706573e+003,1.058839e-002
3.708501e+003,1.052879e-002
3.710429e+003,1.028344e-002
3.712358e+003,9.948037e-003
3.714286e+003,9.916984e-003
3.716215e+003,1.009960e-002
3.718144e+003,1.034450e-002
3.720072e+003,1.058625e-002
3.722000e+003,1.063830e-002
3.723929e+003,1.073246e-002
3.725857e+003,1.086215e-002
3.727786e+003,1.095832e-002
3.729714e+003,1.084998e-002
3.731643e+003,1.080731e-002
3.733572e+003,1.081417e-002
3.735500e+003,1.076464e-002
3.737428e+003,1.056582e-002
3.739357e+003,1.041074e-002
3.741285e+003,1.024574e-002
3.743214e+003,1.016715e-002
3.745142e+003,1.014240e-002
3.747071e+003,9.976665e-003
3.749000e+003,9.926427e-003
3.750928e+003,9.863749e-003
3.752856e+003,9.845604e-003
3.754785e+003,9.931267e-003
3.756713e+003,9.923678e-003
3.758642e+003,9.886170e-003
3.760570e+003,9.957660e-003
3.762499e+003,1.000192e-002
3.764427e+003,1.003549e-002
3.766356e+003,9.976075e-003
3.768284e+003,9.869214e-003
3.770213e+003,9.947561e-003
3.772141e+003,1.002230e-002
3.774070e+003,1.000806e-002
3.775998e+003,9.983389e-003
3.777927e+003,9.994986e-003
3.779855e+003,1.001556e-002
3.781784e+003,9.901053e-003
3.783712e+003,9.828155e-003
3.785641e+003,9.943722e-003
3.787569e+003,9.985955e-003
3.789498e+003,9.870476e-003
3.791426e+003,9.855100e-003
3.793355e+003,9.828833e-003
3.795283e+003,9.808770e-003
3.797212e+003,9.837947e-003
3.799140e+003,9.803523e-003
3.801069e+003,9.842942e-003
3.802997e+003,9.965902e-003
3.804926e+003,9.973096e-003
3.806854e+003,9.906082e-003
3.808783e+003,9.855169e-003
3.810711e+003,9.974063e-003
3.812640e+003,1.005085e-002
3.814568e+003,1.001189e-002
3.816497e+003,9.981975e-003
3.818425e+003,9.953639e-003
3.820354e+003,9.899974e-003
3.822282e+003,9.880869e-003
3.824211e+003,9.843461e-003
3.826139e+003,9.874481e-003
3.828068e+003,9.869418e-003
3.829996e+003,9.848502e-003
3.831925e+003,9.809020e-003
3.833853e+003,9.779815e-003
3.835782e+003,9.837175e-003
3.837710e+003,9.811488e-003
3.839639e+003,9.847592e-003
3.841567e+003,9.931554e-003
3.843496e+003,9.948350e-003
3.845424e+003,9.971279e-003
3.847353e+003,9.941005e-003
3.849281e+003,9.879990e-003
3.851210e+003,9.902139e-003
3.853138e+003,9.932130e-003
3.855067e+003,9.911072e-003
3.856995e+003,9.866782e-003
3.858924e+003,9.893897e-003
3.860852e+003,9.868766e-003
3.862781e+003,9.803344e-003
3.864709e+003,9.901524e-003
3.866638e+003,9.935608e-003
3.868566e+003,9.902650e-003
3.870495e+003,9.859113e-003
3.872423e+003,9.774812e-003
3.874352e+003,9.840952e-003
3.876280e+003,9.891670e-003
3.878209e+003,9.829911e-003
3.880137e+003,9.791314e-003
3.882066e+003,9.821313e-003
3.883994e+003,9.835391e-003
3.885923e+003,9.813920e-003
3.887851e+003,9.923545e-003
3.889780e+003,9.871863e-003
3.891708e+003,9.905548e-003
3.893637e+003,9.926579e-003
3.895565e+003,9.845163e-003
3.897494e+003,9.853103e-003
3.899422e+003,9.930454e-003
3.901351e+003,9.896615e-003
3.903279e+003,9.911429e-003
3.905208e+003,9.961935e-003
3.907136e+003,9.948400e-003
3.909065e+003,9.905091e-003
3.910993e+003,9.881012e-003
3.912922e+003,9.924868e-003
3.914850e+003,9.973437e-003
3.916779e+003,9.958161e-003
3.918707e+003,9.866728e-003
3.920636e+003,9.872414e-003
3.922564e+003,9.934872e-003
3.924493e+003,9.872938e-003
3.926421e+003,9.901963e-003
3.928350e+003,9.901506e-003
3.930278e+003,9.849358e-003
3.932207e+003,9.885087e-003
3.934135e+003,9.963542e-003
3.936064e+003,1.004511e-002
3.937992e+003,9.995674e-003
3.939921e+003,9.975770e-003
3.941849e+003,9.945325e-003
3.943778e+003,9.920993e-003
3.945706e+003,9.945345e-003
3.947635e+003,1.001336e-002
3.949563e+003,9.958234e-003
3.951492e+003,9.988770e-003
3.953420e+003,9.962213e-003
3.955349e+003,9.924144e-003
3.957277e+003,1.000249e-002
3.959206e+003,1.001208e-002
3.961134e+003,9.988933e-003
3.963063e+003,9.917888e-003
3.964991e+003,9.894922e-003
3.966920e+003,9.907181e-003
3.968848e+003,9.950852e-003
3.970777e+003,9.880445e-003
3.972705e+003,9.851147e-003
3.974634e+003,9.935665e-003
3.976562e+003,9.937160e-003
3.978491e+003,9.855302e-003
3.980419e+003,9.865734e-003
3.982348e+003,9.928234e-003
3.984276e+003,9.879977e-003
3.986205e+003,9.884335e-003
3.988133e+003,9.910554e-003
3.990062e+003,9.963796e-003
3.991990e+003,9.954193e-003
3.993919e+003,9.876198e-003
3.995847e+003,9.793106e-003
3.997776e+003,9.866478e-003
3.999704e+003,9.866456e-003
4.001633e+003,0.000000e+000
