3.991989e+002,3.057557e-002
4.011274e+002,2.995359e-002
4.030559e+002,2.995359e-002
4.049844e+002,2.934753e-002
4.069129e+002,3.050831e-002
4.088414e+002,3.201128e-002
4.107699e+002,3.286372e-002
4.126984e+002,3.282668e-002
4.146269e+002,3.411667e-002
4.165554e+002,3.435903e-002
4.184839e+002,3.409478e-002
4.204124e+002,3.390812e-002
4.223409e+002,3.408013e-002
4.242694e+002,3.389509e-002
4.261979e+002,3.430530e-002
4.281264e+002,3.501292e-002
4.300549e+002,3.619302e-002
4.319834e+002,3.583041e-002
4.339119e+002,3.569817e-002
4.358404e+002,3.628312e-002
4.377689e+002,3.704181e-002
4.396974e+002,3.741679e-002
4.416259e+002,3.747015e-002
4.435544e+002,3.712084e-002
4.454829e+002,3.697306e-002
4.474114e+002,3.655777e-002
4.493399e+002,3.636377e-002
4.512684e+002,3.632269e-002
4.531969e+002,3.625117e-002
4.551254e+002,3.570104e-002
4.570539e+002,3.558521e-002
4.589824e+002,3.621692e-002
4.609109e+002,3.697588e-002
4.628394e+002,3.718830e-002
4.647679e+002,3.614521e-002
4.666964e+002,3.580043e-002
4.686249e+002,3.614281e-002
4.705533e+002,3.555991e-002
4.724819e+002,3.537830e-002
4.744103e+002,3.567893e-002
4.763389e+002,3.562199e-002
4.782673e+002,3.569973e-002
4.801959e+002,3.575880e-002
4.821243e+002,3.576016e-002
4.840529e+002,3.551038e-002
4.859813e+002,3.532476e-002
4.879099e+002,3.544139e-002
4.898383e+002,3.647145e-002
4.917668e+002,3.662929e-002
4.936953e+002,3.636208e-002
4.956238e+002,3.615727e-002
4.975523e+002,3.589519e-002
4.994808e+002,3.602186e-002
5.014093e+002,3.603980e-002
5.033378e+002,3.594163e-002
5.052663e+002,3.576197e-002
5.071948e+002,3.618468e-002
5.091233e+002,3.656942e-002
5.110518e+002,3.728977e-002
5.129803e+002,3.716744e-002
5.149088e+002,3.726816e-002
5.168373e+002,3.730722e-002
5.187658e+002,3.756692e-002
5.206943e+002,3.807713e-002
5.226228e+002,3.801322e-002
5.245513e+002,3.781182e-002
5.264798e+002,3.786218e-002
5.284083e+002,3.744230e-002
5.303368e+002,3.768534e-002
5.322653e+002,3.748924e-002
5.341938e+002,3.742583e-002
5.361223e+002,3.718085e-002
5.380508e+002,3.722394e-002
5.399792e+002,3.693440e-002
5.419078e+002,3.700367e-002
5.438363e+002,3.714473e-002
5.457648e+002,3.747539e-002
5.476932e+002,3.778090e-002
5.496218e+002,3.787732e-002
5.515503e+002,3.840763e-002
5.534788e+002,3.859431e-002
5.554072e+002,3.828249e-002
5.573358e+002,3.894963e-002
5.592643e+002,3.877442e-002
5.611927e+002,3.891204e-002
5.631212e+002,3.876065e-002
5.650497e+002,3.845850e-002
5.669783e+002,3.811064e-002
5.689067e+002,3.750863e-002
5.708352e+002,3.746820e-002
5.727637e+002,3.712935e-002
5.746923e+002,3.726305e-002
5.766207e+002,3.715498e-002
5.785492e+002,3.681555e-002
5.804777e+002,3.711900e-002
5.824063e+002,3.698669e-002
5.843347e+002,3.668880e-002
5.862632e+002,3.664151e-002
5.881917e+002,3.673298e-002
5.901202e+002,3.684865e-002
5.920487e+002,3.688733e-002
5.939772e+002,3.670359e-002
5.959057e+002,3.675487e-002
5.978342e+002,3.651925e-002
5.997627e+002,3.622287e-002
6.016912e+002,3.618851e-002
6.036197e+002,3.620100e-002
6.055482e+002,3.594331e-002
6.074767e+002,3.587054e-002
6.094052e+002,3.585462e-002
6.113337e+002,3.577619e-002
6.132622e+002,3.530516e-002
6.151907e+002,3.498739e-002
6.171192e+002,3.490112e-002
6.190477e+002,3.466509e-002
6.209762e+002,3.416031e-002
6.229047e+002,3.348163e-002
6.248332e+002,3.283978e-002
6.267617e+002,3.226731e-002
6.286902e+002,3.184289e-002
6.306187e+002,3.182366e-002
6.325472e+002,3.156681e-002
6.344756e+002,3.111205e-002
6.364042e+002,3.090577e-002
6.383326e+002,3.065215e-002
6.402612e+002,3.036076e-002
6.421896e+002,3.018511e-002
6.441182e+002,3.003480e-002
6.460466e+002,2.985853e-002
6.479752e+002,2.960856e-002
6.499036e+002,2.949436e-002
6.518322e+002,2.931502e-002
6.537606e+002,2.937344e-002
6.556891e+002,2.956780e-002
6.576177e+002,2.956166e-002
6.595461e+002,2.954861e-002
6.614746e+002,2.988889e-002
6.634031e+002,3.020236e-002
6.653317e+002,3.016988e-002
6.672601e+002,2.982167e-002
6.691886e+002,2.957437e-002
6.711171e+002,2.917293e-002
6.730457e+002,2.862977e-002
6.749741e+002,2.790422e-002
6.769026e+002,2.700760e-002
6.788311e+002,2.625838e-002
6.807596e+002,2.570685e-002
6.826881e+002,2.538794e-002
6.846166e+002,2.506453e-002
6.865451e+002,2.487584e-002
6.884736e+002,2.460140e-002
6.904021e+002,2.421775e-002
6.923306e+002,2.411751e-002
6.942591e+002,2.410159e-002
6.961876e+002,2.409502e-002
6.981161e+002,2.410400e-002
7.000446e+002,2.397115e-002
7.019731e+002,2.377536e-002
7.039016e+002,2.367226e-002
7.058301e+002,2.351070e-002
7.077585e+002,2.336017e-002
7.096871e+002,2.326830e-002
7.116156e+002,2.306088e-002
7.135441e+002,2.279537e-002
7.154725e+002,2.263250e-002
7.174011e+002,2.249308e-002
7.193296e+002,2.238353e-002
7.212581e+002,2.218826e-002
7.231865e+002,2.192827e-002
7.251151e+002,2.170396e-002
7.270436e+002,2.145492e-002
7.289720e+002,2.121980e-002
7.309005e+002,2.103521e-002
7.328290e+002,2.090854e-002
7.347576e+002,2.079619e-002
7.366860e+002,2.061234e-002
7.386145e+002,2.045953e-002
7.405430e+002,2.030755e-002
7.424716e+002,2.018096e-002
7.444000e+002,2.007796e-002
7.463285e+002,1.991887e-002
7.482570e+002,1.966852e-002
7.501855e+002,1.952164e-002
7.521140e+002,1.935994e-002
7.540425e+002,1.933523e-002
7.559710e+002,1.909350e-002
7.578995e+002,1.892277e-002
7.598280e+002,1.888797e-002
7.617565e+002,1.873735e-002
7.636850e+002,1.857624e-002
7.656135e+002,1.838663e-002
7.675420e+002,1.828605e-002
7.694705e+002,1.814577e-002
7.713990e+002,1.795946e-002
7.733275e+002,1.791453e-002
7.752560e+002,1.788207e-002
7.771844e+002,1.781278e-002
7.791130e+002,1.772960e-002
7.810415e+002,1.767130e-002
7.829700e+002,1.760453e-002
7.848984e+002,1.755505e-002
7.868270e+002,1.744067e-002
7.887555e+002,1.743542e-002
7.906840e+002,1.734103e-002
7.926124e+002,1.727572e-002
7.945410e+002,1.735676e-002
7.964695e+002,1.743442e-002
7.983979e+002,1.737986e-002
8.003264e+002,1.729193e-002
8.022549e+002,1.726365e-002
8.041835e+002,1.721467e-002
8.061119e+002,1.711529e-002
8.080404e+002,1.721132e-002
8.099689e+002,1.734524e-002
8.118975e+002,1.735886e-002
8.138259e+002,1.734927e-002
8.157545e+002,1.747592e-002
8.176830e+002,1.743787e-002
8.196115e+002,1.727076e-002
8.215399e+002,1.723694e-002
8.234684e+002,1.734593e-002
8.253970e+002,1.740662e-002
8.273254e+002,1.745153e-002
8.292539e+002,1.757814e-002
8.311824e+002,1.764953e-002
8.331110e+002,1.748599e-002
8.350394e+002,1.739000e-002
8.369679e+002,1.753104e-002
8.388964e+002,1.753994e-002
8.408250e+002,1.734900e-002
8.427534e+002,1.722487e-002
8.446819e+002,1.720725e-002
8.466104e+002,1.713931e-002
8.485389e+002,1.713814e-002
8.504674e+002,1.708868e-002
8.523959e+002,1.707659e-002
8.543244e+002,1.715644e-002
8.562529e+002,1.721880e-002
8.581814e+002,1.727100e-002
8.601099e+002,1.727683e-002
8.620384e+002,1.731000e-002
8.639669e+002,1.729355e-002
8.658954e+002,1.742649e-002
8.678239e+002,1.756875e-002
8.697524e+002,1.764208e-002
8.716809e+002,1.775089e-002
8.736094e+002,1.784910e-002
8.755378e+002,1.784862e-002
8.774664e+002,1.794813e-002
8.793949e+002,1.811844e-002
8.813234e+002,1.836316e-002
8.832518e+002,1.863973e-002
8.851804e+002,1.895566e-002
8.871089e+002,1.940492e-002
8.890374e+002,1.987067e-002
8.909658e+002,2.027320e-002
8.928943e+002,2.075889e-002
8.948229e+002,2.109741e-002
8.967513e+002,2.117001e-002
8.986798e+002,2.110266e-002
9.006083e+002,2.086321e-002
9.025369e+002,2.055551e-002
9.044653e+002,2.019635e-002
9.063938e+002,1.992995e-002
9.083223e+002,1.973129e-002
9.102509e+002,1.957286e-002
9.121793e+002,1.953102e-002
9.141078e+002,1.940315e-002
9.160364e+002,1.936944e-002
9.179648e+002,1.947374e-002
9.198933e+002,1.961106e-002
9.218218e+002,1.965071e-002
9.237504e+002,1.973528e-002
9.256788e+002,1.992263e-002
9.276073e+002,2.018579e-002
9.295358e+002,2.040234e-002
9.314644e+002,2.048646e-002
9.333928e+002,2.071503e-002
9.353213e+002,2.097134e-002
9.372498e+002,2.121392e-002
9.391783e+002,2.150638e-002
9.411068e+002,2.186175e-002
9.430353e+002,2.234891e-002
9.449637e+002,2.282858e-002
9.468923e+002,2.330952e-002
9.488208e+002,2.388683e-002
9.507493e+002,2.457321e-002
9.526777e+002,2.521617e-002
9.546063e+002,2.588573e-002
9.565348e+002,2.661984e-002
9.584633e+002,2.740452e-002
9.603917e+002,2.814922e-002
9.623203e+002,2.897458e-002
9.642488e+002,2.971687e-002
9.661772e+002,3.036505e-002
9.681057e+002,3.101182e-002
9.700343e+002,3.168193e-002
9.719628e+002,3.240442e-002
9.738912e+002,3.321616e-002
9.758197e+002,3.411597e-002
9.777483e+002,3.517746e-002
9.796768e+002,3.638558e-002
9.816052e+002,3.771600e-002
9.835337e+002,3.902284e-002
9.854623e+002,4.027996e-002
9.873907e+002,4.129146e-002
9.893192e+002,4.206670e-002
9.912477e+002,4.244179e-002
9.931763e+002,4.260835e-002
9.951047e+002,4.269484e-002
9.970332e+002,4.283308e-002
9.989617e+002,4.325265e-002
1.000890e+003,4.396155e-002
1.002819e+003,4.468571e-002
1.004747e+003,4.536882e-002
1.006676e+003,4.603907e-002
1.008604e+003,4.658306e-002
1.010533e+003,4.693642e-002
1.012461e+003,4.744456e-002
1.014390e+003,4.804534e-002
1.016318e+003,4.887549e-002
1.018247e+003,4.989217e-002
1.020175e+003,5.093062e-002
1.022104e+003,5.205559e-002
1.024032e+003,5.318060e-002
1.025961e+003,5.420528e-002
1.027889e+003,5.522336e-002
1.029818e+003,5.614360e-002
1.031746e+003,5.685911e-002
1.033675e+003,5.736482e-002
1.035603e+003,5.740543e-002
1.037532e+003,5.691610e-002
1.039460e+003,5.613696e-002
1.041389e+003,5.526558e-002
1.043317e+003,5.457200e-002
1.045246e+003,5.419710e-002
1.047174e+003,5.396578e-002
1.049103e+003,5.373443e-002
1.051031e+003,5.354263e-002
1.052960e+003,5.333368e-002
1.054888e+003,5.295217e-002
1.056817e+003,5.220805e-002
1.058745e+003,5.135030e-002
1.060674e+003,5.034861e-002
1.062602e+003,4.908056e-002
1.064531e+003,4.765384e-002
1.066459e+003,4.626658e-002
1.068388e+003,4.497965e-002
1.070316e+003,4.383266e-002
1.072245e+003,4.271261e-002
1.074173e+003,4.166800e-002
1.076102e+003,4.068012e-002
1.078030e+003,3.966707e-002
1.079959e+003,3.867292e-002
1.081887e+003,3.765536e-002
1.083816e+003,3.677697e-002
1.085744e+003,3.619453e-002
1.087673e+003,3.580309e-002
1.089601e+003,3.554953e-002
1.091530e+003,3.527373e-002
1.093458e+003,3.502968e-002
1.095387e+003,3.485145e-002
1.097315e+003,3.483541e-002
1.099244e+003,3.493335e-002
1.101172e+003,3.507971e-002
1.103101e+003,3.511420e-002
1.105029e+003,3.497767e-002
1.106958e+003,3.466049e-002
1.108886e+003,3.415285e-002
1.110815e+003,3.338280e-002
1.112743e+003,3.245230e-002
1.114672e+003,3.144120e-002
1.116600e+003,3.037696e-002
1.118529e+003,2.944946e-002
1.120457e+003,2.877546e-002
1.122386e+003,2.809379e-002
1.124314e+003,2.732244e-002
1.126243e+003,2.639813e-002
1.128171e+003,2.543626e-002
1.130100e+003,2.446719e-002
1.132028e+003,2.351731e-002
1.133957e+003,2.268557e-002
1.135885e+003,2.196306e-002
1.137814e+003,2.138451e-002
1.139742e+003,2.111053e-002
1.141671e+003,2.107234e-002
1.143599e+003,2.117151e-002
1.145528e+003,2.147693e-002
1.147456e+003,2.188939e-002
1.149385e+003,2.229973e-002
1.151313e+003,2.277963e-002
1.153242e+003,2.328991e-002
1.155170e+003,2.378690e-002
1.157099e+003,2.422429e-002
1.159027e+003,2.448244e-002
1.160956e+003,2.453706e-002
1.162884e+003,2.424787e-002
1.164813e+003,2.369402e-002
1.166741e+003,2.293267e-002
1.168670e+003,2.186161e-002
1.170598e+003,2.064505e-002
1.172526e+003,1.944130e-002
1.174455e+003,1.830530e-002
1.176384e+003,1.732375e-002
1.178312e+003,1.650092e-002
1.180240e+003,1.583632e-002
1.182169e+003,1.535249e-002
1.184098e+003,1.495521e-002
1.186026e+003,1.462850e-002
1.187954e+003,1.450007e-002
1.189883e+003,1.444471e-002
1.191812e+003,1.446903e-002
1.193740e+003,1.468780e-002
1.195668e+003,1.495450e-002
1.197597e+003,1.527157e-002
1.199526e+003,1.554512e-002
1.201454e+003,1.572297e-002
1.203382e+003,1.581429e-002
1.205311e+003,1.584595e-002
1.207240e+003,1.585512e-002
1.209168e+003,1.584294e-002
1.211096e+003,1.590273e-002
1.213025e+003,1.609884e-002
1.214953e+003,1.633698e-002
1.216882e+003,1.661980e-002
1.218810e+003,1.696955e-002
1.220739e+003,1.731600e-002
1.222667e+003,1.768378e-002
1.224596e+003,1.809922e-002
1.226524e+003,1.850836e-002
1.228453e+003,1.887005e-002
1.230381e+003,1.916909e-002
1.232310e+003,1.940654e-002
1.234238e+003,1.957329e-002
1.236167e+003,1.965901e-002
1.238095e+003,1.967786e-002
1.240024e+003,1.968452e-002
1.241952e+003,1.965378e-002
1.243881e+003,1.957371e-002
1.245809e+003,1.946088e-002
1.247738e+003,1.929628e-002
1.249666e+003,1.907449e-002
1.251595e+003,1.883610e-002
1.253523e+003,1.861211e-002
1.255452e+003,1.839066e-002
1.257380e+003,1.812401e-002
1.259309e+003,1.788726e-002
1.261237e+003,1.760313e-002
1.263166e+003,1.732451e-002
1.265094e+003,1.696324e-002
1.267023e+003,1.665607e-002
1.268951e+003,1.634594e-002
1.270880e+003,1.604459e-002
1.272808e+003,1.573342e-002
1.274737e+003,1.543913e-002
1.276665e+003,1.520120e-002
1.278594e+003,1.503022e-002
1.280522e+003,1.488566e-002
1.282451e+003,1.474057e-002
1.284379e+003,1.455311e-002
1.286308e+003,1.440836e-002
1.288236e+003,1.428690e-002
1.290165e+003,1.422969e-002
1.292093e+003,1.420332e-002
1.294022e+003,1.424155e-002
1.295950e+003,1.435967e-002
1.297879e+003,1.450822e-002
1.299807e+003,1.464731e-002
1.301736e+003,1.487452e-002
1.303664e+003,1.518426e-002
1.305593e+003,1.545915e-002
1.307521e+003,1.574072e-002
1.309450e+003,1.601985e-002
1.311378e+003,1.627790e-002
1.313307e+003,1.651001e-002
1.315235e+003,1.664580e-002
1.317164e+003,1.666335e-002
1.319092e+003,1.663747e-002
1.321021e+003,1.656334e-002
1.322949e+003,1.638183e-002
1.324878e+003,1.625196e-002
1.326806e+003,1.613542e-002
1.328735e+003,1.603890e-002
1.330663e+003,1.599212e-002
1.332592e+003,1.592214e-002
1.334520e+003,1.585274e-002
1.336449e+003,1.575658e-002
1.338377e+003,1.559845e-002
1.340306e+003,1.542307e-002
1.342234e+003,1.524732e-002
1.344163e+003,1.514323e-002
1.346091e+003,1.511317e-002
1.348020e+003,1.515663e-002
1.349948e+003,1.522203e-002
1.351877e+003,1.534160e-002
1.353805e+003,1.549135e-002
1.355734e+003,1.566269e-002
1.357662e+003,1.586301e-002
1.359591e+003,1.601771e-002
1.361519e+003,1.615493e-002
1.363448e+003,1.636367e-002
1.365376e+003,1.650282e-002
1.367305e+003,1.658698e-002
1.369233e+003,1.657126e-002
1.371162e+003,1.651199e-002
1.373090e+003,1.635414e-002
1.375019e+003,1.612255e-002
1.376947e+003,1.582398e-002
1.378876e+003,1.549150e-002
1.380804e+003,1.513598e-002
1.382733e+003,1.478128e-002
1.384661e+003,1.445527e-002
1.386590e+003,1.416554e-002
1.388518e+003,1.391518e-002
1.390447e+003,1.377295e-002
1.392375e+003,1.366113e-002
1.394304e+003,1.353556e-002
1.396232e+003,1.347195e-002
1.398161e+003,1.350100e-002
1.400089e+003,1.352112e-002
1.402018e+003,1.353126e-002
1.403946e+003,1.355376e-002
1.405875e+003,1.360114e-002
1.407803e+003,1.371590e-002
1.409732e+003,1.381066e-002
1.411660e+003,1.394482e-002
1.413589e+003,1.411252e-002
1.415517e+003,1.425826e-002
1.417446e+003,1.438569e-002
1.419374e+003,1.455116e-002
1.421303e+003,1.468705e-002
1.423231e+003,1.471500e-002
1.425160e+003,1.468790e-002
1.427088e+003,1.461667e-002
1.429017e+003,1.450786e-002
1.430945e+003,1.436177e-002
1.432874e+003,1.417338e-002
1.434802e+003,1.396026e-002
1.436731e+003,1.378874e-002
1.438659e+003,1.367716e-002
1.440588e+003,1.356803e-002
1.442516e+003,1.347679e-002
1.444445e+003,1.344592e-002
1.446373e+003,1.343460e-002
1.448302e+003,1.342135e-002
1.450230e+003,1.341980e-002
1.452159e+003,1.336929e-002
1.454087e+003,1.328394e-002
1.456016e+003,1.317401e-002
1.457944e+003,1.303520e-002
1.459873e+003,1.294521e-002
1.461801e+003,1.285527e-002
1.463730e+003,1.271994e-002
1.465658e+003,1.248860e-002
1.467587e+003,1.211915e-002
1.469515e+003,1.173343e-002
1.471444e+003,1.137571e-002
1.473372e+003,1.104888e-002
1.475301e+003,1.079180e-002
1.477229e+003,1.056552e-002
1.479158e+003,1.040839e-002
1.481086e+003,1.032180e-002
1.483015e+003,1.029387e-002
1.484943e+003,1.028910e-002
1.486872e+003,1.033787e-002
1.488800e+003,1.039991e-002
1.490729e+003,1.054542e-002
1.492657e+003,1.075365e-002
1.494586e+003,1.093178e-002
1.496514e+003,1.106201e-002
1.498443e+003,1.122438e-002
1.500371e+003,1.141879e-002
1.502300e+003,1.158579e-002
1.504228e+003,1.171188e-002
1.506157e+003,1.175897e-002
1.508085e+003,1.178986e-002
1.510014e+003,1.181419e-002
1.511942e+003,1.184305e-002
1.513871e+003,1.187092e-002
1.515799e+003,1.179090e-002
1.517728e+003,1.156857e-002
1.519656e+003,1.135360e-002
1.521585e+003,1.114417e-002
1.523513e+003,1.095679e-002
1.525442e+003,1.087376e-002
1.527370e+003,1.077963e-002
1.529299e+003,1.072539e-002
1.531227e+003,1.075481e-002
1.533156e+003,1.074877e-002
1.535084e+003,1.071309e-002
1.537013e+003,1.070543e-002
1.538941e+003,1.073041e-002
1.540870e+003,1.067990e-002
1.542798e+003,1.067040e-002
1.544727e+003,1.068481e-002
1.546655e+003,1.065823e-002
1.548584e+003,1.063255e-002
1.550512e+003,1.059497e-002
1.552441e+003,1.058479e-002
1.554369e+003,1.051978e-002
1.556298e+003,1.051827e-002
1.558226e+003,1.055818e-002
1.560155e+003,1.057860e-002
1.562083e+003,1.058979e-002
1.564012e+003,1.060124e-002
1.565940e+003,1.063622e-002
1.567869e+003,1.069936e-002
1.569797e+003,1.076231e-002
1.571726e+003,1.087896e-002
1.573654e+003,1.096916e-002
1.575583e+003,1.107526e-002
1.577511e+003,1.123834e-002
1.579440e+003,1.141927e-002
1.581368e+003,1.162049e-002
1.583297e+003,1.183168e-002
1.585225e+003,1.206189e-002
1.587154e+003,1.231870e-002
1.589082e+003,1.252144e-002
1.591010e+003,1.266083e-002
1.592939e+003,1.276124e-002
1.594868e+003,1.281587e-002
1.596796e+003,1.286986e-002
1.598724e+003,1.291329e-002
1.600653e+003,1.296512e-002
1.602582e+003,1.299576e-002
1.604510e+003,1.297912e-002
1.606438e+003,1.293336e-002
1.608367e+003,1.285295e-002
1.610296e+003,1.280689e-002
1.612224e+003,1.284162e-002
1.614152e+003,1.292578e-002
1.616081e+003,1.306187e-002
1.618010e+003,1.322958e-002
1.619938e+003,1.338164e-002
1.621866e+003,1.351475e-002
1.623795e+003,1.358426e-002
1.625724e+003,1.367460e-002
1.627652e+003,1.374512e-002
1.629580e+003,1.372392e-002
1.631509e+003,1.362354e-002
1.633438e+003,1.355169e-002
1.635366e+003,1.348680e-002
1.637294e+003,1.337222e-002
1.639223e+003,1.324606e-002
1.641151e+003,1.316485e-002
1.643080e+003,1.306428e-002
1.645008e+003,1.306324e-002
1.646937e+003,1.303211e-002
1.648865e+003,1.298184e-002
1.650794e+003,1.293034e-002
1.652722e+003,1.288067e-002
1.654651e+003,1.281235e-002
1.656579e+003,1.269221e-002
1.658508e+003,1.254025e-002
1.660436e+003,1.237790e-002
1.662365e+003,1.218352e-002
1.664293e+003,1.200853e-002
1.666222e+003,1.184199e-002
1.668150e+003,1.161833e-002
1.670079e+003,1.145407e-002
1.672007e+003,1.132427e-002
1.673936e+003,1.119749e-002
1.675864e+003,1.110042e-002
1.677793e+003,1.096660e-002
1.679721e+003,1.086280e-002
1.681650e+003,1.074949e-002
1.683578e+003,1.067834e-002
1.685507e+003,1.063219e-002
1.687435e+003,1.057923e-002
1.689364e+003,1.054875e-002
1.691292e+003,1.049554e-002
1.693221e+003,1.049202e-002
1.695149e+003,1.047798e-002
1.697078e+003,1.040828e-002
1.699006e+003,1.032818e-002
1.700935e+003,1.022773e-002
1.702863e+003,1.019884e-002
1.704792e+003,1.020252e-002
1.706720e+003,1.018165e-002
1.708649e+003,1.014847e-002
1.710577e+003,1.020891e-002
1.712506e+003,1.031038e-002
1.714434e+003,1.033969e-002
1.716363e+003,1.035531e-002
1.718291e+003,1.043844e-002
1.720220e+003,1.057779e-002
1.722148e+003,1.063490e-002
1.724077e+003,1.074367e-002
1.726005e+003,1.082995e-002
1.727934e+003,1.080884e-002
1.729862e+003,1.078846e-002
1.731791e+003,1.073195e-002
1.733719e+003,1.062305e-002
1.735648e+003,1.049851e-002
1.737576e+003,1.033670e-002
1.739505e+003,1.013058e-002
1.741433e+003,9.840534e-003
1.743362e+003,9.592475e-003
1.745290e+003,9.399454e-003
1.747219e+003,9.184922e-003
1.749147e+003,9.015691e-003
1.751076e+003,8.824056e-003
1.753004e+003,8.621783e-003
1.754933e+003,8.477609e-003
1.756861e+003,8.410887e-003
1.758790e+003,8.266198e-003
1.760718e+003,8.093805e-003
1.762647e+003,7.967112e-003
1.764575e+003,7.898595e-003
1.766504e+003,7.809403e-003
1.768432e+003,7.731176e-003
1.770361e+003,7.681584e-003
1.772289e+003,7.651175e-003
1.774218e+003,7.611291e-003
1.776146e+003,7.564345e-003
1.778075e+003,7.523804e-003
1.780003e+003,7.523551e-003
1.781932e+003,7.518950e-003
1.783860e+003,7.579170e-003
1.785789e+003,7.596955e-003
1.787717e+003,7.528807e-003
1.789646e+003,7.514094e-003
1.791574e+003,7.480557e-003
1.793503e+003,7.535662e-003
1.795431e+003,7.537149e-003
1.797360e+003,7.529978e-003
1.799288e+003,7.543110e-003
1.801217e+003,7.562743e-003
1.803145e+003,7.552094e-003
1.805074e+003,7.545704e-003
1.807002e+003,7.548393e-003
1.808931e+003,7.501139e-003
1.810859e+003,7.413271e-003
1.812788e+003,7.389653e-003
1.814716e+003,7.405792e-003
1.816645e+003,7.426191e-003
1.818573e+003,7.394986e-003
1.820502e+003,7.336983e-003
1.822430e+003,7.340430e-003
1.824359e+003,7.336738e-003
1.826287e+003,7.364680e-003
1.828216e+003,7.334831e-003
1.830144e+003,7.320158e-003
1.832073e+003,7.289483e-003
1.834001e+003,7.264153e-003
1.835930e+003,7.395128e-003
1.837858e+003,7.395408e-003
1.839787e+003,7.255882e-003
1.841715e+003,7.240700e-003
1.843644e+003,7.285686e-003
1.845572e+003,7.383327e-003
1.847501e+003,7.409425e-003
1.849429e+003,7.402642e-003
1.851358e+003,7.397113e-003
1.853286e+003,7.293333e-003
1.855215e+003,7.356556e-003
1.857143e+003,7.458939e-003
1.859072e+003,7.479198e-003
1.861000e+003,7.447028e-003
1.862929e+003,7.409074e-003
1.864857e+003,7.457552e-003
1.866786e+003,7.571512e-003
1.868714e+003,7.358716e-003
1.870643e+003,7.269748e-003
1.872571e+003,7.385243e-003
1.874500e+003,7.535487e-003
1.876428e+003,7.460233e-003
1.878357e+003,7.318095e-003
1.880285e+003,7.367635e-003
1.882214e+003,7.402454e-003
1.884142e+003,7.276933e-003
1.886071e+003,7.315809e-003
1.887999e+003,7.399877e-003
1.889928e+003,7.216574e-003
1.891856e+003,7.167097e-003
1.893785e+003,7.286190e-003
1.895713e+003,7.217119e-003
1.897642e+003,7.057520e-003
1.899570e+003,7.119744e-003
1.901499e+003,7.057969e-003
1.903427e+003,7.066014e-003
1.905356e+003,7.230793e-003
1.907284e+003,7.205832e-003
1.909213e+003,7.181301e-003
1.911141e+003,7.159350e-003
1.913070e+003,7.075092e-003
1.914998e+003,7.150109e-003
1.916927e+003,7.153837e-003
1.918855e+003,7.017735e-003
1.920784e+003,6.997002e-003
1.922712e+003,7.140705e-003
1.924641e+003,6.982668e-003
1.926569e+003,6.762530e-003
1.928498e+003,6.604140e-003
1.930426e+003,6.637817e-003
1.932355e+003,6.668464e-003
1.934283e+003,6.915963e-003
1.936212e+003,6.582186e-003
1.938140e+003,6.284605e-003
1.940069e+003,6.206851e-003
1.941997e+003,6.157686e-003
1.943926e+003,6.403985e-003
1.945854e+003,6.464811e-003
1.947783e+003,6.114128e-003
1.949711e+003,6.158315e-003
1.951640e+003,6.195849e-003
1.953568e+003,5.870683e-003
1.955497e+003,5.567443e-003
1.957425e+003,5.684032e-003
1.959354e+003,5.654883e-003
1.961282e+003,5.411659e-003
1.963211e+003,4.848824e-003
1.965139e+003,4.381013e-003
1.967068e+003,4.173555e-003
1.968996e+003,3.253033e-003
1.970925e+003,2.790924e-003
1.972853e+003,2.587189e-003
1.974782e+003,2.193013e-003
1.976710e+003,3.090405e-003
1.978639e+003,4.452427e-003
1.980567e+003,3.960254e-003
1.982496e+003,4.343597e-003
1.984424e+003,5.001490e-003
1.986353e+003,4.974836e-003
1.988281e+003,4.613474e-003
1.990210e+003,4.859958e-003
1.992138e+003,5.528564e-003
1.994067e+003,5.311687e-003
1.995995e+003,5.077579e-003
1.997924e+003,4.804964e-003
1.999852e+003,4.173851e-003
2.001781e+003,3.711878e-003
2.003709e+003,3.603192e-003
2.005638e+003,3.488877e-003
2.007566e+003,3.989230e-003
2.009495e+003,3.483360e-003
2.011423e+003,2.771270e-003
2.013352e+003,2.891063e-003
2.015280e+003,2.904079e-003
2.017208e+003,3.329971e-003
2.019137e+003,2.931229e-003
2.021066e+003,2.154847e-003
2.022994e+003,1.819977e-003
2.024922e+003,1.886266e-003
2.026851e+003,2.015191e-003
2.028780e+003,2.589242e-003
2.030708e+003,2.592907e-003
2.032636e+003,1.944661e-003
2.034565e+003,1.411594e-003
2.036494e+003,2.719856e-003
2.038422e+003,3.349419e-003
2.040350e+003,2.805345e-003
2.042279e+003,2.741653e-003
2.044208e+003,3.075431e-003
2.046136e+003,3.492584e-003
2.048064e+003,4.055825e-003
2.049993e+003,4.243778e-003
2.051921e+003,4.381676e-003
2.053850e+003,4.366911e-003
2.055778e+003,4.693249e-003
2.057707e+003,4.911435e-003
2.059635e+003,4.713322e-003
2.061564e+003,4.739282e-003
2.063492e+003,5.230493e-003
2.065421e+003,5.460140e-003
2.067349e+003,5.489708e-003
2.069278e+003,5.375074e-003
2.071206e+003,5.409511e-003
2.073135e+003,5.825343e-003
2.075063e+003,5.991198e-003
2.076992e+003,5.931318e-003
2.078920e+003,6.252758e-003
2.080849e+003,6.431844e-003
2.082777e+003,6.204142e-003
2.084706e+003,6.225567e-003
2.086634e+003,6.407806e-003
2.088563e+003,6.358079e-003
2.090491e+003,6.091816e-003
2.092420e+003,6.197803e-003
2.094348e+003,6.389734e-003
2.096277e+003,6.237766e-003
2.098205e+003,6.250808e-003
2.100134e+003,6.564846e-003
2.102062e+003,6.489670e-003
2.103991e+003,6.339962e-003
2.105919e+003,6.294946e-003
2.107848e+003,6.215581e-003
2.109776e+003,6.452911e-003
2.111705e+003,6.412288e-003
2.113633e+003,6.498381e-003
2.115562e+003,6.539349e-003
2.117490e+003,6.489300e-003
2.119419e+003,6.380007e-003
2.121347e+003,6.085725e-003
2.123276e+003,6.153639e-003
2.125204e+003,6.127091e-003
2.127133e+003,5.887118e-003
2.129061e+003,5.752357e-003
2.130990e+003,5.613778e-003
2.132918e+003,5.110023e-003
2.134847e+003,4.410961e-003
2.136775e+003,4.133832e-003
2.138704e+003,4.208133e-003
2.140632e+003,4.008911e-003
2.142561e+003,3.834984e-003
2.144489e+003,3.938590e-003
2.146418e+003,3.369850e-003
2.148346e+003,3.297061e-003
2.150275e+003,3.305341e-003
2.152203e+003,3.268082e-003
2.154132e+003,2.125773e-003
2.156060e+003,4.401104e-004
2.157989e+003,-1.145093e-003
2.159917e+003,-7.468945e-004
2.161846e+003,-2.403210e-004
2.163774e+003,1.028970e-003
2.165703e+003,2.514452e-003
2.167631e+003,2.549812e-003
2.169560e+003,2.674248e-003
2.171488e+003,3.391488e-003
2.173417e+003,3.827663e-003
2.175345e+003,3.728195e-003
2.177274e+003,3.114108e-003
2.179202e+003,3.312286e-003
2.181131e+003,2.799386e-003
2.183059e+003,2.899509e-003
2.184988e+003,3.636267e-003
2.186916e+003,3.855008e-003
2.188845e+003,4.727825e-003
2.190773e+003,4.969873e-003
2.192702e+003,4.201776e-003
2.194630e+003,3.904854e-003
2.196559e+003,4.626476e-003
2.198487e+003,5.369459e-003
2.200416e+003,5.326187e-003
2.202344e+003,5.147976e-003
2.204273e+003,5.061480e-003
2.206201e+003,4.887500e-003
2.208130e+003,4.570385e-003
2.210058e+003,4.402393e-003
2.211987e+003,4.903316e-003
2.213915e+003,4.929388e-003
2.215844e+003,4.561412e-003
2.217772e+003,5.004495e-003
2.219701e+003,5.396734e-003
2.221629e+003,5.549372e-003
2.223558e+003,5.567662e-003
2.225486e+003,5.565783e-003
2.227415e+003,5.457662e-003
2.229343e+003,5.464137e-003
2.231272e+003,5.648595e-003
2.233200e+003,5.623240e-003
2.235129e+003,5.675874e-003
2.237057e+003,5.800223e-003
2.238986e+003,5.708161e-003
2.240914e+003,5.929640e-003
2.242843e+003,6.074053e-003
2.244771e+003,6.045560e-003
2.246700e+003,5.949205e-003
2.248628e+003,6.186679e-003
2.250557e+003,6.238613e-003
2.252485e+003,6.642697e-003
2.254414e+003,6.759580e-003
2.256342e+003,6.831337e-003
2.258271e+003,6.966515e-003
2.260199e+003,6.548935e-003
2.262128e+003,6.492583e-003
2.264056e+003,6.617414e-003
2.265985e+003,6.866095e-003
2.267913e+003,6.842491e-003
2.269842e+003,6.911587e-003
2.271770e+003,7.060981e-003
2.273699e+003,7.194693e-003
2.275627e+003,7.588904e-003
2.277556e+003,7.739782e-003
2.279484e+003,7.601458e-003
2.281413e+003,7.426881e-003
2.283341e+003,7.480767e-003
2.285270e+003,7.652700e-003
2.287198e+003,7.772107e-003
2.289127e+003,7.859549e-003
2.291055e+003,7.993576e-003
2.292984e+003,7.982516e-003
2.294912e+003,7.940111e-003
2.296841e+003,7.967793e-003
2.298769e+003,8.143954e-003
2.300698e+003,8.197591e-003
2.302626e+003,8.218342e-003
2.304555e+003,8.221605e-003
2.306483e+003,8.334611e-003
2.308412e+003,8.464023e-003
2.310340e+003,8.271175e-003
2.312269e+003,7.966918e-003
2.314197e+003,7.972835e-003
2.316125e+003,8.059780e-003
2.318054e+003,8.158633e-003
2.319983e+003,8.239854e-003
2.321911e+003,8.145139e-003
2.323840e+003,8.156145e-003
2.325768e+003,8.446141e-003
2.327697e+003,8.417655e-003
2.329625e+003,8.381136e-003
2.331553e+003,8.503085e-003
2.333482e+003,8.583400e-003
2.335411e+003,8.778754e-003
2.337339e+003,8.734563e-003
2.339268e+003,8.869124e-003
2.341196e+003,8.565738e-003
2.343125e+003,8.458300e-003
2.345053e+003,8.460244e-003
2.346981e+003,8.467906e-003
2.348910e+003,8.282092e-003
2.350839e+003,8.392460e-003
2.352767e+003,8.425186e-003
2.354696e+003,8.115361e-003
2.356624e+003,7.967370e-003
2.358552e+003,8.088333e-003
2.360481e+003,8.236288e-003
2.362409e+003,8.368332e-003
2.364338e+003,8.156925e-003
2.366267e+003,8.139962e-003
2.368195e+003,8.025657e-003
2.370124e+003,8.053512e-003
2.372052e+003,8.183477e-003
2.373980e+003,8.343209e-003
2.375909e+003,8.312009e-003
2.377838e+003,8.304047e-003
2.379766e+003,8.367508e-003
2.381695e+003,8.262743e-003
2.383623e+003,8.249016e-003
2.385552e+003,8.120075e-003
2.387480e+003,7.917975e-003
2.389408e+003,7.944576e-003
2.391337e+003,7.942680e-003
2.393266e+003,8.054336e-003
2.395194e+003,8.152460e-003
2.397123e+003,8.078910e-003
2.399051e+003,8.035035e-003
2.400979e+003,8.014129e-003
2.402908e+003,8.020171e-003
2.404836e+003,8.037992e-003
2.406765e+003,8.019631e-003
2.408694e+003,8.034280e-003
2.410622e+003,7.937251e-003
2.412551e+003,7.720020e-003
2.414479e+003,7.644104e-003
2.416407e+003,7.699210e-003
2.418336e+003,7.681403e-003
2.420264e+003,7.617802e-003
2.422193e+003,7.636888e-003
2.424122e+003,7.636146e-003
2.426050e+003,7.514225e-003
2.427979e+003,7.530711e-003
2.429907e+003,7.669127e-003
2.431835e+003,7.673579e-003
2.433764e+003,7.603606e-003
2.435692e+003,7.543961e-003
2.437621e+003,7.478896e-003
2.439550e+003,7.466390e-003
2.441478e+003,7.769671e-003
2.443406e+003,7.770548e-003
2.445335e+003,7.658369e-003
2.447263e+003,7.612373e-003
2.449192e+003,7.549153e-003
2.451121e+003,7.595243e-003
2.453049e+003,7.604719e-003
2.454978e+003,7.513382e-003
2.456906e+003,7.543792e-003
2.458834e+003,7.673006e-003
2.460763e+003,7.695770e-003
2.462691e+003,7.642452e-003
2.464620e+003,7.631796e-003
2.466549e+003,7.625085e-003
2.468477e+003,7.569011e-003
2.470406e+003,7.506269e-003
2.472334e+003,7.487357e-003
2.474262e+003,7.497302e-003
2.476191e+003,7.599560e-003
2.478119e+003,7.669599e-003
2.480048e+003,7.613013e-003
2.481977e+003,7.447446e-003
2.483905e+003,7.412965e-003
2.485833e+003,7.439963e-003
2.487762e+003,7.507887e-003
2.489690e+003,7.554851e-003
2.491619e+003,7.618105e-003
2.493547e+003,7.718266e-003
2.495476e+003,7.697085e-003
2.497405e+003,7.797197e-003
2.499333e+003,7.778948e-003
2.501261e+003,7.664473e-003
2.503190e+003,7.653041e-003
2.505118e+003,7.698873e-003
2.507047e+003,7.807756e-003
2.508975e+003,7.936205e-003
2.510904e+003,7.885354e-003
2.512833e+003,7.789000e-003
2.514761e+003,7.778712e-003
2.516689e+003,7.797298e-003
2.518618e+003,7.746127e-003
2.520546e+003,7.737863e-003
2.522475e+003,7.838220e-003
2.524403e+003,7.869968e-003
2.526332e+003,7.803202e-003
2.528260e+003,7.692465e-003
2.530189e+003,7.732702e-003
2.532117e+003,7.808600e-003
2.534046e+003,7.934315e-003
2.535974e+003,7.925744e-003
2.537903e+003,7.893486e-003
2.539831e+003,7.949197e-003
2.541760e+003,8.024423e-003
2.543688e+003,7.881440e-003
2.545617e+003,7.900470e-003
2.547545e+003,7.932155e-003
2.549474e+003,8.088456e-003
2.551402e+003,8.027967e-003
2.553331e+003,7.999178e-003
2.555259e+003,8.015344e-003
2.557188e+003,7.991314e-003
2.559116e+003,8.173295e-003
2.561045e+003,8.187577e-003
2.562973e+003,8.051088e-003
2.564902e+003,8.106584e-003
2.566830e+003,8.375451e-003
2.568759e+003,8.462542e-003
2.570687e+003,8.259401e-003
2.572616e+003,8.069856e-003
2.574544e+003,8.175557e-003
2.576473e+003,8.322285e-003
2.578401e+003,8.267370e-003
2.580330e+003,8.305634e-003
2.582258e+003,8.211652e-003
2.584187e+003,8.168096e-003
2.586115e+003,8.329851e-003
2.588044e+003,8.384537e-003
2.589972e+003,8.298779e-003
2.591901e+003,8.234513e-003
2.593829e+003,8.149830e-003
2.595758e+003,8.228502e-003
2.597686e+003,8.304926e-003
2.599615e+003,8.230123e-003
2.601543e+003,8.162119e-003
2.603472e+003,8.191798e-003
2.605400e+003,8.264770e-003
2.607329e+003,8.251228e-003
2.609257e+003,8.261359e-003
2.611186e+003,8.319752e-003
2.613114e+003,8.378153e-003
2.615043e+003,8.410616e-003
2.616971e+003,8.403827e-003
2.618900e+003,8.381261e-003
2.620828e+003,8.446359e-003
2.622757e+003,8.573037e-003
2.624685e+003,8.634310e-003
2.626614e+003,8.583750e-003
2.628542e+003,8.576280e-003
2.630471e+003,8.680044e-003
2.632399e+003,8.691165e-003
2.634328e+003,8.717194e-003
2.636256e+003,8.770678e-003
2.638185e+003,8.756107e-003
2.640113e+003,8.754991e-003
2.642042e+003,8.801481e-003
2.643970e+003,8.865999e-003
2.645899e+003,8.854535e-003
2.647827e+003,8.910472e-003
2.649756e+003,9.011371e-003
2.651684e+003,9.027677e-003
2.653613e+003,9.034747e-003
2.655541e+003,9.019389e-003
2.657470e+003,9.031635e-003
2.659398e+003,9.072910e-003
2.661327e+003,9.088372e-003
2.663255e+003,9.102278e-003
2.665184e+003,9.094834e-003
2.667112e+003,9.106847e-003
2.669041e+003,9.127283e-003
2.670969e+003,9.136623e-003
2.672898e+003,9.114459e-003
2.674826e+003,9.095883e-003
2.676755e+003,9.090977e-003
2.678683e+003,9.089489e-003
2.680612e+003,9.082417e-003
2.682540e+003,9.103936e-003
2.684469e+003,9.151275e-003
2.686397e+003,9.161834e-003
2.688326e+003,9.118926e-003
2.690254e+003,9.116692e-003
2.692183e+003,9.154422e-003
2.694111e+003,9.106812e-003
2.696040e+003,9.040803e-003
2.697968e+003,9.008766e-003
2.699897e+003,9.049261e-003
2.701825e+003,9.104241e-003
2.703754e+003,9.101263e-003
2.705682e+003,9.102245e-003
2.707611e+003,9.147215e-003
2.709539e+003,9.132800e-003
2.711468e+003,9.081876e-003
2.713396e+003,9.114155e-003
2.715325e+003,9.167315e-003
2.717253e+003,9.145218e-003
2.719182e+003,9.111617e-003
2.721110e+003,9.091755e-003
2.723039e+003,9.122005e-003
2.724967e+003,9.096831e-003
2.726896e+003,9.114967e-003
2.728824e+003,9.121802e-003
2.730753e+003,9.121768e-003
2.732681e+003,9.131480e-003
2.734610e+003,9.154422e-003
2.736538e+003,9.165387e-003
2.738467e+003,9.151986e-003
2.740395e+003,9.172291e-003
2.742324e+003,9.168940e-003
2.744252e+003,9.167586e-003
2.746181e+003,9.201733e-003
2.748109e+003,9.219806e-003
2.750038e+003,9.207757e-003
2.751966e+003,9.199026e-003
2.753895e+003,9.181596e-003
2.755823e+003,9.196893e-003
2.757752e+003,9.230501e-003
2.759680e+003,9.254397e-003
2.761609e+003,9.292985e-003
2.763537e+003,9.291394e-003
2.765466e+003,9.253889e-003
2.767394e+003,9.265905e-003
2.769323e+003,9.317460e-003
2.771251e+003,9.286790e-003
2.773180e+003,9.297386e-003
2.775108e+003,9.315801e-003
2.777037e+003,9.276398e-003
2.778965e+003,9.280155e-003
2.780894e+003,9.321082e-003
2.782822e+003,9.341327e-003
2.784750e+003,9.330087e-003
2.786679e+003,9.359066e-003
2.788608e+003,9.421197e-003
2.790536e+003,9.390011e-003
2.792465e+003,9.405959e-003
2.794393e+003,9.437010e-003
2.796322e+003,9.387032e-003
2.798250e+003,9.444527e-003
2.800178e+003,9.475376e-003
2.802107e+003,9.468265e-003
2.804036e+003,9.459698e-003
2.805964e+003,9.472025e-003
2.807893e+003,9.556830e-003
2.809821e+003,9.564789e-003
2.811750e+003,9.576848e-003
2.813678e+003,9.639009e-003
2.815606e+003,9.598494e-003
2.817535e+003,9.631183e-003
2.819464e+003,9.663537e-003
2.821392e+003,9.664824e-003
2.823321e+003,9.708024e-003
2.825249e+003,9.744111e-003
2.827177e+003,9.801177e-003
2.829106e+003,9.834120e-003
2.831034e+003,9.850694e-003
2.832963e+003,9.877132e-003
2.834892e+003,9.911098e-003
2.836820e+003,9.915878e-003
2.838749e+003,9.959949e-003
2.840677e+003,1.000277e-002
2.842605e+003,9.983173e-003
2.844534e+003,9.929505e-003
2.846462e+003,9.891674e-003
2.848391e+003,9.780573e-003
2.850320e+003,9.744111e-003
2.852248e+003,9.823783e-003
2.854177e+003,9.878997e-003
2.856105e+003,9.996159e-003
2.858033e+003,1.015052e-002
2.859962e+003,1.021962e-002
2.861890e+003,1.024978e-002
2.863819e+003,1.031587e-002
2.865748e+003,1.039826e-002
2.867676e+003,1.049343e-002
2.869604e+003,1.055997e-002
2.871533e+003,1.059633e-002
2.873461e+003,1.063626e-002
2.875390e+003,1.061847e-002
2.877319e+003,1.064407e-002
2.879247e+003,1.067643e-002
2.881176e+003,1.067344e-002
2.883104e+003,1.066223e-002
2.885032e+003,1.062047e-002
2.886961e+003,1.066152e-002
2.888889e+003,1.068550e-002
2.890818e+003,1.067409e-002
2.892747e+003,1.068285e-002
2.894675e+003,1.066234e-002
2.896604e+003,1.058051e-002
2.898532e+003,1.054693e-002
2.900460e+003,1.048539e-002
2.902389e+003,1.042385e-002
2.904317e+003,1.034804e-002
2.906246e+003,1.032425e-002
2.908175e+003,1.031872e-002
2.910103e+003,1.022020e-002
2.912031e+003,1.008039e-002
2.913960e+003,9.924488e-003
2.915888e+003,9.738553e-003
2.917817e+003,9.686271e-003
2.919745e+003,9.638704e-003
2.921674e+003,9.593886e-003
2.923603e+003,9.579591e-003
2.925531e+003,9.492445e-003
2.927459e+003,9.436705e-003
2.929388e+003,9.467012e-003
2.931316e+003,9.556084e-003
2.933245e+003,9.652832e-003
2.935173e+003,9.715884e-003
2.937102e+003,9.713275e-003
2.939031e+003,9.690438e-003
2.940959e+003,9.724457e-003
2.942887e+003,9.716664e-003
2.944816e+003,9.649003e-003
2.946744e+003,9.624848e-003
2.948673e+003,9.531664e-003
2.950601e+003,9.450927e-003
2.952530e+003,9.419775e-003
2.954458e+003,9.363501e-003
2.956387e+003,9.284725e-003
2.958315e+003,9.296607e-003
2.960244e+003,9.239233e-003
2.962172e+003,9.301312e-003
2.964101e+003,9.284387e-003
2.966029e+003,9.214594e-003
2.967958e+003,9.202308e-003
2.969886e+003,9.276771e-003
2.971815e+003,9.260523e-003
2.973743e+003,9.200447e-003
2.975672e+003,9.171444e-003
2.977600e+003,9.185691e-003
2.979529e+003,9.230704e-003
2.981457e+003,9.192934e-003
2.983386e+003,9.165420e-003
2.985314e+003,9.079947e-003
2.987243e+003,8.985662e-003
2.989171e+003,9.056433e-003
2.991100e+003,9.139094e-003
2.993028e+003,9.189718e-003
2.994957e+003,9.165217e-003
2.996885e+003,9.114764e-003
2.998814e+003,9.165894e-003
3.000742e+003,9.217538e-003
3.002671e+003,9.196725e-003
3.004599e+003,9.215947e-003
3.006528e+003,9.241095e-003
3.008456e+003,9.183526e-003
3.010385e+003,9.150294e-003
3.012313e+003,9.201564e-003
3.014242e+003,9.242178e-003
3.016170e+003,9.253449e-003
3.018099e+003,9.265059e-003
3.020027e+003,9.277820e-003
3.021956e+003,9.287231e-003
3.023884e+003,9.311569e-003
3.025813e+003,9.291698e-003
3.027741e+003,9.290988e-003
3.029670e+003,9.367362e-003
3.031598e+003,9.397766e-003
3.033527e+003,9.385407e-003
3.035455e+003,9.401524e-003
3.037384e+003,9.453805e-003
3.039312e+003,9.419740e-003
3.041241e+003,9.433284e-003
3.043169e+003,9.513781e-003
3.045098e+003,9.497119e-003
3.047026e+003,9.485807e-003
3.048955e+003,9.564586e-003
3.050883e+003,9.587145e-003
3.052812e+003,9.604049e-003
3.054740e+003,9.687830e-003
3.056669e+003,9.679494e-003
3.058597e+003,9.686847e-003
3.060526e+003,9.713987e-003
3.062454e+003,9.717003e-003
3.064383e+003,9.731336e-003
3.066311e+003,9.736045e-003
3.068240e+003,9.738519e-003
3.070168e+003,9.780064e-003
3.072097e+003,9.805753e-003
3.074025e+003,9.809006e-003
3.075954e+003,9.846864e-003
3.077882e+003,9.940049e-003
3.079811e+003,9.928624e-003
3.081739e+003,9.864964e-003
3.083668e+003,9.941337e-003
3.085596e+003,9.912894e-003
3.087525e+003,9.895403e-003
3.089453e+003,1.001016e-002
3.091382e+003,1.007428e-002
3.093310e+003,1.012726e-002
3.095239e+003,1.012539e-002
3.097167e+003,1.009338e-002
3.099096e+003,1.013465e-002
3.101024e+003,1.010911e-002
3.102953e+003,1.008934e-002
3.104881e+003,1.011237e-002
3.106810e+003,1.015738e-002
3.108738e+003,1.017461e-002
3.110667e+003,1.016748e-002
3.112595e+003,1.022579e-002
3.114524e+003,1.027434e-002
3.116452e+003,1.029280e-002
3.118381e+003,1.030267e-002
3.120309e+003,1.039096e-002
3.122238e+003,1.045698e-002
3.124166e+003,1.045691e-002
3.126095e+003,1.046695e-002
3.128023e+003,1.042809e-002
3.129952e+003,1.044153e-002
3.131880e+003,1.048824e-002
3.133809e+003,1.052442e-002
3.135737e+003,1.054432e-002
3.137666e+003,1.065038e-002
3.139594e+003,1.069854e-002
3.141523e+003,1.070720e-002
3.143451e+003,1.074286e-002
3.145380e+003,1.076578e-002
3.147308e+003,1.080991e-002
3.149237e+003,1.088458e-002
3.151165e+003,1.091716e-002
3.153094e+003,1.093024e-002
3.155022e+003,1.096562e-002
3.156951e+003,1.102349e-002
3.158879e+003,1.104602e-002
3.160808e+003,1.104266e-002
3.162736e+003,1.109147e-002
3.164665e+003,1.113630e-002
3.166593e+003,1.114820e-002
3.168522e+003,1.115391e-002
3.170450e+003,1.119539e-002
3.172379e+003,1.126258e-002
3.174307e+003,1.132233e-002
3.176236e+003,1.140049e-002
3.178164e+003,1.141998e-002
3.180093e+003,1.144519e-002
3.182021e+003,1.147414e-002
3.183950e+003,1.153790e-002
3.185878e+003,1.157247e-002
3.187807e+003,1.164169e-002
3.189735e+003,1.173873e-002
3.191664e+003,1.175609e-002
3.193592e+003,1.178074e-002
3.195521e+003,1.180468e-002
3.197449e+003,1.188854e-002
3.199378e+003,1.200819e-002
3.201306e+003,1.210078e-002
3.203235e+003,1.210170e-002
3.205163e+003,1.207908e-002
3.207092e+003,1.212535e-002
3.209020e+003,1.226135e-002
3.210948e+003,1.231964e-002
3.212877e+003,1.231694e-002
3.214806e+003,1.238816e-002
3.216734e+003,1.247026e-002
3.218663e+003,1.250845e-002
3.220591e+003,1.255408e-002
3.222520e+003,1.261715e-002
3.224448e+003,1.268534e-002
3.226376e+003,1.267797e-002
3.228305e+003,1.270953e-002
3.230234e+003,1.276999e-002
3.232162e+003,1.284343e-002
3.234091e+003,1.289644e-002
3.236019e+003,1.295501e-002
3.237948e+003,1.302981e-002
3.239876e+003,1.310815e-002
3.241804e+003,1.313646e-002
3.243733e+003,1.319069e-002
3.245662e+003,1.327076e-002
3.247590e+003,1.335631e-002
3.249519e+003,1.348252e-002
3.251447e+003,1.352910e-002
3.253375e+003,1.355813e-002
3.255304e+003,1.359156e-002
3.257232e+003,1.360469e-002
3.259161e+003,1.368651e-002
3.261090e+003,1.381397e-002
3.263018e+003,1.390620e-002
3.264947e+003,1.386008e-002
3.266875e+003,1.387356e-002
3.268803e+003,1.398222e-002
3.270732e+003,1.400515e-002
3.272660e+003,1.405864e-002
3.274589e+003,1.408198e-002
3.276518e+003,1.419833e-002
3.278446e+003,1.423404e-002
3.280375e+003,1.423818e-002
3.282303e+003,1.424226e-002
3.284231e+003,1.426167e-002
3.286160e+003,1.431574e-002
3.288088e+003,1.432663e-002
3.290017e+003,1.432862e-002
3.291946e+003,1.432910e-002
3.293874e+003,1.433588e-002
3.295802e+003,1.442866e-002
3.297731e+003,1.441167e-002
3.299659e+003,1.434783e-002
3.301588e+003,1.434861e-002
3.303516e+003,1.437506e-002
3.305445e+003,1.444109e-002
3.307374e+003,1.436574e-002
3.309302e+003,1.433940e-002
3.311230e+003,1.443664e-002
3.313159e+003,1.446658e-002
3.315087e+003,1.437718e-002
3.317016e+003,1.441215e-002
3.318944e+003,1.447226e-002
3.320873e+003,1.443027e-002
3.322802e+003,1.444551e-002
3.324730e+003,1.452283e-002
3.326658e+003,1.458666e-002
3.328587e+003,1.460263e-002
3.330515e+003,1.462261e-002
3.332444e+003,1.455651e-002
3.334372e+003,1.454788e-002
3.336301e+003,1.461312e-002
3.338229e+003,1.453383e-002
3.340158e+003,1.447631e-002
3.342086e+003,1.451886e-002
3.344015e+003,1.452722e-002
3.345943e+003,1.442876e-002
3.347872e+003,1.434731e-002
3.349800e+003,1.429273e-002
3.351729e+003,1.431434e-002
3.353657e+003,1.434029e-002
3.355586e+003,1.438999e-002
3.357514e+003,1.430430e-002
3.359443e+003,1.418542e-002
3.361371e+003,1.411022e-002
3.363300e+003,1.407801e-002
3.365229e+003,1.404539e-002
3.367157e+003,1.403448e-002
3.369085e+003,1.394763e-002
3.371014e+003,1.388105e-002
3.372942e+003,1.386730e-002
3.374871e+003,1.383857e-002
3.376799e+003,1.387979e-002
3.378728e+003,1.375610e-002
3.380656e+003,1.365868e-002
3.382585e+003,1.366510e-002
3.384513e+003,1.363573e-002
3.386442e+003,1.363949e-002
3.388370e+003,1.359566e-002
3.390299e+003,1.351167e-002
3.392227e+003,1.349444e-002
3.394156e+003,1.336366e-002
3.396084e+003,1.328156e-002
3.398013e+003,1.334015e-002
3.399941e+003,1.330216e-002
3.401870e+003,1.327889e-002
3.403798e+003,1.333021e-002
3.405727e+003,1.318564e-002
3.407655e+003,1.303644e-002
3.409584e+003,1.304873e-002
3.411512e+003,1.298220e-002
3.413441e+003,1.289980e-002
3.415369e+003,1.285708e-002
3.417298e+003,1.283026e-002
3.419226e+003,1.276116e-002
3.421155e+003,1.262536e-002
3.423083e+003,1.262388e-002
3.425012e+003,1.256045e-002
3.426940e+003,1.245657e-002
3.428869e+003,1.235620e-002
3.430797e+003,1.221796e-002
3.432726e+003,1.214563e-002
3.434654e+003,1.218901e-002
3.436583e+003,1.216855e-002
3.438511e+003,1.201067e-002
3.440440e+003,1.190436e-002
3.442368e+003,1.181376e-002
3.444297e+003,1.158910e-002
3.446225e+003,1.151785e-002
3.448154e+003,1.151865e-002
3.450082e+003,1.145180e-002
3.452011e+003,1.131457e-002
3.453939e+003,1.130756e-002
3.455868e+003,1.120223e-002
3.457796e+003,1.107018e-002
3.459725e+003,1.093497e-002
3.461653e+003,1.088957e-002
3.463582e+003,1.084260e-002
3.465510e+003,1.068514e-002
3.467439e+003,1.054016e-002
3.469367e+003,1.055782e-002
3.471296e+003,1.048532e-002
3.473224e+003,1.034694e-002
3.475153e+003,1.028045e-002
3.477081e+003,1.019694e-002
3.479010e+003,1.009836e-002
3.480938e+003,9.966370e-003
3.482867e+003,9.959815e-003
3.484795e+003,9.974597e-003
3.486724e+003,9.837402e-003
3.488652e+003,9.796367e-003
3.490581e+003,9.794926e-003
3.492509e+003,9.702749e-003
3.494438e+003,9.616151e-003
3.496366e+003,9.538901e-003
3.498295e+003,9.531118e-003
3.500223e+003,9.401683e-003
3.502152e+003,9.350628e-003
3.504080e+003,9.301950e-003
3.506009e+003,9.226581e-003
3.507937e+003,9.150729e-003
3.509866e+003,9.113812e-003
3.511794e+003,9.129769e-003
3.513723e+003,9.047341e-003
3.515651e+003,8.898322e-003
3.517580e+003,8.738746e-003
3.519508e+003,8.706819e-003
3.521437e+003,8.689896e-003
3.523365e+003,8.658800e-003
3.525294e+003,8.697947e-003
3.527222e+003,8.632085e-003
3.529151e+003,8.497693e-003
3.531079e+003,8.376150e-003
3.533008e+003,8.245059e-003
3.534936e+003,8.225527e-003
3.536865e+003,8.231081e-003
3.538793e+003,8.251926e-003
3.540722e+003,8.254446e-003
3.542650e+003,8.174846e-003
3.544579e+003,8.070570e-003
3.546507e+003,8.021677e-003
3.548436e+003,7.981641e-003
3.550364e+003,7.899596e-003
3.552293e+003,7.839638e-003
3.554221e+003,7.724258e-003
3.556150e+003,7.577573e-003
3.558078e+003,7.559774e-003
3.560007e+003,7.447916e-003
3.561935e+003,7.437443e-003
3.563864e+003,7.485118e-003
3.565792e+003,7.445836e-003
3.567721e+003,7.427904e-003
3.569649e+003,7.353696e-003
3.571578e+003,7.279933e-003
3.573506e+003,7.215355e-003
3.575435e+003,7.125869e-003
3.577363e+003,7.041010e-003
3.579292e+003,6.903978e-003
3.581220e+003,6.833171e-003
3.583149e+003,6.659805e-003
3.585077e+003,6.499840e-003
3.587006e+003,6.446909e-003
3.588934e+003,6.265995e-003
3.590863e+003,6.152400e-003
3.592791e+003,6.042806e-003
3.594720e+003,5.958144e-003
3.596648e+003,6.021271e-003
3.598577e+003,5.974317e-003
3.600505e+003,5.871331e-003
3.602434e+003,6.012395e-003
3.604362e+003,6.127976e-003
3.606291e+003,6.044741e-003
3.608219e+003,6.122497e-003
3.610148e+003,6.381557e-003
3.612076e+003,6.454808e-003
3.614005e+003,6.306536e-003
3.615933e+003,6.109870e-003
3.617862e+003,5.934772e-003
3.619790e+003,5.612819e-003
3.621719e+003,5.503957e-003
3.623647e+003,5.492284e-003
3.625576e+003,5.339846e-003
3.627504e+003,5.269495e-003
3.629433e+003,5.386164e-003
3.631361e+003,5.590783e-003
3.633290e+003,5.666402e-003
3.635218e+003,5.767517e-003
3.637146e+003,5.979137e-003
3.639075e+003,6.028355e-003
3.641004e+003,6.127554e-003
3.642932e+003,6.187449e-003
3.644861e+003,6.165856e-003
3.646789e+003,6.244433e-003
3.648718e+003,6.240830e-003
3.650646e+003,6.220025e-003
3.652574e+003,6.208489e-003
3.654503e+003,6.251551e-003
3.656432e+003,6.223377e-003
3.658360e+003,6.164542e-003
3.660289e+003,6.084447e-003
3.662217e+003,6.222957e-003
3.664146e+003,6.232684e-003
3.666074e+003,6.153677e-003
3.668002e+003,6.275394e-003
3.669931e+003,6.281868e-003
3.671860e+003,6.207419e-003
3.673788e+003,6.193514e-003
3.675717e+003,6.160717e-003
3.677645e+003,6.002365e-003
3.679573e+003,5.912731e-003
3.681502e+003,5.889377e-003
3.683430e+003,5.780627e-003
3.685359e+003,5.751532e-003
3.687288e+003,5.733352e-003
3.689216e+003,5.566269e-003
3.691145e+003,5.382587e-003
3.693073e+003,5.293845e-003
3.695001e+003,5.283441e-003
3.696930e+003,5.150564e-003
3.698858e+003,4.976773e-003
3.700787e+003,4.998683e-003
3.702716e+003,4.939318e-003
3.704644e+003,4.941943e-003
3.706573e+003,5.120286e-003
3.708501e+003,5.313556e-003
3.710429e+003,5.500712e-003
3.712358e+003,5.691194e-003
3.714286e+003,5.838031e-003
3.716215e+003,5.707177e-003
3.718144e+003,5.347337e-003
3.720072e+003,5.146418e-003
3.722000e+003,4.958524e-003
3.723929e+003,4.709403e-003
3.725857e+003,4.526435e-003
3.727786e+003,4.519859e-003
3.729714e+003,4.646047e-003
3.731643e+003,4.803906e-003
3.733572e+003,4.946572e-003
3.735500e+003,5.133033e-003
3.737428e+003,5.347366e-003
3.739357e+003,5.680752e-003
3.741285e+003,5.874756e-003
3.743214e+003,6.075390e-003
3.745142e+003,6.166078e-003
3.747071e+003,6.284567e-003
3.749000e+003,6.314103e-003
3.750928e+003,6.280180e-003
3.752856e+003,6.362206e-003
3.754785e+003,6.395458e-003
3.756713e+003,6.289030e-003
3.758642e+003,6.256324e-003
3.760570e+003,6.312323e-003
3.762499e+003,6.356418e-003
3.764427e+003,6.316931e-003
3.766356e+003,6.352078e-003
3.768284e+003,6.431661e-003
3.770213e+003,6.351829e-003
3.772141e+003,6.300109e-003
3.774070e+003,6.352105e-003
3.775998e+003,6.392895e-003
3.777927e+003,6.393760e-003
3.779855e+003,6.369836e-003
3.781784e+003,6.351655e-003
3.783712e+003,6.280003e-003
3.785641e+003,6.355771e-003
3.787569e+003,6.445671e-003
3.789498e+003,6.399896e-003
3.791426e+003,6.442854e-003
3.793355e+003,6.454087e-003
3.795283e+003,6.493284e-003
3.797212e+003,6.443455e-003
3.799140e+003,6.415327e-003
3.801069e+003,6.482909e-003
3.802997e+003,6.521889e-003
3.804926e+003,6.495218e-003
3.806854e+003,6.446659e-003
3.808783e+003,6.441799e-003
3.810711e+003,6.471902e-003
3.812640e+003,6.472081e-003
3.814568e+003,6.440652e-003
3.816497e+003,6.460676e-003
3.818425e+003,6.507873e-003
3.820354e+003,6.523833e-003
3.822282e+003,6.482669e-003
3.824211e+003,6.445917e-003
3.826139e+003,6.394777e-003
3.828068e+003,6.392475e-003
3.829996e+003,6.452873e-003
3.831925e+003,6.454556e-003
3.833853e+003,6.472583e-003
3.835782e+003,6.516266e-003
3.837710e+003,6.482601e-003
3.839639e+003,6.456756e-003
3.841567e+003,6.447493e-003
3.843496e+003,6.502211e-003
3.845424e+003,6.556241e-003
3.847353e+003,6.513606e-003
3.849281e+003,6.513822e-003
3.851210e+003,6.522077e-003
3.853138e+003,6.458188e-003
3.855067e+003,6.462235e-003
3.856995e+003,6.456099e-003
3.858924e+003,6.476139e-003
3.860852e+003,6.536635e-003
3.862781e+003,6.613583e-003
3.864709e+003,6.536618e-003
3.866638e+003,6.444772e-003
3.868566e+003,6.517305e-003
3.870495e+003,6.445728e-003
3.872423e+003,6.459394e-003
3.874352e+003,6.450223e-003
3.876280e+003,6.417404e-003
3.878209e+003,6.552701e-003
3.880137e+003,6.612646e-003
3.882066e+003,6.589937e-003
3.883994e+003,6.606052e-003
3.885923e+003,6.586196e-003
3.887851e+003,6.479139e-003
3.889780e+003,6.430086e-003
3.891708e+003,6.447004e-003
3.893637e+003,6.494157e-003
3.895565e+003,6.541450e-003
3.897494e+003,6.533898e-003
3.899422e+003,6.569628e-003
3.901351e+003,6.579916e-003
3.903279e+003,6.507030e-003
3.905208e+003,6.515780e-003
3.907136e+003,6.564296e-003
3.909065e+003,6.495332e-003
3.910993e+003,6.468683e-003
3.912922e+003,6.493926e-003
3.914850e+003,6.494961e-003
3.916779e+003,6.492982e-003
3.918707e+003,6.504041e-003
3.920636e+003,6.546305e-003
3.922564e+003,6.589273e-003
3.924493e+003,6.536196e-003
3.926421e+003,6.518115e-003
3.928350e+003,6.511604e-003
3.930278e+003,6.474483e-003
3.932207e+003,6.463249e-003
3.934135e+003,6.428791e-003
3.936064e+003,6.472297e-003
3.937992e+003,6.484242e-003
3.939921e+003,6.466639e-003
3.941849e+003,6.536759e-003
3.943778e+003,6.586296e-003
3.945706e+003,6.528449e-003
3.947635e+003,6.538040e-003
3.949563e+003,6.570132e-003
3.951492e+003,6.442511e-003
3.953420e+003,6.366126e-003
3.955349e+003,6.439132e-003
3.957277e+003,6.474048e-003
3.959206e+003,6.487940e-003
3.961134e+003,6.406090e-003
3.963063e+003,6.436509e-003
3.964991e+003,6.565105e-003
3.966920e+003,6.553939e-003
3.968848e+003,6.515217e-003
3.970777e+003,6.492460e-003
3.972705e+003,6.578835e-003
3.974634e+003,6.551370e-003
3.976562e+003,6.476286e-003
3.978491e+003,6.434218e-003
3.980419e+003,6.503211e-003
3.982348e+003,6.497233e-003
3.984276e+003,6.483935e-003
3.986205e+003,6.501179e-003
3.988133e+003,6.505260e-003
3.990062e+003,6.457431e-003
3.991990e+003,6.480537e-003
3.993919e+003,6.534236e-003
3.995847e+003,6.464869e-003
3.997776e+003,6.484528e-003
3.999704e+003,6.484961e-003
4.001633e+003,0.000000e+000
