3.991989e+002,3.231068e-002
4.011274e+002,3.193570e-002
4.030559e+002,3.193570e-002
4.049844e+002,3.149899e-002
4.069129e+002,3.064799e-002
4.088414e+002,3.074209e-002
4.107699e+002,3.056761e-002
4.126984e+002,3.116378e-002
4.146269e+002,3.226425e-002
4.165554e+002,3.359339e-002
4.184839e+002,3.259405e-002
4.204124e+002,3.115624e-002
4.223409e+002,3.096141e-002
4.242694e+002,3.050088e-002
4.261979e+002,3.029746e-002
4.281264e+002,3.065654e-002
4.300549e+002,3.133273e-002
4.319834e+002,3.119103e-002
4.339119e+002,3.034396e-002
4.358404e+002,3.019071e-002
4.377689e+002,3.062911e-002
4.396974e+002,3.060588e-002
4.416259e+002,3.056131e-002
4.435544e+002,3.027017e-002
4.454829e+002,3.079971e-002
4.474114e+002,3.081589e-002
4.493399e+002,3.011176e-002
4.512684e+002,3.024057e-002
4.531969e+002,3.002436e-002
4.551254e+002,2.999853e-002
4.570539e+002,2.981419e-002
4.589824e+002,3.002951e-002
4.609109e+002,3.080373e-002
4.628394e+002,3.090212e-002
4.647679e+002,3.024713e-002
4.666964e+002,2.967277e-002
4.686249e+002,2.914732e-002
4.705533e+002,2.941591e-002
4.724819e+002,3.002172e-002
4.744103e+002,3.001459e-002
4.763389e+002,2.951683e-002
4.782673e+002,2.928424e-002
4.801959e+002,2.899074e-002
4.821243e+002,2.857080e-002
4.840529e+002,2.859207e-002
4.859813e+002,2.889669e-002
4.879099e+002,2.865844e-002
4.898383e+002,2.884943e-002
4.917668e+002,2.880732e-002
4.936953e+002,2.860222e-002
4.956238e+002,2.852337e-002
4.975523e+002,2.877504e-002
4.994808e+002,2.827230e-002
5.014093e+002,2.815907e-002
5.033378e+002,2.773868e-002
5.052663e+002,2.793133e-002
5.071948e+002,2.807696e-002
5.091233e+002,2.844302e-002
5.110518e+002,2.842028e-002
5.129803e+002,2.881037e-002
5.149088e+002,2.856796e-002
5.168373e+002,2.887172e-002
5.187658e+002,2.876481e-002
5.206943e+002,2.897043e-002
5.226228e+002,2.876330e-002
5.245513e+002,2.873421e-002
5.264798e+002,2.864458e-002
5.284083e+002,2.915826e-002
5.303368e+002,2.923572e-002
5.322653e+002,2.885480e-002
5.341938e+002,2.839206e-002
5.361223e+002,2.807771e-002
5.380508e+002,2.800202e-002
5.399792e+002,2.834185e-002
5.419078e+002,2.868206e-002
5.438363e+002,2.857793e-002
5.457648e+002,2.812226e-002
5.476932e+002,2.794605e-002
5.496218e+002,2.816185e-002
5.515503e+002,2.845002e-002
5.534788e+002,2.859001e-002
5.554072e+002,2.883074e-002
5.573358e+002,2.914996e-002
5.592643e+002,2.929482e-002
5.611927e+002,2.868146e-002
5.631212e+002,2.855265e-002
5.650497e+002,2.852408e-002
5.669783e+002,2.836869e-002
5.689067e+002,2.784576e-002
5.708352e+002,2.762101e-002
5.727637e+002,2.771616e-002
5.746923e+002,2.772177e-002
5.766207e+002,2.731394e-002
5.785492e+002,2.729616e-002
5.804777e+002,2.762715e-002
5.824063e+002,2.758238e-002
5.843347e+002,2.739222e-002
5.862632e+002,2.720016e-002
5.881917e+002,2.716636e-002
5.901202e+002,2.735362e-002
5.920487e+002,2.739695e-002
5.939772e+002,2.740132e-002
5.959057e+002,2.707674e-002
5.978342e+002,2.721222e-002
5.997627e+002,2.682376e-002
6.016912e+002,2.661322e-002
6.036197e+002,2.634030e-002
6.055482e+002,2.643195e-002
6.074767e+002,2.641169e-002
6.094052e+002,2.629539e-002
6.113337e+002,2.597637e-002
6.132622e+002,2.591106e-002
6.151907e+002,2.593413e-002
6.171192e+002,2.592544e-002
6.190477e+002,2.541014e-002
6.209762e+002,2.506677e-002
6.229047e+002,2.484440e-002
6.248332e+002,2.468151e-002
6.267617e+002,2.446412e-002
6.286902e+002,2.423708e-002
6.306187e+002,2.411622e-002
6.325472e+002,2.407900e-002
6.344756e+002,2.383873e-002
6.364042e+002,2.385126e-002
6.383326e+002,2.378154e-002
6.402612e+002,2.357527e-002
6.421896e+002,2.345697e-002
6.441182e+002,2.313618e-002
6.460466e+002,2.293966e-002
6.479752e+002,2.294530e-002
6.499036e+002,2.281206e-002
6.518322e+002,2.266625e-002
6.537606e+002,2.271276e-002
6.556891e+002,2.278090e-002
6.576177e+002,2.280356e-002
6.595461e+002,2.280449e-002
6.614746e+002,2.279611e-002
6.634031e+002,2.294479e-002
6.653317e+002,2.307933e-002
6.672601e+002,2.282414e-002
6.691886e+002,2.258812e-002
6.711171e+002,2.239895e-002
6.730457e+002,2.201528e-002
6.749741e+002,2.154635e-002
6.769026e+002,2.116719e-002
6.788311e+002,2.102019e-002
6.807596e+002,2.074215e-002
6.826881e+002,2.042996e-002
6.846166e+002,2.014220e-002
6.865451e+002,2.003793e-002
6.884736e+002,1.984341e-002
6.904021e+002,1.980581e-002
6.923306e+002,1.981479e-002
6.942591e+002,1.987019e-002
6.961876e+002,1.982243e-002
6.981161e+002,1.982118e-002
7.000446e+002,1.975958e-002
7.019731e+002,1.947481e-002
7.039016e+002,1.931041e-002
7.058301e+002,1.935838e-002
7.077585e+002,1.933707e-002
7.096871e+002,1.930648e-002
7.116156e+002,1.914830e-002
7.135441e+002,1.889065e-002
7.154725e+002,1.872583e-002
7.174011e+002,1.883087e-002
7.193296e+002,1.888253e-002
7.212581e+002,1.863579e-002
7.231865e+002,1.835324e-002
7.251151e+002,1.828555e-002
7.270436e+002,1.807504e-002
7.289720e+002,1.798123e-002
7.309005e+002,1.780404e-002
7.328290e+002,1.747294e-002
7.347576e+002,1.724895e-002
7.366860e+002,1.729899e-002
7.386145e+002,1.728694e-002
7.405430e+002,1.722803e-002
7.424716e+002,1.700888e-002
7.444000e+002,1.682051e-002
7.463285e+002,1.668612e-002
7.482570e+002,1.651491e-002
7.501855e+002,1.639809e-002
7.521140e+002,1.633273e-002
7.540425e+002,1.627244e-002
7.559710e+002,1.634364e-002
7.578995e+002,1.622853e-002
7.598280e+002,1.597356e-002
7.617565e+002,1.590509e-002
7.636850e+002,1.596912e-002
7.656135e+002,1.598545e-002
7.675420e+002,1.597889e-002
7.694705e+002,1.580560e-002
7.713990e+002,1.576663e-002
7.733275e+002,1.575131e-002
7.752560e+002,1.571369e-002
7.771844e+002,1.567188e-002
7.791130e+002,1.562139e-002
7.810415e+002,1.554288e-002
7.829700e+002,1.562492e-002
7.848984e+002,1.565178e-002
7.868270e+002,1.554435e-002
7.887555e+002,1.541209e-002
7.906840e+002,1.535771e-002
7.926124e+002,1.534089e-002
7.945410e+002,1.535012e-002
7.964695e+002,1.521027e-002
7.983979e+002,1.518011e-002
8.003264e+002,1.519404e-002
8.022549e+002,1.521617e-002
8.041835e+002,1.521106e-002
8.061119e+002,1.516072e-002
8.080404e+002,1.512922e-002
8.099689e+002,1.507759e-002
8.118975e+002,1.490785e-002
8.138259e+002,1.484068e-002
8.157545e+002,1.481490e-002
8.176830e+002,1.487987e-002
8.196115e+002,1.480928e-002
8.215399e+002,1.470884e-002
8.234684e+002,1.461562e-002
8.253970e+002,1.460654e-002
8.273254e+002,1.468228e-002
8.292539e+002,1.477325e-002
8.311824e+002,1.465277e-002
8.331110e+002,1.458516e-002
8.350394e+002,1.454589e-002
8.369679e+002,1.455898e-002
8.388964e+002,1.461634e-002
8.408250e+002,1.464711e-002
8.427534e+002,1.448292e-002
8.446819e+002,1.443335e-002
8.466104e+002,1.446833e-002
8.485389e+002,1.446264e-002
8.504674e+002,1.444572e-002
8.523959e+002,1.450412e-002
8.543244e+002,1.449570e-002
8.562529e+002,1.446014e-002
8.581814e+002,1.442325e-002
8.601099e+002,1.448165e-002
8.620384e+002,1.457142e-002
8.639669e+002,1.461925e-002
8.658954e+002,1.456035e-002
8.678239e+002,1.454455e-002
8.697524e+002,1.459328e-002
8.716809e+002,1.460294e-002
8.736094e+002,1.469016e-002
8.755378e+002,1.482422e-002
8.774664e+002,1.484637e-002
8.793949e+002,1.486636e-002
8.813234e+002,1.495511e-002
8.832518e+002,1.515780e-002
8.851804e+002,1.531240e-002
8.871089e+002,1.541840e-002
8.890374e+002,1.556623e-002
8.909658e+002,1.580422e-002
8.928943e+002,1.601801e-002
8.948229e+002,1.616848e-002
8.967513e+002,1.633537e-002
8.986798e+002,1.640615e-002
9.006083e+002,1.620397e-002
9.025369e+002,1.599436e-002
9.044653e+002,1.581615e-002
9.063938e+002,1.571850e-002
9.083223e+002,1.558367e-002
9.102509e+002,1.551252e-002
9.121793e+002,1.556242e-002
9.141078e+002,1.555661e-002
9.160364e+002,1.546287e-002
9.179648e+002,1.541453e-002
9.198933e+002,1.545425e-002
9.218218e+002,1.554971e-002
9.237504e+002,1.560215e-002
9.256788e+002,1.578257e-002
9.276073e+002,1.587587e-002
9.295358e+002,1.592457e-002
9.314644e+002,1.601766e-002
9.333928e+002,1.620868e-002
9.353213e+002,1.640270e-002
9.372498e+002,1.653372e-002
9.391783e+002,1.662673e-002
9.411068e+002,1.696566e-002
9.430353e+002,1.725155e-002
9.449637e+002,1.749372e-002
9.468923e+002,1.781579e-002
9.488208e+002,1.815015e-002
9.507493e+002,1.841041e-002
9.526777e+002,1.874275e-002
9.546063e+002,1.905934e-002
9.565348e+002,1.934651e-002
9.584633e+002,1.973219e-002
9.603917e+002,2.013675e-002
9.623203e+002,2.045599e-002
9.642488e+002,2.068636e-002
9.661772e+002,2.094836e-002
9.681057e+002,2.131017e-002
9.700343e+002,2.159360e-002
9.719628e+002,2.195121e-002
9.738912e+002,2.232408e-002
9.758197e+002,2.276182e-002
9.777483e+002,2.322007e-002
9.796768e+002,2.378035e-002
9.816052e+002,2.435534e-002
9.835337e+002,2.500360e-002
9.854623e+002,2.556233e-002
9.873907e+002,2.606538e-002
9.893192e+002,2.647430e-002
9.912477e+002,2.668251e-002
9.931763e+002,2.672568e-002
9.951047e+002,2.687458e-002
9.970332e+002,2.705520e-002
9.989617e+002,2.725346e-002
1.000890e+003,2.750035e-002
1.002819e+003,2.783784e-002
1.004747e+003,2.810730e-002
1.006676e+003,2.833313e-002
1.008604e+003,2.858885e-002
1.010533e+003,2.891483e-002
1.012461e+003,2.928103e-002
1.014390e+003,2.957072e-002
1.016318e+003,2.995164e-002
1.018247e+003,3.043140e-002
1.020175e+003,3.091180e-002
1.022104e+003,3.134105e-002
1.024032e+003,3.174050e-002
1.025961e+003,3.218159e-002
1.027889e+003,3.261132e-002
1.029818e+003,3.301229e-002
1.031746e+003,3.336043e-002
1.033675e+003,3.365854e-002
1.035603e+003,3.369474e-002
1.037532e+003,3.349015e-002
1.039460e+003,3.313558e-002
1.041389e+003,3.272799e-002
1.043317e+003,3.246797e-002
1.045246e+003,3.232299e-002
1.047174e+003,3.213849e-002
1.049103e+003,3.198842e-002
1.051031e+003,3.189591e-002
1.052960e+003,3.179286e-002
1.054888e+003,3.155272e-002
1.056817e+003,3.117818e-002
1.058745e+003,3.073191e-002
1.060674e+003,3.029747e-002
1.062602e+003,2.982027e-002
1.064531e+003,2.928763e-002
1.066459e+003,2.873329e-002
1.068388e+003,2.817387e-002
1.070316e+003,2.765104e-002
1.072245e+003,2.730229e-002
1.074173e+003,2.690299e-002
1.076102e+003,2.643109e-002
1.078030e+003,2.601148e-002
1.079959e+003,2.559632e-002
1.081887e+003,2.519626e-002
1.083816e+003,2.489362e-002
1.085744e+003,2.464260e-002
1.087673e+003,2.444794e-002
1.089601e+003,2.425835e-002
1.091530e+003,2.407977e-002
1.093458e+003,2.396484e-002
1.095387e+003,2.385977e-002
1.097315e+003,2.377034e-002
1.099244e+003,2.371442e-002
1.101172e+003,2.368824e-002
1.103101e+003,2.357359e-002
1.105029e+003,2.343215e-002
1.106958e+003,2.313248e-002
1.108886e+003,2.273755e-002
1.110815e+003,2.230098e-002
1.112743e+003,2.181740e-002
1.114672e+003,2.118640e-002
1.116600e+003,2.061016e-002
1.118529e+003,2.014404e-002
1.120457e+003,1.969960e-002
1.122386e+003,1.929042e-002
1.124314e+003,1.886817e-002
1.126243e+003,1.842051e-002
1.128171e+003,1.794291e-002
1.130100e+003,1.745639e-002
1.132028e+003,1.707328e-002
1.133957e+003,1.677369e-002
1.135885e+003,1.645504e-002
1.137814e+003,1.619458e-002
1.139742e+003,1.607659e-002
1.141671e+003,1.612855e-002
1.143599e+003,1.620754e-002
1.145528e+003,1.631717e-002
1.147456e+003,1.645267e-002
1.149385e+003,1.662009e-002
1.151313e+003,1.677734e-002
1.153242e+003,1.697900e-002
1.155170e+003,1.719036e-002
1.157099e+003,1.728572e-002
1.159027e+003,1.732275e-002
1.160956e+003,1.729041e-002
1.162884e+003,1.716565e-002
1.164813e+003,1.682990e-002
1.166741e+003,1.640353e-002
1.168670e+003,1.587708e-002
1.170598e+003,1.530653e-002
1.172526e+003,1.479207e-002
1.174455e+003,1.433540e-002
1.176384e+003,1.387842e-002
1.178312e+003,1.349660e-002
1.180240e+003,1.319592e-002
1.182169e+003,1.291951e-002
1.184098e+003,1.271199e-002
1.186026e+003,1.254714e-002
1.187954e+003,1.245918e-002
1.189883e+003,1.242837e-002
1.191812e+003,1.250224e-002
1.193740e+003,1.259996e-002
1.195668e+003,1.265623e-002
1.197597e+003,1.270314e-002
1.199526e+003,1.283727e-002
1.201454e+003,1.295220e-002
1.203382e+003,1.292097e-002
1.205311e+003,1.287879e-002
1.207240e+003,1.287666e-002
1.209168e+003,1.283126e-002
1.211096e+003,1.277619e-002
1.213025e+003,1.280760e-002
1.214953e+003,1.282782e-002
1.216882e+003,1.286831e-002
1.218810e+003,1.299740e-002
1.220739e+003,1.308500e-002
1.222667e+003,1.315374e-002
1.224596e+003,1.326801e-002
1.226524e+003,1.339191e-002
1.228453e+003,1.352391e-002
1.230381e+003,1.361857e-002
1.232310e+003,1.371950e-002
1.234238e+003,1.381680e-002
1.236167e+003,1.387604e-002
1.238095e+003,1.389048e-002
1.240024e+003,1.390507e-002
1.241952e+003,1.388112e-002
1.243881e+003,1.388876e-002
1.245809e+003,1.389088e-002
1.247738e+003,1.385180e-002
1.249666e+003,1.376475e-002
1.251595e+003,1.369635e-002
1.253523e+003,1.361105e-002
1.255452e+003,1.351647e-002
1.257380e+003,1.345627e-002
1.259309e+003,1.333124e-002
1.261237e+003,1.317263e-002
1.263166e+003,1.306416e-002
1.265094e+003,1.293001e-002
1.267023e+003,1.280493e-002
1.268951e+003,1.271569e-002
1.270880e+003,1.261862e-002
1.272808e+003,1.250818e-002
1.274737e+003,1.243173e-002
1.276665e+003,1.235111e-002
1.278594e+003,1.225971e-002
1.280522e+003,1.220992e-002
1.282451e+003,1.218141e-002
1.284379e+003,1.212324e-002
1.286308e+003,1.206688e-002
1.288236e+003,1.202143e-002
1.290165e+003,1.199696e-002
1.292093e+003,1.201830e-002
1.294022e+003,1.206886e-002
1.295950e+003,1.209882e-002
1.297879e+003,1.215083e-002
1.299807e+003,1.219996e-002
1.301736e+003,1.233070e-002
1.303664e+003,1.245736e-002
1.305593e+003,1.255016e-002
1.307521e+003,1.266474e-002
1.309450e+003,1.279119e-002
1.311378e+003,1.288687e-002
1.313307e+003,1.297118e-002
1.315235e+003,1.301277e-002
1.317164e+003,1.301118e-002
1.319092e+003,1.298942e-002
1.321021e+003,1.289656e-002
1.322949e+003,1.278254e-002
1.324878e+003,1.269983e-002
1.326806e+003,1.262710e-002
1.328735e+003,1.259652e-002
1.330663e+003,1.259226e-002
1.332592e+003,1.255880e-002
1.334520e+003,1.253663e-002
1.336449e+003,1.250954e-002
1.338377e+003,1.246737e-002
1.340306e+003,1.243512e-002
1.342234e+003,1.239666e-002
1.344163e+003,1.233220e-002
1.346091e+003,1.229015e-002
1.348020e+003,1.233612e-002
1.349948e+003,1.238125e-002
1.351877e+003,1.246440e-002
1.353805e+003,1.255154e-002
1.355734e+003,1.259657e-002
1.357662e+003,1.264034e-002
1.359591e+003,1.271794e-002
1.361519e+003,1.278829e-002
1.363448e+003,1.286617e-002
1.365376e+003,1.296098e-002
1.367305e+003,1.299270e-002
1.369233e+003,1.297819e-002
1.371162e+003,1.291428e-002
1.373090e+003,1.285051e-002
1.375019e+003,1.277250e-002
1.376947e+003,1.270195e-002
1.378876e+003,1.260563e-002
1.380804e+003,1.247561e-002
1.382733e+003,1.231021e-002
1.384661e+003,1.215777e-002
1.386590e+003,1.203742e-002
1.388518e+003,1.194946e-002
1.390447e+003,1.187035e-002
1.392375e+003,1.183112e-002
1.394304e+003,1.179029e-002
1.396232e+003,1.177674e-002
1.398161e+003,1.180079e-002
1.400089e+003,1.182001e-002
1.402018e+003,1.180522e-002
1.403946e+003,1.182269e-002
1.405875e+003,1.185363e-002
1.407803e+003,1.189436e-002
1.409732e+003,1.190726e-002
1.411660e+003,1.196186e-002
1.413589e+003,1.204733e-002
1.415517e+003,1.210838e-002
1.417446e+003,1.214045e-002
1.419374e+003,1.219349e-002
1.421303e+003,1.223791e-002
1.423231e+003,1.222767e-002
1.425160e+003,1.225197e-002
1.427088e+003,1.228131e-002
1.429017e+003,1.223761e-002
1.430945e+003,1.221364e-002
1.432874e+003,1.215911e-002
1.434802e+003,1.206586e-002
1.436731e+003,1.199190e-002
1.438659e+003,1.193410e-002
1.440588e+003,1.189578e-002
1.442516e+003,1.188065e-002
1.444445e+003,1.182218e-002
1.446373e+003,1.178044e-002
1.448302e+003,1.178430e-002
1.450230e+003,1.175811e-002
1.452159e+003,1.173823e-002
1.454087e+003,1.170089e-002
1.456016e+003,1.162966e-002
1.457944e+003,1.154919e-002
1.459873e+003,1.150943e-002
1.461801e+003,1.154884e-002
1.463730e+003,1.146457e-002
1.465658e+003,1.129789e-002
1.467587e+003,1.114261e-002
1.469515e+003,1.097430e-002
1.471444e+003,1.081304e-002
1.473372e+003,1.059933e-002
1.475301e+003,1.034197e-002
1.477229e+003,1.016282e-002
1.479158e+003,1.006215e-002
1.481086e+003,1.004848e-002
1.483015e+003,1.005266e-002
1.484943e+003,1.004907e-002
1.486872e+003,1.005793e-002
1.488800e+003,1.011542e-002
1.490729e+003,1.017907e-002
1.492657e+003,1.023292e-002
1.494586e+003,1.029810e-002
1.496514e+003,1.042844e-002
1.498443e+003,1.050003e-002
1.500371e+003,1.060099e-002
1.502300e+003,1.068551e-002
1.504228e+003,1.073657e-002
1.506157e+003,1.081603e-002
1.508085e+003,1.096451e-002
1.510014e+003,1.107204e-002
1.511942e+003,1.116844e-002
1.513871e+003,1.122438e-002
1.515799e+003,1.123309e-002
1.517728e+003,1.126388e-002
1.519656e+003,1.124998e-002
1.521585e+003,1.121402e-002
1.523513e+003,1.119144e-002
1.525442e+003,1.117546e-002
1.527370e+003,1.117019e-002
1.529299e+003,1.118058e-002
1.531227e+003,1.120741e-002
1.533156e+003,1.117549e-002
1.535084e+003,1.120505e-002
1.537013e+003,1.126046e-002
1.538941e+003,1.123009e-002
1.540870e+003,1.120207e-002
1.542798e+003,1.122356e-002
1.544727e+003,1.118143e-002
1.546655e+003,1.114597e-002
1.548584e+003,1.108651e-002
1.550512e+003,1.103091e-002
1.552441e+003,1.098889e-002
1.554369e+003,1.095899e-002
1.556298e+003,1.088358e-002
1.558226e+003,1.090103e-002
1.560155e+003,1.093626e-002
1.562083e+003,1.084737e-002
1.564012e+003,1.084406e-002
1.565940e+003,1.083536e-002
1.567869e+003,1.080921e-002
1.569797e+003,1.083552e-002
1.571726e+003,1.087327e-002
1.573654e+003,1.088056e-002
1.575583e+003,1.096663e-002
1.577511e+003,1.103673e-002
1.579440e+003,1.109536e-002
1.581368e+003,1.114432e-002
1.583297e+003,1.123659e-002
1.585225e+003,1.131150e-002
1.587154e+003,1.132003e-002
1.589082e+003,1.136406e-002
1.591010e+003,1.146455e-002
1.592939e+003,1.155732e-002
1.594868e+003,1.166041e-002
1.596796e+003,1.174097e-002
1.598724e+003,1.176215e-002
1.600653e+003,1.180529e-002
1.602582e+003,1.186962e-002
1.604510e+003,1.190195e-002
1.606438e+003,1.194939e-002
1.608367e+003,1.201897e-002
1.610296e+003,1.210853e-002
1.612224e+003,1.222305e-002
1.614152e+003,1.236186e-002
1.616081e+003,1.249839e-002
1.618010e+003,1.264474e-002
1.619938e+003,1.275800e-002
1.621866e+003,1.287823e-002
1.623795e+003,1.297068e-002
1.625724e+003,1.296277e-002
1.627652e+003,1.292802e-002
1.629580e+003,1.291319e-002
1.631509e+003,1.288981e-002
1.633438e+003,1.285105e-002
1.635366e+003,1.279222e-002
1.637294e+003,1.271428e-002
1.639223e+003,1.266797e-002
1.641151e+003,1.266713e-002
1.643080e+003,1.266025e-002
1.645008e+003,1.265665e-002
1.646937e+003,1.260402e-002
1.648865e+003,1.253902e-002
1.650794e+003,1.247400e-002
1.652722e+003,1.243118e-002
1.654651e+003,1.237128e-002
1.656579e+003,1.222370e-002
1.658508e+003,1.209311e-002
1.660436e+003,1.196046e-002
1.662365e+003,1.177578e-002
1.664293e+003,1.160517e-002
1.666222e+003,1.149720e-002
1.668150e+003,1.134118e-002
1.670079e+003,1.113533e-002
1.672007e+003,1.101330e-002
1.673936e+003,1.088337e-002
1.675864e+003,1.075098e-002
1.677793e+003,1.063340e-002
1.679721e+003,1.049867e-002
1.681650e+003,1.033563e-002
1.683578e+003,1.029759e-002
1.685507e+003,1.026286e-002
1.687435e+003,1.011080e-002
1.689364e+003,1.002584e-002
1.691292e+003,9.951131e-003
1.693221e+003,9.856896e-003
1.695149e+003,9.804755e-003
1.697078e+003,9.731044e-003
1.699006e+003,9.604305e-003
1.700935e+003,9.542922e-003
1.702863e+003,9.508319e-003
1.704792e+003,9.497831e-003
1.706720e+003,9.492921e-003
1.708649e+003,9.526846e-003
1.710577e+003,9.557602e-003
1.712506e+003,9.614783e-003
1.714434e+003,9.658810e-003
1.716363e+003,9.703449e-003
1.718291e+003,9.749990e-003
1.720220e+003,9.806858e-003
1.722148e+003,9.808878e-003
1.724077e+003,9.815994e-003
1.726005e+003,9.862886e-003
1.727934e+003,9.859789e-003
1.729862e+003,9.887304e-003
1.731791e+003,9.901289e-003
1.733719e+003,9.846574e-003
1.735648e+003,9.785064e-003
1.737576e+003,9.624774e-003
1.739505e+003,9.489951e-003
1.741433e+003,9.345962e-003
1.743362e+003,9.129820e-003
1.745290e+003,9.022482e-003
1.747219e+003,8.928595e-003
1.749147e+003,8.776587e-003
1.751076e+003,8.666666e-003
1.753004e+003,8.590189e-003
1.754933e+003,8.508865e-003
1.756861e+003,8.458965e-003
1.758790e+003,8.371366e-003
1.760718e+003,8.280586e-003
1.762647e+003,8.290940e-003
1.764575e+003,8.275465e-003
1.766504e+003,8.254120e-003
1.768432e+003,8.257424e-003
1.770361e+003,8.269440e-003
1.772289e+003,8.224694e-003
1.774218e+003,8.195969e-003
1.776146e+003,8.230969e-003
1.778075e+003,8.208046e-003
1.780003e+003,8.242164e-003
1.781932e+003,8.278416e-003
1.783860e+003,8.284931e-003
1.785789e+003,8.271692e-003
1.787717e+003,8.326346e-003
1.789646e+003,8.378610e-003
1.791574e+003,8.360243e-003
1.793503e+003,8.299585e-003
1.795431e+003,8.277210e-003
1.797360e+003,8.362564e-003
1.799288e+003,8.378612e-003
1.801217e+003,8.380027e-003
1.803145e+003,8.375586e-003
1.805074e+003,8.359707e-003
1.807002e+003,8.387993e-003
1.808931e+003,8.381363e-003
1.810859e+003,8.366970e-003
1.812788e+003,8.420194e-003
1.814716e+003,8.441155e-003
1.816645e+003,8.409226e-003
1.818573e+003,8.468186e-003
1.820502e+003,8.500185e-003
1.822430e+003,8.492586e-003
1.824359e+003,8.515155e-003
1.826287e+003,8.468577e-003
1.828216e+003,8.487016e-003
1.830144e+003,8.590907e-003
1.832073e+003,8.566202e-003
1.834001e+003,8.473177e-003
1.835930e+003,8.488025e-003
1.837858e+003,8.478783e-003
1.839787e+003,8.420226e-003
1.841715e+003,8.427309e-003
1.843644e+003,8.448367e-003
1.845572e+003,8.535697e-003
1.847501e+003,8.734703e-003
1.849429e+003,8.800239e-003
1.851358e+003,8.633377e-003
1.853286e+003,8.526062e-003
1.855215e+003,8.534300e-003
1.857143e+003,8.644857e-003
1.859072e+003,8.764634e-003
1.861000e+003,8.706980e-003
1.862929e+003,8.717754e-003
1.864857e+003,8.617640e-003
1.866786e+003,8.494819e-003
1.868714e+003,8.620401e-003
1.870643e+003,8.822417e-003
1.872571e+003,8.793146e-003
1.874500e+003,8.724565e-003
1.876428e+003,8.661325e-003
1.878357e+003,8.665962e-003
1.880285e+003,8.835829e-003
1.882214e+003,8.877279e-003
1.884142e+003,8.868080e-003
1.886071e+003,8.950648e-003
1.887999e+003,8.962447e-003
1.889928e+003,8.983001e-003
1.891856e+003,9.032145e-003
1.893785e+003,9.099858e-003
1.895713e+003,9.145575e-003
1.897642e+003,8.990543e-003
1.899570e+003,9.032785e-003
1.901499e+003,9.103919e-003
1.903427e+003,9.215032e-003
1.905356e+003,9.249587e-003
1.907284e+003,9.248970e-003
1.909213e+003,9.256325e-003
1.911141e+003,9.346972e-003
1.913070e+003,9.589623e-003
1.914998e+003,9.577113e-003
1.916927e+003,9.364521e-003
1.918855e+003,9.275166e-003
1.920784e+003,9.535352e-003
1.922712e+003,9.632853e-003
1.924641e+003,9.539811e-003
1.926569e+003,9.699002e-003
1.928498e+003,9.751329e-003
1.930426e+003,9.824294e-003
1.932355e+003,9.989667e-003
1.934283e+003,9.904366e-003
1.936212e+003,1.035553e-002
1.938140e+003,1.081181e-002
1.940069e+003,1.057468e-002
1.941997e+003,1.044566e-002
1.943926e+003,1.064282e-002
1.945854e+003,1.050632e-002
1.947783e+003,1.076069e-002
1.949711e+003,1.132949e-002
1.951640e+003,1.144508e-002
1.953568e+003,1.136945e-002
1.955497e+003,1.137027e-002
1.957425e+003,1.094374e-002
1.959354e+003,1.109745e-002
1.961282e+003,1.189878e-002
1.963211e+003,1.186644e-002
1.965139e+003,1.184155e-002
1.967068e+003,1.143597e-002
1.968996e+003,1.100518e-002
1.970925e+003,1.180386e-002
1.972853e+003,1.289930e-002
1.974782e+003,1.310702e-002
1.976710e+003,1.285160e-002
1.978639e+003,1.296794e-002
1.980567e+003,1.297420e-002
1.982496e+003,1.253621e-002
1.984424e+003,1.127954e-002
1.986353e+003,1.090147e-002
1.988281e+003,1.150345e-002
1.990210e+003,1.157074e-002
1.992138e+003,1.173139e-002
1.994067e+003,1.163660e-002
1.995995e+003,1.099938e-002
1.997924e+003,1.042926e-002
1.999852e+003,1.034268e-002
2.001781e+003,1.102914e-002
2.003709e+003,1.197857e-002
2.005638e+003,1.285348e-002
2.007566e+003,1.302741e-002
2.009495e+003,1.148266e-002
2.011423e+003,1.167895e-002
2.013352e+003,1.248510e-002
2.015280e+003,1.245397e-002
2.017208e+003,1.223017e-002
2.019137e+003,1.229988e-002
2.021066e+003,1.264525e-002
2.022994e+003,1.266756e-002
2.024922e+003,1.175635e-002
2.026851e+003,1.165613e-002
2.028780e+003,1.223322e-002
2.030708e+003,1.216944e-002
2.032636e+003,1.102279e-002
2.034565e+003,1.133538e-002
2.036494e+003,1.119860e-002
2.038422e+003,1.045709e-002
2.040350e+003,9.844003e-003
2.042279e+003,9.239002e-003
2.044208e+003,9.502111e-003
2.046136e+003,8.806150e-003
2.048064e+003,8.113844e-003
2.049993e+003,8.076516e-003
2.051921e+003,7.746228e-003
2.053850e+003,8.369390e-003
2.055778e+003,8.375995e-003
2.057707e+003,7.980825e-003
2.059635e+003,8.352352e-003
2.061564e+003,8.367698e-003
2.063492e+003,8.298106e-003
2.065421e+003,8.394547e-003
2.067349e+003,8.376587e-003
2.069278e+003,8.194165e-003
2.071206e+003,7.996102e-003
2.073135e+003,7.932570e-003
2.075063e+003,8.055679e-003
2.076992e+003,8.396908e-003
2.078920e+003,8.137981e-003
2.080849e+003,8.161084e-003
2.082777e+003,8.238221e-003
2.084706e+003,8.147046e-003
2.086634e+003,8.128806e-003
2.088563e+003,8.344783e-003
2.090491e+003,8.523650e-003
2.092420e+003,8.686603e-003
2.094348e+003,8.545415e-003
2.096277e+003,8.468121e-003
2.098205e+003,8.396698e-003
2.100134e+003,8.590914e-003
2.102062e+003,8.615045e-003
2.103991e+003,8.754348e-003
2.105919e+003,9.001053e-003
2.107848e+003,9.071319e-003
2.109776e+003,9.238353e-003
2.111705e+003,9.140718e-003
2.113633e+003,8.532958e-003
2.115562e+003,8.482409e-003
2.117490e+003,8.884058e-003
2.119419e+003,9.212800e-003
2.121347e+003,9.159464e-003
2.123276e+003,9.152358e-003
2.125204e+003,9.178889e-003
2.127133e+003,9.119568e-003
2.129061e+003,9.262656e-003
2.130990e+003,9.320743e-003
2.132918e+003,9.442631e-003
2.134847e+003,9.654390e-003
2.136775e+003,1.019628e-002
2.138704e+003,9.897098e-003
2.140632e+003,9.463490e-003
2.142561e+003,1.012339e-002
2.144489e+003,1.071263e-002
2.146418e+003,1.101819e-002
2.148346e+003,1.087585e-002
2.150275e+003,1.041835e-002
2.152203e+003,1.039684e-002
2.154132e+003,1.172171e-002
2.156060e+003,1.248451e-002
2.157989e+003,1.318222e-002
2.159917e+003,1.236286e-002
2.161846e+003,1.080536e-002
2.163774e+003,1.091923e-002
2.165703e+003,1.205656e-002
2.167631e+003,1.201160e-002
2.169560e+003,1.069399e-002
2.171488e+003,1.024598e-002
2.173417e+003,1.035957e-002
2.175345e+003,1.066373e-002
2.177274e+003,1.012380e-002
2.179202e+003,1.042063e-002
2.181131e+003,1.094547e-002
2.183059e+003,1.028516e-002
2.184988e+003,1.038251e-002
2.186916e+003,1.037437e-002
2.188845e+003,1.007974e-002
2.190773e+003,9.915742e-003
2.192702e+003,1.015059e-002
2.194630e+003,9.569734e-003
2.196559e+003,9.186097e-003
2.198487e+003,9.257240e-003
2.200416e+003,9.491734e-003
2.202344e+003,9.374877e-003
2.204273e+003,9.244378e-003
2.206201e+003,9.163932e-003
2.208130e+003,9.263739e-003
2.210058e+003,9.200447e-003
2.211987e+003,9.440599e-003
2.213915e+003,9.858558e-003
2.215844e+003,9.789859e-003
2.217772e+003,9.283202e-003
2.219701e+003,9.215677e-003
2.221629e+003,9.419707e-003
2.223558e+003,9.357950e-003
2.225486e+003,9.271321e-003
2.227415e+003,9.293255e-003
2.229343e+003,9.618006e-003
2.231272e+003,9.201401e-003
2.233200e+003,9.141646e-003
2.235129e+003,9.387383e-003
2.237057e+003,9.213128e-003
2.238986e+003,8.793659e-003
2.240914e+003,8.574772e-003
2.242843e+003,8.579159e-003
2.244771e+003,8.770775e-003
2.246700e+003,8.475537e-003
2.248628e+003,8.491213e-003
2.250557e+003,8.622022e-003
2.252485e+003,8.478731e-003
2.254414e+003,8.154714e-003
2.256342e+003,8.016647e-003
2.258271e+003,8.137096e-003
2.260199e+003,8.234149e-003
2.262128e+003,8.129390e-003
2.264056e+003,8.124015e-003
2.265985e+003,8.403938e-003
2.267913e+003,8.280910e-003
2.269842e+003,8.006378e-003
2.271770e+003,8.055221e-003
2.273699e+003,8.153097e-003
2.275627e+003,8.083727e-003
2.277556e+003,8.158406e-003
2.279484e+003,8.364999e-003
2.281413e+003,8.509198e-003
2.283341e+003,8.538668e-003
2.285270e+003,8.453441e-003
2.287198e+003,8.427679e-003
2.289127e+003,8.541975e-003
2.291055e+003,8.544882e-003
2.292984e+003,8.416516e-003
2.294912e+003,8.168053e-003
2.296841e+003,8.133885e-003
2.298769e+003,8.298446e-003
2.300698e+003,8.506496e-003
2.302626e+003,8.814475e-003
2.304555e+003,8.830650e-003
2.306483e+003,8.743105e-003
2.308412e+003,8.666614e-003
2.310340e+003,8.793613e-003
2.312269e+003,8.842273e-003
2.314197e+003,9.014875e-003
2.316125e+003,9.338677e-003
2.318054e+003,9.666541e-003
2.319983e+003,9.701121e-003
2.321911e+003,9.844755e-003
2.323840e+003,1.009785e-002
2.325768e+003,1.002982e-002
2.327697e+003,9.769566e-003
2.329625e+003,9.653033e-003
2.331553e+003,9.414308e-003
2.333482e+003,9.209827e-003
2.335411e+003,9.079509e-003
2.337339e+003,8.941535e-003
2.339268e+003,8.833163e-003
2.341196e+003,8.747935e-003
2.343125e+003,8.856606e-003
2.345053e+003,8.532730e-003
2.346981e+003,8.276585e-003
2.348910e+003,8.143275e-003
2.350839e+003,7.945831e-003
2.352767e+003,7.788667e-003
2.354696e+003,7.610869e-003
2.356624e+003,7.803958e-003
2.358552e+003,7.716934e-003
2.360481e+003,7.620776e-003
2.362409e+003,7.542519e-003
2.364338e+003,7.577051e-003
2.366267e+003,7.633616e-003
2.368195e+003,7.491219e-003
2.370124e+003,7.434484e-003
2.372052e+003,7.535454e-003
2.373980e+003,7.772546e-003
2.375909e+003,8.024709e-003
2.377838e+003,7.888412e-003
2.379766e+003,7.825352e-003
2.381695e+003,7.907158e-003
2.383623e+003,7.930595e-003
2.385552e+003,7.928754e-003
2.387480e+003,7.847883e-003
2.389408e+003,7.778572e-003
2.391337e+003,7.698569e-003
2.393266e+003,7.658479e-003
2.395194e+003,7.775033e-003
2.397123e+003,7.831074e-003
2.399051e+003,7.935995e-003
2.400979e+003,7.979839e-003
2.402908e+003,7.892305e-003
2.404836e+003,7.877290e-003
2.406765e+003,7.861905e-003
2.408694e+003,7.989661e-003
2.410622e+003,8.090076e-003
2.412551e+003,8.098583e-003
2.414479e+003,8.208681e-003
2.416407e+003,8.380957e-003
2.418336e+003,8.550699e-003
2.420264e+003,8.537418e-003
2.422193e+003,8.472002e-003
2.424122e+003,8.515285e-003
2.426050e+003,8.507513e-003
2.427979e+003,8.580573e-003
2.429907e+003,8.649183e-003
2.431835e+003,8.669565e-003
2.433764e+003,8.743057e-003
2.435692e+003,8.725984e-003
2.437621e+003,8.646918e-003
2.439550e+003,8.493390e-003
2.441478e+003,8.454299e-003
2.443406e+003,8.382072e-003
2.445335e+003,8.270173e-003
2.447263e+003,8.269430e-003
2.449192e+003,8.284627e-003
2.451121e+003,8.365081e-003
2.453049e+003,8.293679e-003
2.454978e+003,8.251769e-003
2.456906e+003,8.142335e-003
2.458834e+003,8.080354e-003
2.460763e+003,8.106719e-003
2.462691e+003,8.132477e-003
2.464620e+003,8.088287e-003
2.466549e+003,7.973056e-003
2.468477e+003,7.992226e-003
2.470406e+003,8.127886e-003
2.472334e+003,8.077755e-003
2.474262e+003,8.065501e-003
2.476191e+003,8.087713e-003
2.478119e+003,8.059223e-003
2.480048e+003,8.161714e-003
2.481977e+003,8.145543e-003
2.483905e+003,8.086464e-003
2.485833e+003,8.018280e-003
2.487762e+003,8.078463e-003
2.489690e+003,8.124577e-003
2.491619e+003,8.064590e-003
2.493547e+003,8.054126e-003
2.495476e+003,8.130992e-003
2.497405e+003,8.194668e-003
2.499333e+003,8.134807e-003
2.501261e+003,8.020171e-003
2.503190e+003,7.998570e-003
2.505118e+003,8.079105e-003
2.507047e+003,8.257409e-003
2.508975e+003,8.216987e-003
2.510904e+003,8.095241e-003
2.512833e+003,8.062531e-003
2.514761e+003,8.121404e-003
2.516689e+003,8.207836e-003
2.518618e+003,8.221883e-003
2.520546e+003,8.251025e-003
2.522475e+003,8.279359e-003
2.524403e+003,8.133523e-003
2.526332e+003,8.015412e-003
2.528260e+003,8.091595e-003
2.530189e+003,8.282602e-003
2.532117e+003,8.295299e-003
2.534046e+003,8.206014e-003
2.535974e+003,8.175895e-003
2.537903e+003,8.205912e-003
2.539831e+003,8.245758e-003
2.541760e+003,8.261596e-003
2.543688e+003,8.262541e-003
2.545617e+003,8.265209e-003
2.547545e+003,8.191393e-003
2.549474e+003,8.177448e-003
2.551402e+003,8.275780e-003
2.553331e+003,8.265851e-003
2.555259e+003,8.222863e-003
2.557188e+003,8.226746e-003
2.559116e+003,8.422541e-003
2.561045e+003,8.475482e-003
2.562973e+003,8.313200e-003
2.564902e+003,8.283649e-003
2.566830e+003,8.496837e-003
2.568759e+003,8.542791e-003
2.570687e+003,8.395550e-003
2.572616e+003,8.400989e-003
2.574544e+003,8.310802e-003
2.576473e+003,8.343598e-003
2.578401e+003,8.378659e-003
2.580330e+003,8.349948e-003
2.582258e+003,8.184943e-003
2.584187e+003,8.242448e-003
2.586115e+003,8.362108e-003
2.588044e+003,8.320157e-003
2.589972e+003,8.252174e-003
2.591901e+003,8.336032e-003
2.593829e+003,8.358832e-003
2.595758e+003,8.241232e-003
2.597686e+003,8.158912e-003
2.599615e+003,8.235020e-003
2.601543e+003,8.289896e-003
2.603472e+003,8.340997e-003
2.605400e+003,8.245656e-003
2.607329e+003,8.183694e-003
2.609257e+003,8.124003e-003
2.611186e+003,7.962257e-003
2.613114e+003,7.850669e-003
2.615043e+003,7.876075e-003
2.616971e+003,7.880934e-003
2.618900e+003,7.843348e-003
2.620828e+003,7.893756e-003
2.622757e+003,7.920277e-003
2.624685e+003,7.898850e-003
2.626614e+003,7.871183e-003
2.628542e+003,7.899053e-003
2.630471e+003,7.915081e-003
2.632399e+003,7.900706e-003
2.634328e+003,7.875367e-003
2.636256e+003,7.895376e-003
2.638185e+003,7.941840e-003
2.640113e+003,7.916701e-003
2.642042e+003,8.005962e-003
2.643970e+003,8.074717e-003
2.645899e+003,8.122079e-003
2.647827e+003,8.107022e-003
2.649756e+003,8.105065e-003
2.651684e+003,8.179609e-003
2.653613e+003,8.238970e-003
2.655541e+003,8.247007e-003
2.657470e+003,8.232216e-003
2.659398e+003,8.259974e-003
2.661327e+003,8.309654e-003
2.663255e+003,8.325494e-003
2.665184e+003,8.337991e-003
2.667112e+003,8.315868e-003
2.669041e+003,8.302899e-003
2.670969e+003,8.374741e-003
2.672898e+003,8.476462e-003
2.674826e+003,8.482612e-003
2.676755e+003,8.470719e-003
2.678683e+003,8.508223e-003
2.680612e+003,8.541913e-003
2.682540e+003,8.578376e-003
2.684469e+003,8.584053e-003
2.686397e+003,8.569387e-003
2.688326e+003,8.640056e-003
2.690254e+003,8.640361e-003
2.692183e+003,8.678353e-003
2.694111e+003,8.705025e-003
2.696040e+003,8.655638e-003
2.697968e+003,8.656078e-003
2.699897e+003,8.666894e-003
2.701825e+003,8.639009e-003
2.703754e+003,8.660066e-003
2.705682e+003,8.703266e-003
2.707611e+003,8.713375e-003
2.709539e+003,8.714490e-003
2.711468e+003,8.730852e-003
2.713396e+003,8.712867e-003
2.715325e+003,8.676156e-003
2.717253e+003,8.666083e-003
2.719182e+003,8.624306e-003
2.721110e+003,8.642118e-003
2.723039e+003,8.642895e-003
2.724967e+003,8.613287e-003
2.726896e+003,8.654489e-003
2.728824e+003,8.692821e-003
2.730753e+003,8.682612e-003
2.732681e+003,8.603858e-003
2.734610e+003,8.605853e-003
2.736538e+003,8.624813e-003
2.738467e+003,8.668585e-003
2.740395e+003,8.684100e-003
2.742324e+003,8.617681e-003
2.744252e+003,8.581823e-003
2.746181e+003,8.636136e-003
2.748109e+003,8.699244e-003
2.750038e+003,8.672404e-003
2.751966e+003,8.669700e-003
2.753895e+003,8.680652e-003
2.755823e+003,8.656923e-003
2.757752e+003,8.643268e-003
2.759680e+003,8.660100e-003
2.761609e+003,8.684371e-003
2.763537e+003,8.688933e-003
2.765466e+003,8.706680e-003
2.767394e+003,8.729804e-003
2.769323e+003,8.746133e-003
2.771251e+003,8.744713e-003
2.773180e+003,8.747621e-003
2.775108e+003,8.703266e-003
2.777037e+003,8.690725e-003
2.778965e+003,8.753807e-003
2.780894e+003,8.797931e-003
2.782822e+003,8.833366e-003
2.784750e+003,8.805234e-003
2.786679e+003,8.784709e-003
2.788608e+003,8.808480e-003
2.790536e+003,8.847434e-003
2.792465e+003,8.839454e-003
2.794393e+003,8.851965e-003
2.796322e+003,8.828836e-003
2.798250e+003,8.829207e-003
2.800178e+003,8.892073e-003
2.802107e+003,8.909356e-003
2.804036e+003,8.902354e-003
2.805964e+003,8.905905e-003
2.807893e+003,8.944192e-003
2.809821e+003,8.984613e-003
2.811750e+003,8.985730e-003
2.813678e+003,8.961070e-003
2.815606e+003,9.022264e-003
2.817535e+003,9.037657e-003
2.819464e+003,9.061339e-003
2.821392e+003,9.079676e-003
2.823321e+003,9.145218e-003
2.825249e+003,9.157468e-003
2.827177e+003,9.219062e-003
2.829106e+003,9.259745e-003
2.831034e+003,9.267123e-003
2.832963e+003,9.292037e-003
2.834892e+003,9.369765e-003
2.836820e+003,9.403827e-003
2.838749e+003,9.458716e-003
2.840677e+003,9.609265e-003
2.842605e+003,9.839849e-003
2.844534e+003,1.008941e-002
2.846462e+003,1.038581e-002
2.848391e+003,1.057175e-002
2.850320e+003,1.048131e-002
2.852248e+003,1.030043e-002
2.854177e+003,1.015544e-002
2.856105e+003,1.002600e-002
2.858033e+003,9.969849e-003
2.859962e+003,9.895064e-003
2.861890e+003,9.839001e-003
2.863819e+003,9.841034e-003
2.865748e+003,9.847983e-003
2.867676e+003,9.841441e-003
2.869604e+003,9.840085e-003
2.871533e+003,9.838933e-003
2.873461e+003,9.809278e-003
2.875390e+003,9.764781e-003
2.877319e+003,9.834155e-003
2.879247e+003,9.854355e-003
2.881176e+003,9.863202e-003
2.883104e+003,9.905979e-003
2.885032e+003,9.966628e-003
2.886961e+003,9.947439e-003
2.888889e+003,9.912387e-003
2.890818e+003,9.973002e-003
2.892747e+003,1.002868e-002
2.894675e+003,1.000535e-002
2.896604e+003,1.006126e-002
2.898532e+003,1.013075e-002
2.900460e+003,1.016891e-002
2.902389e+003,1.017332e-002
2.904317e+003,1.023665e-002
2.906246e+003,1.029158e-002
2.908175e+003,1.037688e-002
2.910103e+003,1.042976e-002
2.912031e+003,1.063120e-002
2.913960e+003,1.092858e-002
2.915888e+003,1.114297e-002
2.917817e+003,1.107175e-002
2.919745e+003,1.089413e-002
2.921674e+003,1.070676e-002
2.923603e+003,1.053125e-002
2.925531e+003,1.036083e-002
2.927459e+003,1.020093e-002
2.929388e+003,1.006180e-002
2.931316e+003,9.980901e-003
2.933245e+003,9.918522e-003
2.935173e+003,9.824638e-003
2.937102e+003,9.664666e-003
2.939031e+003,9.524792e-003
2.940959e+003,9.462426e-003
2.942887e+003,9.346816e-003
2.944816e+003,9.338419e-003
2.946744e+003,9.334772e-003
2.948673e+003,9.234586e-003
2.950601e+003,9.153033e-003
2.952530e+003,9.129583e-003
2.954458e+003,9.070985e-003
2.956387e+003,9.040012e-003
2.958315e+003,9.014878e-003
2.960244e+003,8.992068e-003
2.962172e+003,8.996041e-003
2.964101e+003,8.952363e-003
2.966029e+003,8.863318e-003
2.967958e+003,8.824521e-003
2.969886e+003,8.791197e-003
2.971815e+003,8.721942e-003
2.973743e+003,8.706483e-003
2.975672e+003,8.679030e-003
2.977600e+003,8.658580e-003
2.979529e+003,8.618401e-003
2.981457e+003,8.641539e-003
2.983386e+003,8.602631e-003
2.985314e+003,8.444010e-003
2.987243e+003,8.433101e-003
2.989171e+003,8.470356e-003
2.991100e+003,8.491029e-003
2.993028e+003,8.501106e-003
2.994957e+003,8.498038e-003
2.996885e+003,8.526515e-003
2.998814e+003,8.494493e-003
3.000742e+003,8.507622e-003
3.002671e+003,8.542138e-003
3.004599e+003,8.535593e-003
3.006528e+003,8.548769e-003
3.008456e+003,8.566229e-003
3.010385e+003,8.613585e-003
3.012313e+003,8.618938e-003
3.014242e+003,8.621970e-003
3.016170e+003,8.583631e-003
3.018099e+003,8.557243e-003
3.020027e+003,8.586953e-003
3.021956e+003,8.565572e-003
3.023884e+003,8.631619e-003
3.025813e+003,8.700293e-003
3.027741e+003,8.714065e-003
3.029670e+003,8.620762e-003
3.031598e+003,8.580939e-003
3.033527e+003,8.566368e-003
3.035455e+003,8.613130e-003
3.037384e+003,8.657441e-003
3.039312e+003,8.729186e-003
3.041241e+003,8.740355e-003
3.043169e+003,8.715626e-003
3.045098e+003,8.718550e-003
3.047026e+003,8.763688e-003
3.048955e+003,8.767049e-003
3.050883e+003,8.782283e-003
3.052812e+003,8.820638e-003
3.054740e+003,8.826243e-003
3.056669e+003,8.814743e-003
3.058597e+003,8.782802e-003
3.060526e+003,8.761988e-003
3.062454e+003,8.842386e-003
3.064383e+003,8.901987e-003
3.066311e+003,8.937861e-003
3.068240e+003,8.913828e-003
3.070168e+003,8.936623e-003
3.072097e+003,8.937640e-003
3.074025e+003,8.939568e-003
3.075954e+003,8.906239e-003
3.077882e+003,8.910240e-003
3.079811e+003,9.006245e-003
3.081739e+003,8.978093e-003
3.083668e+003,8.918604e-003
3.085596e+003,9.020196e-003
3.087525e+003,9.044580e-003
3.089453e+003,9.038121e-003
3.091382e+003,8.996472e-003
3.093310e+003,9.022229e-003
3.095239e+003,9.055343e-003
3.097167e+003,9.134731e-003
3.099096e+003,9.142312e-003
3.101024e+003,9.098737e-003
3.102953e+003,9.042451e-003
3.104881e+003,9.068579e-003
3.106810e+003,9.083345e-003
3.108738e+003,9.115528e-003
3.110667e+003,9.150043e-003
3.112595e+003,9.119787e-003
3.114524e+003,9.103935e-003
3.116452e+003,9.162637e-003
3.118381e+003,9.267438e-003
3.120309e+003,9.300797e-003
3.122238e+003,9.227493e-003
3.124166e+003,9.227831e-003
3.126095e+003,9.298221e-003
3.128023e+003,9.368327e-003
3.129952e+003,9.498771e-003
3.131880e+003,9.446293e-003
3.133809e+003,9.397149e-003
3.135737e+003,9.445205e-003
3.137666e+003,9.435992e-003
3.139594e+003,9.509723e-003
3.141523e+003,9.560126e-003
3.143451e+003,9.523068e-003
3.145380e+003,9.493249e-003
3.147308e+003,9.615068e-003
3.149237e+003,9.699006e-003
3.151165e+003,9.588561e-003
3.153094e+003,9.595878e-003
3.155022e+003,9.743979e-003
3.156951e+003,9.742576e-003
3.158879e+003,9.691523e-003
3.160808e+003,9.718012e-003
3.162736e+003,9.737684e-003
3.164665e+003,9.731594e-003
3.166593e+003,9.735130e-003
3.168522e+003,9.872927e-003
3.170450e+003,9.947161e-003
3.172379e+003,9.932871e-003
3.174307e+003,9.869161e-003
3.176236e+003,9.885785e-003
3.178164e+003,9.956383e-003
3.180093e+003,9.978129e-003
3.182021e+003,9.939725e-003
3.183950e+003,9.989910e-003
3.185878e+003,1.000651e-002
3.187807e+003,1.009140e-002
3.189735e+003,1.006733e-002
3.191664e+003,1.003899e-002
3.193592e+003,1.013972e-002
3.195521e+003,1.021566e-002
3.197449e+003,1.018061e-002
3.199378e+003,1.022581e-002
3.201306e+003,1.024668e-002
3.203235e+003,1.027644e-002
3.205163e+003,1.026180e-002
3.207092e+003,1.027495e-002
3.209020e+003,1.027620e-002
3.210948e+003,1.026765e-002
3.212877e+003,1.031523e-002
3.214806e+003,1.033235e-002
3.216734e+003,1.037110e-002
3.218663e+003,1.046313e-002
3.220591e+003,1.048797e-002
3.222520e+003,1.047227e-002
3.224448e+003,1.053629e-002
3.226376e+003,1.059035e-002
3.228305e+003,1.059518e-002
3.230234e+003,1.058966e-002
3.232162e+003,1.056371e-002
3.234091e+003,1.058708e-002
3.236019e+003,1.066985e-002
3.237948e+003,1.069981e-002
3.239876e+003,1.081551e-002
3.241804e+003,1.088834e-002
3.243733e+003,1.090032e-002
3.245662e+003,1.089538e-002
3.247590e+003,1.089303e-002
3.249519e+003,1.085572e-002
3.251447e+003,1.082028e-002
3.253375e+003,1.088994e-002
3.255304e+003,1.097858e-002
3.257232e+003,1.095005e-002
3.259161e+003,1.088651e-002
3.261090e+003,1.093610e-002
3.263018e+003,1.102213e-002
3.264947e+003,1.107669e-002
3.266875e+003,1.111464e-002
3.268803e+003,1.107809e-002
3.270732e+003,1.109553e-002
3.272660e+003,1.110572e-002
3.274589e+003,1.106395e-002
3.276518e+003,1.111423e-002
3.278446e+003,1.118116e-002
3.280375e+003,1.113569e-002
3.282303e+003,1.102679e-002
3.284231e+003,1.107195e-002
3.286160e+003,1.115892e-002
3.288088e+003,1.120031e-002
3.290017e+003,1.121930e-002
3.291946e+003,1.122297e-002
3.293874e+003,1.109100e-002
3.295802e+003,1.104933e-002
3.297731e+003,1.109621e-002
3.299659e+003,1.110470e-002
3.301588e+003,1.112401e-002
3.303516e+003,1.113219e-002
3.305445e+003,1.115032e-002
3.307374e+003,1.114566e-002
3.309302e+003,1.108800e-002
3.311230e+003,1.108614e-002
3.313159e+003,1.112229e-002
3.315087e+003,1.110001e-002
3.317016e+003,1.100524e-002
3.318944e+003,1.102825e-002
3.320873e+003,1.117292e-002
3.322802e+003,1.112918e-002
3.324730e+003,1.114084e-002
3.326658e+003,1.107992e-002
3.328587e+003,1.101299e-002
3.330515e+003,1.107409e-002
3.332444e+003,1.109269e-002
3.334372e+003,1.103008e-002
3.336301e+003,1.104266e-002
3.338229e+003,1.098421e-002
3.340158e+003,1.090798e-002
3.342086e+003,1.090478e-002
3.344015e+003,1.098433e-002
3.345943e+003,1.101345e-002
3.347872e+003,1.089749e-002
3.349800e+003,1.083254e-002
3.351729e+003,1.075709e-002
3.353657e+003,1.084004e-002
3.355586e+003,1.082027e-002
3.357514e+003,1.071921e-002
3.359443e+003,1.072191e-002
3.361371e+003,1.069105e-002
3.363300e+003,1.060420e-002
3.365229e+003,1.062798e-002
3.367157e+003,1.071505e-002
3.369085e+003,1.062050e-002
3.371014e+003,1.054212e-002
3.372942e+003,1.057963e-002
3.374871e+003,1.051433e-002
3.376799e+003,1.048997e-002
3.378728e+003,1.046359e-002
3.380656e+003,1.046394e-002
3.382585e+003,1.044750e-002
3.384513e+003,1.046076e-002
3.386442e+003,1.042126e-002
3.388370e+003,1.039045e-002
3.390299e+003,1.037167e-002
3.392227e+003,1.026508e-002
3.394156e+003,1.027007e-002
3.396084e+003,1.025318e-002
3.398013e+003,1.022601e-002
3.399941e+003,1.019758e-002
3.401870e+003,1.017834e-002
3.403798e+003,1.015603e-002
3.405727e+003,1.012445e-002
3.407655e+003,1.009767e-002
3.409584e+003,1.003569e-002
3.411512e+003,1.001011e-002
3.413441e+003,9.922842e-003
3.415369e+003,9.992560e-003
3.417298e+003,9.953157e-003
3.419226e+003,9.839077e-003
3.421155e+003,9.704666e-003
3.423083e+003,9.639668e-003
3.425012e+003,9.640419e-003
3.426940e+003,9.713768e-003
3.428869e+003,9.645184e-003
3.430797e+003,9.579617e-003
3.432726e+003,9.556878e-003
3.434654e+003,9.468656e-003
3.436583e+003,9.493177e-003
3.438511e+003,9.526750e-003
3.440440e+003,9.426706e-003
3.442368e+003,9.249656e-003
3.444297e+003,9.264166e-003
3.446225e+003,9.278540e-003
3.448154e+003,9.301985e-003
3.450082e+003,9.271140e-003
3.452011e+003,9.070067e-003
3.453939e+003,9.055569e-003
3.455868e+003,9.064780e-003
3.457796e+003,9.036559e-003
3.459725e+003,9.007934e-003
3.461653e+003,8.835882e-003
3.463582e+003,8.795426e-003
3.465510e+003,8.819698e-003
3.467439e+003,8.706135e-003
3.469367e+003,8.584317e-003
3.471296e+003,8.638366e-003
3.473224e+003,8.636027e-003
3.475153e+003,8.499751e-003
3.477081e+003,8.509434e-003
3.479010e+003,8.496815e-003
3.480938e+003,8.383051e-003
3.482867e+003,8.355872e-003
3.484795e+003,8.397275e-003
3.486724e+003,8.361081e-003
3.488652e+003,8.314190e-003
3.490581e+003,8.300874e-003
3.492509e+003,8.194814e-003
3.494438e+003,8.108036e-003
3.496366e+003,8.120844e-003
3.498295e+003,8.142410e-003
3.500223e+003,8.118132e-003
3.502152e+003,8.095074e-003
3.504080e+003,7.934978e-003
3.506009e+003,7.820398e-003
3.507937e+003,7.806704e-003
3.509866e+003,7.814753e-003
3.511794e+003,7.777773e-003
3.513723e+003,7.754013e-003
3.515651e+003,7.721556e-003
3.517580e+003,7.638828e-003
3.519508e+003,7.614267e-003
3.521437e+003,7.633162e-003
3.523365e+003,7.619631e-003
3.525294e+003,7.553650e-003
3.527222e+003,7.481653e-003
3.529151e+003,7.479798e-003
3.531079e+003,7.439021e-003
3.533008e+003,7.380343e-003
3.534936e+003,7.327672e-003
3.536865e+003,7.272518e-003
3.538793e+003,7.279052e-003
3.540722e+003,7.215427e-003
3.542650e+003,7.184896e-003
3.544579e+003,7.099675e-003
3.546507e+003,7.077617e-003
3.548436e+003,7.083863e-003
3.550364e+003,7.050551e-003
3.552293e+003,7.049086e-003
3.554221e+003,7.034606e-003
3.556150e+003,7.070106e-003
3.558078e+003,7.010246e-003
3.560007e+003,6.879472e-003
3.561935e+003,6.813248e-003
3.563864e+003,6.889696e-003
3.565792e+003,6.839048e-003
3.567721e+003,6.686291e-003
3.569649e+003,6.666393e-003
3.571578e+003,6.765105e-003
3.573506e+003,6.688795e-003
3.575435e+003,6.584633e-003
3.577363e+003,6.556361e-003
3.579292e+003,6.460532e-003
3.581220e+003,6.358262e-003
3.583149e+003,6.301305e-003
3.585077e+003,6.163973e-003
3.587006e+003,6.014515e-003
3.588934e+003,5.910841e-003
3.590863e+003,5.779014e-003
3.592791e+003,5.647839e-003
3.594720e+003,5.562062e-003
3.596648e+003,5.448319e-003
3.598577e+003,5.439695e-003
3.600505e+003,5.357394e-003
3.602434e+003,5.330392e-003
3.604362e+003,5.354579e-003
3.606291e+003,5.510569e-003
3.608219e+003,5.695389e-003
3.610148e+003,5.849618e-003
3.612076e+003,6.006217e-003
3.614005e+003,6.027465e-003
3.615933e+003,5.803102e-003
3.617862e+003,5.504391e-003
3.619790e+003,5.237462e-003
3.621719e+003,4.959578e-003
3.623647e+003,4.792024e-003
3.625576e+003,4.794868e-003
3.627504e+003,4.809621e-003
3.629433e+003,4.827602e-003
3.631361e+003,5.001147e-003
3.633290e+003,5.204333e-003
3.635218e+003,5.236452e-003
3.637146e+003,5.362088e-003
3.639075e+003,5.550385e-003
3.641004e+003,5.726942e-003
3.642932e+003,5.871845e-003
3.644861e+003,5.882069e-003
3.646789e+003,5.827745e-003
3.648718e+003,5.834137e-003
3.650646e+003,5.784830e-003
3.652574e+003,5.900482e-003
3.654503e+003,5.987593e-003
3.656432e+003,5.895401e-003
3.658360e+003,5.838925e-003
3.660289e+003,5.837447e-003
3.662217e+003,5.898416e-003
3.664146e+003,5.808610e-003
3.666074e+003,5.750068e-003
3.668002e+003,5.721427e-003
3.669931e+003,5.786314e-003
3.671860e+003,5.770613e-003
3.673788e+003,5.713874e-003
3.675717e+003,5.691954e-003
3.677645e+003,5.596749e-003
3.679573e+003,5.544796e-003
3.681502e+003,5.500193e-003
3.683430e+003,5.402027e-003
3.685359e+003,5.329555e-003
3.687288e+003,5.345251e-003
3.689216e+003,5.264395e-003
3.691145e+003,5.024962e-003
3.693073e+003,4.986410e-003
3.695001e+003,4.915782e-003
3.696930e+003,4.751833e-003
3.698858e+003,4.549242e-003
3.700787e+003,4.472514e-003
3.702716e+003,4.399823e-003
3.704644e+003,4.400958e-003
3.706573e+003,4.499780e-003
3.708501e+003,4.592462e-003
3.710429e+003,4.834860e-003
3.712358e+003,5.184248e-003
3.714286e+003,5.401701e-003
3.716215e+003,5.242066e-003
3.718144e+003,4.820195e-003
3.720072e+003,4.528402e-003
3.722000e+003,4.167955e-003
3.723929e+003,3.849842e-003
3.725857e+003,3.771719e-003
3.727786e+003,3.794625e-003
3.729714e+003,3.719586e-003
3.731643e+003,3.880346e-003
3.733572e+003,4.039706e-003
3.735500e+003,4.122243e-003
3.737428e+003,4.299409e-003
3.739357e+003,4.626357e-003
3.741285e+003,4.918762e-003
3.743214e+003,5.144745e-003
3.745142e+003,5.303121e-003
3.747071e+003,5.298039e-003
3.749000e+003,5.365595e-003
3.750928e+003,5.456713e-003
3.752856e+003,5.595484e-003
3.754785e+003,5.715426e-003
3.756713e+003,5.679206e-003
3.758642e+003,5.625783e-003
3.760570e+003,5.576109e-003
3.762499e+003,5.635615e-003
3.764427e+003,5.660726e-003
3.766356e+003,5.603955e-003
3.768284e+003,5.612042e-003
3.770213e+003,5.546368e-003
3.772141e+003,5.526856e-003
3.774070e+003,5.519119e-003
3.775998e+003,5.620002e-003
3.777927e+003,5.633617e-003
3.779855e+003,5.698364e-003
3.781784e+003,5.688636e-003
3.783712e+003,5.692721e-003
3.785641e+003,5.702867e-003
3.787569e+003,5.663062e-003
3.789498e+003,5.657474e-003
3.791426e+003,5.652225e-003
3.793355e+003,5.612607e-003
3.795283e+003,5.568774e-003
3.797212e+003,5.642119e-003
3.799140e+003,5.781497e-003
3.801069e+003,5.724143e-003
3.802997e+003,5.642242e-003
3.804926e+003,5.680909e-003
3.806854e+003,5.734810e-003
3.808783e+003,5.668254e-003
3.810711e+003,5.671428e-003
3.812640e+003,5.713501e-003
3.814568e+003,5.761974e-003
3.816497e+003,5.728791e-003
3.818425e+003,5.683201e-003
3.820354e+003,5.638489e-003
3.822282e+003,5.656258e-003
3.824211e+003,5.657482e-003
3.826139e+003,5.638231e-003
3.828068e+003,5.663052e-003
3.829996e+003,5.688648e-003
3.831925e+003,5.723899e-003
3.833853e+003,5.711446e-003
3.835782e+003,5.674161e-003
3.837710e+003,5.655757e-003
3.839639e+003,5.607117e-003
3.841567e+003,5.646863e-003
3.843496e+003,5.693627e-003
3.845424e+003,5.691624e-003
3.847353e+003,5.600257e-003
3.849281e+003,5.628843e-003
3.851210e+003,5.729062e-003
3.853138e+003,5.748168e-003
3.855067e+003,5.646697e-003
3.856995e+003,5.545733e-003
3.858924e+003,5.586468e-003
3.860852e+003,5.550143e-003
3.862781e+003,5.588167e-003
3.864709e+003,5.661661e-003
3.866638e+003,5.676609e-003
3.868566e+003,5.635276e-003
3.870495e+003,5.605116e-003
3.872423e+003,5.605729e-003
3.874352e+003,5.593973e-003
3.876280e+003,5.581088e-003
3.878209e+003,5.571882e-003
3.880137e+003,5.520984e-003
3.882066e+003,5.498389e-003
3.883994e+003,5.592656e-003
3.885923e+003,5.666913e-003
3.887851e+003,5.652353e-003
3.889780e+003,5.622647e-003
3.891708e+003,5.665094e-003
3.893637e+003,5.648478e-003
3.895565e+003,5.657626e-003
3.897494e+003,5.729232e-003
3.899422e+003,5.639868e-003
3.901351e+003,5.500431e-003
3.903279e+003,5.549741e-003
3.905208e+003,5.560442e-003
3.907136e+003,5.663549e-003
3.909065e+003,5.717813e-003
3.910993e+003,5.682529e-003
3.912922e+003,5.661129e-003
3.914850e+003,5.707093e-003
3.916779e+003,5.716124e-003
3.918707e+003,5.615656e-003
3.920636e+003,5.694763e-003
3.922564e+003,5.768649e-003
3.924493e+003,5.668599e-003
3.926421e+003,5.641943e-003
3.928350e+003,5.611692e-003
3.930278e+003,5.563111e-003
3.932207e+003,5.527202e-003
3.934135e+003,5.560121e-003
3.936064e+003,5.635142e-003
3.937992e+003,5.615182e-003
3.939921e+003,5.645792e-003
3.941849e+003,5.590846e-003
3.943778e+003,5.617306e-003
3.945706e+003,5.621281e-003
3.947635e+003,5.644009e-003
3.949563e+003,5.654008e-003
3.951492e+003,5.685477e-003
3.953420e+003,5.618087e-003
3.955349e+003,5.549809e-003
3.957277e+003,5.628480e-003
3.959206e+003,5.705741e-003
3.961134e+003,5.617195e-003
3.963063e+003,5.512543e-003
3.964991e+003,5.536471e-003
3.966920e+003,5.591336e-003
3.968848e+003,5.661074e-003
3.970777e+003,5.675165e-003
3.972705e+003,5.576427e-003
3.974634e+003,5.617167e-003
3.976562e+003,5.647550e-003
3.978491e+003,5.592552e-003
3.980419e+003,5.631538e-003
3.982348e+003,5.654844e-003
3.984276e+003,5.657553e-003
3.986205e+003,5.661114e-003
3.988133e+003,5.642722e-003
3.990062e+003,5.642094e-003
3.991990e+003,5.621512e-003
3.993919e+003,5.566073e-003
3.995847e+003,5.628644e-003
3.997776e+003,5.669233e-003
3.999704e+003,5.669668e-003
4.001633e+003,0.000000e+000
