3.991989e+002,4.936913e-002
4.011274e+002,4.835526e-002
4.030559e+002,4.835526e-002
4.049844e+002,4.867534e-002
4.069129e+002,4.601329e-002
4.088414e+002,4.592474e-002
4.107699e+002,4.689558e-002
4.126984e+002,4.774500e-002
4.146269e+002,4.797745e-002
4.165554e+002,4.856778e-002
4.184839e+002,4.749741e-002
4.204124e+002,4.697513e-002
4.223409e+002,4.716519e-002
4.242694e+002,4.646681e-002
4.261979e+002,4.713424e-002
4.281264e+002,4.825084e-002
4.300549e+002,4.835311e-002
4.319834e+002,4.808331e-002
4.339119e+002,4.742286e-002
4.358404e+002,4.814726e-002
4.377689e+002,4.896702e-002
4.396974e+002,4.782927e-002
4.416259e+002,4.718171e-002
4.435544e+002,4.758585e-002
4.454829e+002,4.844734e-002
4.474114e+002,4.864269e-002
4.493399e+002,4.807026e-002
4.512684e+002,4.814168e-002
4.531969e+002,4.765129e-002
4.551254e+002,4.761605e-002
4.570539e+002,4.753387e-002
4.589824e+002,4.761828e-002
4.609109e+002,4.823117e-002
4.628394e+002,4.830297e-002
4.647679e+002,4.783190e-002
4.666964e+002,4.737847e-002
4.686249e+002,4.701759e-002
4.705533e+002,4.723195e-002
4.724819e+002,4.717748e-002
4.744103e+002,4.719564e-002
4.763389e+002,4.635748e-002
4.782673e+002,4.580308e-002
4.801959e+002,4.563846e-002
4.821243e+002,4.541748e-002
4.840529e+002,4.536533e-002
4.859813e+002,4.546249e-002
4.879099e+002,4.557006e-002
4.898383e+002,4.514048e-002
4.917668e+002,4.513460e-002
4.936953e+002,4.480974e-002
4.956238e+002,4.454526e-002
4.975523e+002,4.478006e-002
4.994808e+002,4.432510e-002
5.014093e+002,4.422864e-002
5.033378e+002,4.419816e-002
5.052663e+002,4.423924e-002
5.071948e+002,4.406931e-002
5.091233e+002,4.443065e-002
5.110518e+002,4.448687e-002
5.129803e+002,4.448295e-002
5.149088e+002,4.448155e-002
5.168373e+002,4.475529e-002
5.187658e+002,4.480851e-002
5.206943e+002,4.519357e-002
5.226228e+002,4.531885e-002
5.245513e+002,4.529440e-002
5.264798e+002,4.505695e-002
5.284083e+002,4.555820e-002
5.303368e+002,4.521573e-002
5.322653e+002,4.481093e-002
5.341938e+002,4.459699e-002
5.361223e+002,4.458600e-002
5.380508e+002,4.423181e-002
5.399792e+002,4.408863e-002
5.419078e+002,4.440177e-002
5.438363e+002,4.474654e-002
5.457648e+002,4.421339e-002
5.476932e+002,4.398960e-002
5.496218e+002,4.457212e-002
5.515503e+002,4.474317e-002
5.534788e+002,4.450903e-002
5.554072e+002,4.467525e-002
5.573358e+002,4.478643e-002
5.592643e+002,4.499733e-002
5.611927e+002,4.479612e-002
5.631212e+002,4.468410e-002
5.650497e+002,4.429232e-002
5.669783e+002,4.402495e-002
5.689067e+002,4.349273e-002
5.708352e+002,4.297771e-002
5.727637e+002,4.261723e-002
5.746923e+002,4.266250e-002
5.766207e+002,4.305484e-002
5.785492e+002,4.302194e-002
5.804777e+002,4.297220e-002
5.824063e+002,4.262852e-002
5.843347e+002,4.215641e-002
5.862632e+002,4.215023e-002
5.881917e+002,4.217523e-002
5.901202e+002,4.211681e-002
5.920487e+002,4.203314e-002
5.939772e+002,4.199894e-002
5.959057e+002,4.198049e-002
5.978342e+002,4.201724e-002
5.997627e+002,4.174311e-002
6.016912e+002,4.137487e-002
6.036197e+002,4.101601e-002
6.055482e+002,4.099154e-002
6.074767e+002,4.083776e-002
6.094052e+002,4.080584e-002
6.113337e+002,4.046971e-002
6.132622e+002,4.024161e-002
6.151907e+002,3.999902e-002
6.171192e+002,3.988479e-002
6.190477e+002,3.952385e-002
6.209762e+002,3.906717e-002
6.229047e+002,3.845442e-002
6.248332e+002,3.820139e-002
6.267617e+002,3.785974e-002
6.286902e+002,3.742640e-002
6.306187e+002,3.720951e-002
6.325472e+002,3.694784e-002
6.344756e+002,3.666214e-002
6.364042e+002,3.668950e-002
6.383326e+002,3.640119e-002
6.402612e+002,3.607669e-002
6.421896e+002,3.599364e-002
6.441182e+002,3.574710e-002
6.460466e+002,3.557810e-002
6.479752e+002,3.553924e-002
6.499036e+002,3.530569e-002
6.518322e+002,3.511724e-002
6.537606e+002,3.508881e-002
6.556891e+002,3.509165e-002
6.576177e+002,3.508667e-002
6.595461e+002,3.507011e-002
6.614746e+002,3.504296e-002
6.634031e+002,3.508228e-002
6.653317e+002,3.507864e-002
6.672601e+002,3.474705e-002
6.691886e+002,3.441994e-002
6.711171e+002,3.411808e-002
6.730457e+002,3.363843e-002
6.749741e+002,3.302342e-002
6.769026e+002,3.229182e-002
6.788311e+002,3.186337e-002
6.807596e+002,3.128946e-002
6.826881e+002,3.089192e-002
6.846166e+002,3.060896e-002
6.865451e+002,3.047337e-002
6.884736e+002,3.027900e-002
6.904021e+002,3.025155e-002
6.923306e+002,3.021560e-002
6.942591e+002,3.017214e-002
6.961876e+002,3.007999e-002
6.981161e+002,3.003339e-002
7.000446e+002,2.989217e-002
7.019731e+002,2.960988e-002
7.039016e+002,2.943648e-002
7.058301e+002,2.934828e-002
7.077585e+002,2.920935e-002
7.096871e+002,2.896151e-002
7.116156e+002,2.885116e-002
7.135441e+002,2.867671e-002
7.154725e+002,2.836263e-002
7.174011e+002,2.841866e-002
7.193296e+002,2.847129e-002
7.212581e+002,2.821170e-002
7.231865e+002,2.778471e-002
7.251151e+002,2.747851e-002
7.270436e+002,2.726699e-002
7.289720e+002,2.709518e-002
7.309005e+002,2.672996e-002
7.328290e+002,2.635277e-002
7.347576e+002,2.611362e-002
7.366860e+002,2.602989e-002
7.386145e+002,2.598535e-002
7.405430e+002,2.593782e-002
7.424716e+002,2.565342e-002
7.444000e+002,2.541638e-002
7.463285e+002,2.514136e-002
7.482570e+002,2.492751e-002
7.501855e+002,2.480418e-002
7.521140e+002,2.463491e-002
7.540425e+002,2.448670e-002
7.559710e+002,2.451481e-002
7.578995e+002,2.432652e-002
7.598280e+002,2.403725e-002
7.617565e+002,2.400994e-002
7.636850e+002,2.391501e-002
7.656135e+002,2.372254e-002
7.675420e+002,2.369080e-002
7.694705e+002,2.375120e-002
7.713990e+002,2.373241e-002
7.733275e+002,2.360662e-002
7.752560e+002,2.346908e-002
7.771844e+002,2.334312e-002
7.791130e+002,2.337875e-002
7.810415e+002,2.338392e-002
7.829700e+002,2.326366e-002
7.848984e+002,2.322887e-002
7.868270e+002,2.317173e-002
7.887555e+002,2.316138e-002
7.906840e+002,2.310274e-002
7.926124e+002,2.305546e-002
7.945410e+002,2.298803e-002
7.964695e+002,2.292033e-002
7.983979e+002,2.284137e-002
8.003264e+002,2.276440e-002
8.022549e+002,2.276632e-002
8.041835e+002,2.271028e-002
8.061119e+002,2.254759e-002
8.080404e+002,2.243477e-002
8.099689e+002,2.249995e-002
8.118975e+002,2.249964e-002
8.138259e+002,2.236562e-002
8.157545e+002,2.226624e-002
8.176830e+002,2.219465e-002
8.196115e+002,2.207631e-002
8.215399e+002,2.197592e-002
8.234684e+002,2.187562e-002
8.253970e+002,2.177263e-002
8.273254e+002,2.181224e-002
8.292539e+002,2.196787e-002
8.311824e+002,2.192566e-002
8.331110e+002,2.169732e-002
8.350394e+002,2.161439e-002
8.369679e+002,2.168415e-002
8.388964e+002,2.171655e-002
8.408250e+002,2.165127e-002
8.427534e+002,2.155412e-002
8.446819e+002,2.147258e-002
8.466104e+002,2.148570e-002
8.485389e+002,2.156620e-002
8.504674e+002,2.156871e-002
8.523959e+002,2.159092e-002
8.543244e+002,2.158316e-002
8.562529e+002,2.149165e-002
8.581814e+002,2.152407e-002
8.601099e+002,2.151063e-002
8.620384e+002,2.151947e-002
8.639669e+002,2.161718e-002
8.658954e+002,2.168976e-002
8.678239e+002,2.176932e-002
8.697524e+002,2.185534e-002
8.716809e+002,2.189953e-002
8.736094e+002,2.203591e-002
8.755378e+002,2.221609e-002
8.774664e+002,2.229952e-002
8.793949e+002,2.237494e-002
8.813234e+002,2.260594e-002
8.832518e+002,2.288223e-002
8.851804e+002,2.324464e-002
8.871089e+002,2.354847e-002
8.890374e+002,2.388365e-002
8.909658e+002,2.427485e-002
8.928943e+002,2.470980e-002
8.948229e+002,2.502530e-002
8.967513e+002,2.516765e-002
8.986798e+002,2.516810e-002
9.006083e+002,2.496725e-002
9.025369e+002,2.452331e-002
9.044653e+002,2.413328e-002
9.063938e+002,2.395643e-002
9.083223e+002,2.377129e-002
9.102509e+002,2.367677e-002
9.121793e+002,2.360501e-002
9.141078e+002,2.358940e-002
9.160364e+002,2.363621e-002
9.179648e+002,2.365175e-002
9.198933e+002,2.379442e-002
9.218218e+002,2.393276e-002
9.237504e+002,2.394803e-002
9.256788e+002,2.415756e-002
9.276073e+002,2.442576e-002
9.295358e+002,2.466347e-002
9.314644e+002,2.487710e-002
9.333928e+002,2.520715e-002
9.353213e+002,2.550129e-002
9.372498e+002,2.583604e-002
9.391783e+002,2.619477e-002
9.411068e+002,2.668139e-002
9.430353e+002,2.718005e-002
9.449637e+002,2.766251e-002
9.468923e+002,2.820395e-002
9.488208e+002,2.886985e-002
9.507493e+002,2.944634e-002
9.526777e+002,3.008166e-002
9.546063e+002,3.065994e-002
9.565348e+002,3.125672e-002
9.584633e+002,3.193128e-002
9.603917e+002,3.266404e-002
9.623203e+002,3.330820e-002
9.642488e+002,3.391573e-002
9.661772e+002,3.445441e-002
9.681057e+002,3.498471e-002
9.700343e+002,3.553860e-002
9.719628e+002,3.621595e-002
9.738912e+002,3.693325e-002
9.758197e+002,3.771596e-002
9.777483e+002,3.854545e-002
9.796768e+002,3.940798e-002
9.816052e+002,4.037540e-002
9.835337e+002,4.140564e-002
9.854623e+002,4.241794e-002
9.873907e+002,4.326455e-002
9.893192e+002,4.382651e-002
9.912477e+002,4.416395e-002
9.931763e+002,4.434023e-002
9.951047e+002,4.453208e-002
9.970332e+002,4.477030e-002
9.989617e+002,4.508116e-002
1.000890e+003,4.553330e-002
1.002819e+003,4.608207e-002
1.004747e+003,4.666532e-002
1.006676e+003,4.713064e-002
1.008604e+003,4.755708e-002
1.010533e+003,4.802002e-002
1.012461e+003,4.860210e-002
1.014390e+003,4.926649e-002
1.016318e+003,4.996923e-002
1.018247e+003,5.067098e-002
1.020175e+003,5.136130e-002
1.022104e+003,5.210516e-002
1.024032e+003,5.281280e-002
1.025961e+003,5.352839e-002
1.027889e+003,5.423145e-002
1.029818e+003,5.489076e-002
1.031746e+003,5.546262e-002
1.033675e+003,5.573215e-002
1.035603e+003,5.559573e-002
1.037532e+003,5.513912e-002
1.039460e+003,5.453173e-002
1.041389e+003,5.387571e-002
1.043317e+003,5.336677e-002
1.045246e+003,5.297616e-002
1.047174e+003,5.261951e-002
1.049103e+003,5.231624e-002
1.051031e+003,5.204304e-002
1.052960e+003,5.168270e-002
1.054888e+003,5.119675e-002
1.056817e+003,5.056160e-002
1.058745e+003,4.975780e-002
1.060674e+003,4.898170e-002
1.062602e+003,4.823383e-002
1.064531e+003,4.736270e-002
1.066459e+003,4.647525e-002
1.068388e+003,4.557393e-002
1.070316e+003,4.478958e-002
1.072245e+003,4.414542e-002
1.074173e+003,4.351701e-002
1.076102e+003,4.282968e-002
1.078030e+003,4.207987e-002
1.079959e+003,4.127211e-002
1.081887e+003,4.059320e-002
1.083816e+003,4.004369e-002
1.085744e+003,3.969066e-002
1.087673e+003,3.936176e-002
1.089601e+003,3.903089e-002
1.091530e+003,3.876420e-002
1.093458e+003,3.856073e-002
1.095387e+003,3.831898e-002
1.097315e+003,3.811166e-002
1.099244e+003,3.794873e-002
1.101172e+003,3.780954e-002
1.103101e+003,3.760640e-002
1.105029e+003,3.730571e-002
1.106958e+003,3.681888e-002
1.108886e+003,3.614569e-002
1.110815e+003,3.534270e-002
1.112743e+003,3.445018e-002
1.114672e+003,3.346378e-002
1.116600e+003,3.262696e-002
1.118529e+003,3.182819e-002
1.120457e+003,3.102150e-002
1.122386e+003,3.028120e-002
1.124314e+003,2.954986e-002
1.126243e+003,2.878325e-002
1.128171e+003,2.802491e-002
1.130100e+003,2.727608e-002
1.132028e+003,2.659081e-002
1.133957e+003,2.603206e-002
1.135885e+003,2.554188e-002
1.137814e+003,2.509999e-002
1.139742e+003,2.489804e-002
1.141671e+003,2.494475e-002
1.143599e+003,2.509111e-002
1.145528e+003,2.523507e-002
1.147456e+003,2.542646e-002
1.149385e+003,2.569625e-002
1.151313e+003,2.602583e-002
1.153242e+003,2.634497e-002
1.155170e+003,2.666919e-002
1.157099e+003,2.689048e-002
1.159027e+003,2.696578e-002
1.160956e+003,2.690112e-002
1.162884e+003,2.666648e-002
1.164813e+003,2.616971e-002
1.166741e+003,2.548172e-002
1.168670e+003,2.464611e-002
1.170598e+003,2.380163e-002
1.172526e+003,2.293749e-002
1.174455e+003,2.209967e-002
1.176384e+003,2.136783e-002
1.178312e+003,2.069682e-002
1.180240e+003,2.012328e-002
1.182169e+003,1.969235e-002
1.184098e+003,1.934433e-002
1.186026e+003,1.905476e-002
1.187954e+003,1.891390e-002
1.189883e+003,1.886965e-002
1.191812e+003,1.889684e-002
1.193740e+003,1.897917e-002
1.195668e+003,1.915798e-002
1.197597e+003,1.932695e-002
1.199526e+003,1.950844e-002
1.201454e+003,1.963549e-002
1.203382e+003,1.963044e-002
1.205311e+003,1.959580e-002
1.207240e+003,1.949978e-002
1.209168e+003,1.943191e-002
1.211096e+003,1.943546e-002
1.213025e+003,1.950573e-002
1.214953e+003,1.956336e-002
1.216882e+003,1.969706e-002
1.218810e+003,1.987621e-002
1.220739e+003,2.006980e-002
1.222667e+003,2.028187e-002
1.224596e+003,2.055839e-002
1.226524e+003,2.082693e-002
1.228453e+003,2.106817e-002
1.230381e+003,2.126617e-002
1.232310e+003,2.139805e-002
1.234238e+003,2.154359e-002
1.236167e+003,2.167472e-002
1.238095e+003,2.170938e-002
1.240024e+003,2.174868e-002
1.241952e+003,2.172075e-002
1.243881e+003,2.167882e-002
1.245809e+003,2.165582e-002
1.247738e+003,2.159890e-002
1.249666e+003,2.142685e-002
1.251595e+003,2.124200e-002
1.253523e+003,2.109693e-002
1.255452e+003,2.097528e-002
1.257380e+003,2.079329e-002
1.259309e+003,2.056480e-002
1.261237e+003,2.031546e-002
1.263166e+003,2.006469e-002
1.265094e+003,1.981761e-002
1.267023e+003,1.955085e-002
1.268951e+003,1.930303e-002
1.270880e+003,1.908942e-002
1.272808e+003,1.888217e-002
1.274737e+003,1.873843e-002
1.276665e+003,1.859281e-002
1.278594e+003,1.839918e-002
1.280522e+003,1.827715e-002
1.282451e+003,1.822432e-002
1.284379e+003,1.805926e-002
1.286308e+003,1.792705e-002
1.288236e+003,1.786484e-002
1.290165e+003,1.782642e-002
1.292093e+003,1.783234e-002
1.294022e+003,1.788443e-002
1.295950e+003,1.796195e-002
1.297879e+003,1.807519e-002
1.299807e+003,1.820024e-002
1.301736e+003,1.837819e-002
1.303664e+003,1.856124e-002
1.305593e+003,1.878535e-002
1.307521e+003,1.900409e-002
1.309450e+003,1.921294e-002
1.311378e+003,1.940403e-002
1.313307e+003,1.956455e-002
1.315235e+003,1.960739e-002
1.317164e+003,1.957696e-002
1.319092e+003,1.949881e-002
1.321021e+003,1.936854e-002
1.322949e+003,1.918630e-002
1.324878e+003,1.903392e-002
1.326806e+003,1.891329e-002
1.328735e+003,1.887985e-002
1.330663e+003,1.888587e-002
1.332592e+003,1.886528e-002
1.334520e+003,1.882089e-002
1.336449e+003,1.878351e-002
1.338377e+003,1.869095e-002
1.340306e+003,1.861543e-002
1.342234e+003,1.855055e-002
1.344163e+003,1.852415e-002
1.346091e+003,1.854245e-002
1.348020e+003,1.857181e-002
1.349948e+003,1.864050e-002
1.351877e+003,1.875977e-002
1.353805e+003,1.885738e-002
1.355734e+003,1.894751e-002
1.357662e+003,1.906970e-002
1.359591e+003,1.924142e-002
1.361519e+003,1.940530e-002
1.363448e+003,1.954034e-002
1.365376e+003,1.964250e-002
1.367305e+003,1.971304e-002
1.369233e+003,1.968733e-002
1.371162e+003,1.960988e-002
1.373090e+003,1.949824e-002
1.375019e+003,1.936198e-002
1.376947e+003,1.921480e-002
1.378876e+003,1.901672e-002
1.380804e+003,1.877513e-002
1.382733e+003,1.851729e-002
1.384661e+003,1.829104e-002
1.386590e+003,1.804857e-002
1.388518e+003,1.785293e-002
1.390447e+003,1.773511e-002
1.392375e+003,1.762523e-002
1.394304e+003,1.753279e-002
1.396232e+003,1.749793e-002
1.398161e+003,1.747888e-002
1.400089e+003,1.754261e-002
1.402018e+003,1.757388e-002
1.403946e+003,1.757241e-002
1.405875e+003,1.759849e-002
1.407803e+003,1.763058e-002
1.409732e+003,1.765259e-002
1.411660e+003,1.773851e-002
1.413589e+003,1.789699e-002
1.415517e+003,1.801705e-002
1.417446e+003,1.809552e-002
1.419374e+003,1.819468e-002
1.421303e+003,1.824068e-002
1.423231e+003,1.824901e-002
1.425160e+003,1.829078e-002
1.427088e+003,1.829202e-002
1.429017e+003,1.824369e-002
1.430945e+003,1.817507e-002
1.432874e+003,1.810096e-002
1.434802e+003,1.800348e-002
1.436731e+003,1.792596e-002
1.438659e+003,1.782633e-002
1.440588e+003,1.771565e-002
1.442516e+003,1.765809e-002
1.444445e+003,1.758462e-002
1.446373e+003,1.754547e-002
1.448302e+003,1.753986e-002
1.450230e+003,1.749815e-002
1.452159e+003,1.744181e-002
1.454087e+003,1.740363e-002
1.456016e+003,1.730774e-002
1.457944e+003,1.716561e-002
1.459873e+003,1.710373e-002
1.461801e+003,1.714560e-002
1.463730e+003,1.698956e-002
1.465658e+003,1.672845e-002
1.467587e+003,1.641239e-002
1.469515e+003,1.601540e-002
1.471444e+003,1.565771e-002
1.473372e+003,1.529807e-002
1.475301e+003,1.483211e-002
1.477229e+003,1.451435e-002
1.479158e+003,1.435446e-002
1.481086e+003,1.428411e-002
1.483015e+003,1.425576e-002
1.484943e+003,1.425701e-002
1.486872e+003,1.432804e-002
1.488800e+003,1.445455e-002
1.490729e+003,1.460324e-002
1.492657e+003,1.479747e-002
1.494586e+003,1.498048e-002
1.496514e+003,1.519918e-002
1.498443e+003,1.536932e-002
1.500371e+003,1.554238e-002
1.502300e+003,1.574947e-002
1.504228e+003,1.590881e-002
1.506157e+003,1.609700e-002
1.508085e+003,1.632502e-002
1.510014e+003,1.653207e-002
1.511942e+003,1.677195e-002
1.513871e+003,1.690948e-002
1.515799e+003,1.695712e-002
1.517728e+003,1.696894e-002
1.519656e+003,1.686098e-002
1.521585e+003,1.677938e-002
1.523513e+003,1.672718e-002
1.525442e+003,1.668954e-002
1.527370e+003,1.667004e-002
1.529299e+003,1.667721e-002
1.531227e+003,1.665746e-002
1.533156e+003,1.664954e-002
1.535084e+003,1.668108e-002
1.537013e+003,1.666445e-002
1.538941e+003,1.664058e-002
1.540870e+003,1.659995e-002
1.542798e+003,1.654579e-002
1.544727e+003,1.647448e-002
1.546655e+003,1.640956e-002
1.548584e+003,1.630079e-002
1.550512e+003,1.620014e-002
1.552441e+003,1.608899e-002
1.554369e+003,1.599246e-002
1.556298e+003,1.586184e-002
1.558226e+003,1.581162e-002
1.560155e+003,1.584183e-002
1.562083e+003,1.576141e-002
1.564012e+003,1.568194e-002
1.565940e+003,1.562399e-002
1.567869e+003,1.555592e-002
1.569797e+003,1.556338e-002
1.571726e+003,1.566692e-002
1.573654e+003,1.571831e-002
1.575583e+003,1.580736e-002
1.577511e+003,1.587186e-002
1.579440e+003,1.598109e-002
1.581368e+003,1.615965e-002
1.583297e+003,1.630411e-002
1.585225e+003,1.644713e-002
1.587154e+003,1.656900e-002
1.589082e+003,1.672637e-002
1.591010e+003,1.688378e-002
1.592939e+003,1.705537e-002
1.594868e+003,1.720400e-002
1.596796e+003,1.732295e-002
1.598724e+003,1.743001e-002
1.600653e+003,1.754805e-002
1.602582e+003,1.765081e-002
1.604510e+003,1.774936e-002
1.606438e+003,1.793024e-002
1.608367e+003,1.812831e-002
1.610296e+003,1.833300e-002
1.612224e+003,1.861186e-002
1.614152e+003,1.895399e-002
1.616081e+003,1.929721e-002
1.618010e+003,1.958030e-002
1.619938e+003,1.979836e-002
1.621866e+003,1.999982e-002
1.623795e+003,2.014227e-002
1.625724e+003,2.019298e-002
1.627652e+003,2.014484e-002
1.629580e+003,2.006337e-002
1.631509e+003,1.992445e-002
1.633438e+003,1.982385e-002
1.635366e+003,1.972508e-002
1.637294e+003,1.961281e-002
1.639223e+003,1.951344e-002
1.641151e+003,1.945516e-002
1.643080e+003,1.939967e-002
1.645008e+003,1.935282e-002
1.646937e+003,1.927479e-002
1.648865e+003,1.918821e-002
1.650794e+003,1.910105e-002
1.652722e+003,1.896160e-002
1.654651e+003,1.877222e-002
1.656579e+003,1.852978e-002
1.658508e+003,1.827674e-002
1.660436e+003,1.800593e-002
1.662365e+003,1.768302e-002
1.664293e+003,1.734675e-002
1.666222e+003,1.701581e-002
1.668150e+003,1.666605e-002
1.670079e+003,1.636079e-002
1.672007e+003,1.616830e-002
1.673936e+003,1.588946e-002
1.675864e+003,1.561646e-002
1.677793e+003,1.541910e-002
1.679721e+003,1.521341e-002
1.681650e+003,1.490835e-002
1.683578e+003,1.466624e-002
1.685507e+003,1.454898e-002
1.687435e+003,1.430851e-002
1.689364e+003,1.409630e-002
1.691292e+003,1.394719e-002
1.693221e+003,1.378455e-002
1.695149e+003,1.365851e-002
1.697078e+003,1.352496e-002
1.699006e+003,1.328736e-002
1.700935e+003,1.314850e-002
1.702863e+003,1.306716e-002
1.704792e+003,1.304028e-002
1.706720e+003,1.308450e-002
1.708649e+003,1.312107e-002
1.710577e+003,1.313709e-002
1.712506e+003,1.320822e-002
1.714434e+003,1.331545e-002
1.716363e+003,1.345473e-002
1.718291e+003,1.352103e-002
1.720220e+003,1.362819e-002
1.722148e+003,1.373526e-002
1.724077e+003,1.379515e-002
1.726005e+003,1.385294e-002
1.727934e+003,1.391616e-002
1.729862e+003,1.393833e-002
1.731791e+003,1.393524e-002
1.733719e+003,1.386357e-002
1.735648e+003,1.374592e-002
1.737576e+003,1.345978e-002
1.739505e+003,1.317268e-002
1.741433e+003,1.284939e-002
1.743362e+003,1.240045e-002
1.745290e+003,1.208825e-002
1.747219e+003,1.185001e-002
1.749147e+003,1.153212e-002
1.751076e+003,1.131874e-002
1.753004e+003,1.115501e-002
1.754933e+003,1.094395e-002
1.756861e+003,1.078419e-002
1.758790e+003,1.066921e-002
1.760718e+003,1.055383e-002
1.762647e+003,1.055875e-002
1.764575e+003,1.051008e-002
1.766504e+003,1.044455e-002
1.768432e+003,1.039577e-002
1.770361e+003,1.039062e-002
1.772289e+003,1.039711e-002
1.774218e+003,1.035034e-002
1.776146e+003,1.030191e-002
1.778075e+003,1.033343e-002
1.780003e+003,1.028942e-002
1.781932e+003,1.028600e-002
1.783860e+003,1.027875e-002
1.785789e+003,1.026301e-002
1.787717e+003,1.032949e-002
1.789646e+003,1.036249e-002
1.791574e+003,1.036540e-002
1.793503e+003,1.032631e-002
1.795431e+003,1.033803e-002
1.797360e+003,1.042986e-002
1.799288e+003,1.040964e-002
1.801217e+003,1.042652e-002
1.803145e+003,1.045338e-002
1.805074e+003,1.038950e-002
1.807002e+003,1.038891e-002
1.808931e+003,1.042898e-002
1.810859e+003,1.041399e-002
1.812788e+003,1.045462e-002
1.814716e+003,1.049485e-002
1.816645e+003,1.048046e-002
1.818573e+003,1.054785e-002
1.820502e+003,1.049408e-002
1.822430e+003,1.047494e-002
1.824359e+003,1.058255e-002
1.826287e+003,1.057765e-002
1.828216e+003,1.052918e-002
1.830144e+003,1.048109e-002
1.832073e+003,1.054591e-002
1.834001e+003,1.053593e-002
1.835930e+003,1.062442e-002
1.837858e+003,1.068377e-002
1.839787e+003,1.053122e-002
1.841715e+003,1.054556e-002
1.843644e+003,1.060112e-002
1.845572e+003,1.064348e-002
1.847501e+003,1.074130e-002
1.849429e+003,1.073856e-002
1.851358e+003,1.064797e-002
1.853286e+003,1.060518e-002
1.855215e+003,1.068581e-002
1.857143e+003,1.081043e-002
1.859072e+003,1.083498e-002
1.861000e+003,1.077443e-002
1.862929e+003,1.068976e-002
1.864857e+003,1.066141e-002
1.866786e+003,1.060556e-002
1.868714e+003,1.071473e-002
1.870643e+003,1.093272e-002
1.872571e+003,1.086300e-002
1.874500e+003,1.088050e-002
1.876428e+003,1.083485e-002
1.878357e+003,1.079646e-002
1.880285e+003,1.081012e-002
1.882214e+003,1.088589e-002
1.884142e+003,1.090384e-002
1.886071e+003,1.096456e-002
1.887999e+003,1.095803e-002
1.889928e+003,1.096972e-002
1.891856e+003,1.093002e-002
1.893785e+003,1.065419e-002
1.895713e+003,1.088489e-002
1.897642e+003,1.108204e-002
1.899570e+003,1.113821e-002
1.901499e+003,1.113243e-002
1.903427e+003,1.112105e-002
1.905356e+003,1.108534e-002
1.907284e+003,1.116668e-002
1.909213e+003,1.117231e-002
1.911141e+003,1.110465e-002
1.913070e+003,1.120912e-002
1.914998e+003,1.134916e-002
1.916927e+003,1.138543e-002
1.918855e+003,1.150456e-002
1.920784e+003,1.151215e-002
1.922712e+003,1.173568e-002
1.924641e+003,1.145447e-002
1.926569e+003,1.124622e-002
1.928498e+003,1.128965e-002
1.930426e+003,1.163448e-002
1.932355e+003,1.208964e-002
1.934283e+003,1.195413e-002
1.936212e+003,1.187635e-002
1.938140e+003,1.191125e-002
1.940069e+003,1.174178e-002
1.941997e+003,1.185816e-002
1.943926e+003,1.241531e-002
1.945854e+003,1.231625e-002
1.947783e+003,1.211653e-002
1.949711e+003,1.243351e-002
1.951640e+003,1.241558e-002
1.953568e+003,1.234028e-002
1.955497e+003,1.292710e-002
1.957425e+003,1.273680e-002
1.959354e+003,1.243900e-002
1.961282e+003,1.279155e-002
1.963211e+003,1.271656e-002
1.965139e+003,1.258068e-002
1.967068e+003,1.237811e-002
1.968996e+003,1.260965e-002
1.970925e+003,1.334053e-002
1.972853e+003,1.282971e-002
1.974782e+003,1.246789e-002
1.976710e+003,1.270077e-002
1.978639e+003,1.271674e-002
1.980567e+003,1.277154e-002
1.982496e+003,1.250926e-002
1.984424e+003,1.245105e-002
1.986353e+003,1.220140e-002
1.988281e+003,1.164049e-002
1.990210e+003,1.165749e-002
1.992138e+003,1.166871e-002
1.994067e+003,1.145414e-002
1.995995e+003,1.167607e-002
1.997924e+003,1.130688e-002
1.999852e+003,1.089310e-002
2.001781e+003,1.110175e-002
2.003709e+003,1.154374e-002
2.005638e+003,1.146486e-002
2.007566e+003,1.159411e-002
2.009495e+003,1.073733e-002
2.011423e+003,1.124915e-002
2.013352e+003,1.166796e-002
2.015280e+003,1.082978e-002
2.017208e+003,1.071257e-002
2.019137e+003,1.124944e-002
2.021066e+003,1.223975e-002
2.022994e+003,1.233227e-002
2.024922e+003,1.139549e-002
2.026851e+003,1.065291e-002
2.028780e+003,1.072197e-002
2.030708e+003,1.132303e-002
2.032636e+003,1.006873e-002
2.034565e+003,9.824882e-003
2.036494e+003,1.022595e-002
2.038422e+003,9.958343e-003
2.040350e+003,1.002525e-002
2.042279e+003,9.739183e-003
2.044208e+003,9.197738e-003
2.046136e+003,9.344864e-003
2.048064e+003,8.744889e-003
2.049993e+003,8.460027e-003
2.051921e+003,9.006113e-003
2.053850e+003,9.204959e-003
2.055778e+003,9.174390e-003
2.057707e+003,8.866550e-003
2.059635e+003,8.826124e-003
2.061564e+003,8.838451e-003
2.063492e+003,8.752438e-003
2.065421e+003,8.666266e-003
2.067349e+003,8.862757e-003
2.069278e+003,9.025157e-003
2.071206e+003,9.061929e-003
2.073135e+003,8.979714e-003
2.075063e+003,8.681576e-003
2.076992e+003,8.910820e-003
2.078920e+003,9.105589e-003
2.080849e+003,9.223449e-003
2.082777e+003,9.532767e-003
2.084706e+003,9.553978e-003
2.086634e+003,9.755703e-003
2.088563e+003,9.770918e-003
2.090491e+003,9.717175e-003
2.092420e+003,9.982642e-003
2.094348e+003,9.882152e-003
2.096277e+003,9.530492e-003
2.098205e+003,9.665637e-003
2.100134e+003,9.876454e-003
2.102062e+003,1.002206e-002
2.103991e+003,9.942897e-003
2.105919e+003,9.991005e-003
2.107848e+003,1.016684e-002
2.109776e+003,1.046309e-002
2.111705e+003,1.019699e-002
2.113633e+003,9.873031e-003
2.115562e+003,9.983445e-003
2.117490e+003,9.960220e-003
2.119419e+003,1.008103e-002
2.121347e+003,1.031587e-002
2.123276e+003,1.017149e-002
2.125204e+003,1.032897e-002
2.127133e+003,1.037247e-002
2.129061e+003,1.016440e-002
2.130990e+003,9.854491e-003
2.132918e+003,1.000840e-002
2.134847e+003,1.024031e-002
2.136775e+003,1.014120e-002
2.138704e+003,1.011912e-002
2.140632e+003,9.970323e-003
2.142561e+003,9.914318e-003
2.144489e+003,1.009490e-002
2.146418e+003,1.048831e-002
2.148346e+003,1.010399e-002
2.150275e+003,9.324027e-003
2.152203e+003,9.491091e-003
2.154132e+003,9.584944e-003
2.156060e+003,9.595140e-003
2.157989e+003,1.070190e-002
2.159917e+003,1.046149e-002
2.161846e+003,1.026688e-002
2.163774e+003,1.081989e-002
2.165703e+003,1.144083e-002
2.167631e+003,1.083956e-002
2.169560e+003,9.768915e-003
2.171488e+003,9.741772e-003
2.173417e+003,9.472600e-003
2.175345e+003,9.402641e-003
2.177274e+003,9.493935e-003
2.179202e+003,9.983851e-003
2.181131e+003,1.027122e-002
2.183059e+003,9.442766e-003
2.184988e+003,9.283135e-003
2.186916e+003,9.902623e-003
2.188845e+003,9.715478e-003
2.190773e+003,8.833604e-003
2.192702e+003,9.270780e-003
2.194630e+003,9.741941e-003
2.196559e+003,8.936008e-003
2.198487e+003,8.663818e-003
2.200416e+003,9.692302e-003
2.202344e+003,1.016501e-002
2.204273e+003,9.832866e-003
2.206201e+003,9.763866e-003
2.208130e+003,9.540775e-003
2.210058e+003,9.529090e-003
2.211987e+003,9.819479e-003
2.213915e+003,1.025704e-002
2.215844e+003,9.996023e-003
2.217772e+003,9.876353e-003
2.219701e+003,1.014852e-002
2.221629e+003,1.017054e-002
2.223558e+003,1.016199e-002
2.225486e+003,1.026949e-002
2.227415e+003,1.046152e-002
2.229343e+003,1.067470e-002
2.231272e+003,1.031167e-002
2.233200e+003,1.029512e-002
2.235129e+003,1.028957e-002
2.237057e+003,1.004995e-002
2.238986e+003,9.677625e-003
2.240914e+003,9.993760e-003
2.242843e+003,1.010031e-002
2.244771e+003,1.023175e-002
2.246700e+003,1.007692e-002
2.248628e+003,1.040637e-002
2.250557e+003,1.026395e-002
2.252485e+003,9.717826e-003
2.254414e+003,9.458574e-003
2.256342e+003,9.423804e-003
2.258271e+003,9.740778e-003
2.260199e+003,9.788743e-003
2.262128e+003,9.772704e-003
2.264056e+003,1.009715e-002
2.265985e+003,1.001542e-002
2.267913e+003,9.840050e-003
2.269842e+003,9.739828e-003
2.271770e+003,1.000624e-002
2.273699e+003,1.016215e-002
2.275627e+003,9.922163e-003
2.277556e+003,9.786731e-003
2.279484e+003,1.017706e-002
2.281413e+003,1.053757e-002
2.283341e+003,1.055196e-002
2.285270e+003,1.036367e-002
2.287198e+003,1.042697e-002
2.289127e+003,1.057286e-002
2.291055e+003,1.052740e-002
2.292984e+003,1.051679e-002
2.294912e+003,1.051688e-002
2.296841e+003,1.061950e-002
2.298769e+003,1.078463e-002
2.300698e+003,1.086666e-002
2.302626e+003,1.106655e-002
2.304555e+003,1.102224e-002
2.306483e+003,1.096950e-002
2.308412e+003,1.098201e-002
2.310340e+003,1.106781e-002
2.312269e+003,1.119243e-002
2.314197e+003,1.129679e-002
2.316125e+003,1.143826e-002
2.318054e+003,1.168017e-002
2.319983e+003,1.203394e-002
2.321911e+003,1.235265e-002
2.323840e+003,1.237169e-002
2.325768e+003,1.239873e-002
2.327697e+003,1.230308e-002
2.329625e+003,1.197636e-002
2.331553e+003,1.155692e-002
2.333482e+003,1.146389e-002
2.335411e+003,1.131108e-002
2.337339e+003,1.112988e-002
2.339268e+003,1.097874e-002
2.341196e+003,1.089697e-002
2.343125e+003,1.084289e-002
2.345053e+003,1.057942e-002
2.346981e+003,1.047109e-002
2.348910e+003,1.025215e-002
2.350839e+003,1.017602e-002
2.352767e+003,1.013190e-002
2.354696e+003,9.859368e-003
2.356624e+003,9.972073e-003
2.358552e+003,9.972397e-003
2.360481e+003,9.971664e-003
2.362409e+003,1.007810e-002
2.364338e+003,9.876739e-003
2.366267e+003,9.831781e-003
2.368195e+003,9.947603e-003
2.370124e+003,9.867634e-003
2.372052e+003,9.884343e-003
2.373980e+003,1.023521e-002
2.375909e+003,1.041206e-002
2.377838e+003,1.032505e-002
2.379766e+003,1.028009e-002
2.381695e+003,1.045406e-002
2.383623e+003,1.044814e-002
2.385552e+003,1.029051e-002
2.387480e+003,1.030306e-002
2.389408e+003,1.032950e-002
2.391337e+003,1.031609e-002
2.393266e+003,1.028301e-002
2.395194e+003,1.029874e-002
2.397123e+003,1.043627e-002
2.399051e+003,1.053226e-002
2.400979e+003,1.051645e-002
2.402908e+003,1.044968e-002
2.404836e+003,1.036572e-002
2.406765e+003,1.048179e-002
2.408694e+003,1.060393e-002
2.410622e+003,1.068740e-002
2.412551e+003,1.078946e-002
2.414479e+003,1.075600e-002
2.416407e+003,1.079622e-002
2.418336e+003,1.097527e-002
2.420264e+003,1.110561e-002
2.422193e+003,1.113454e-002
2.424122e+003,1.109429e-002
2.426050e+003,1.107253e-002
2.427979e+003,1.112243e-002
2.429907e+003,1.109932e-002
2.431835e+003,1.113760e-002
2.433764e+003,1.114120e-002
2.435692e+003,1.117826e-002
2.437621e+003,1.112073e-002
2.439550e+003,1.113494e-002
2.441478e+003,1.108657e-002
2.443406e+003,1.102441e-002
2.445335e+003,1.097843e-002
2.447263e+003,1.100096e-002
2.449192e+003,1.095834e-002
2.451121e+003,1.097017e-002
2.453049e+003,1.094462e-002
2.454978e+003,1.084476e-002
2.456906e+003,1.084446e-002
2.458834e+003,1.094268e-002
2.460763e+003,1.091512e-002
2.462691e+003,1.093806e-002
2.464620e+003,1.092012e-002
2.466549e+003,1.074337e-002
2.468477e+003,1.074496e-002
2.470406e+003,1.078667e-002
2.472334e+003,1.082604e-002
2.474262e+003,1.086610e-002
2.476191e+003,1.094417e-002
2.478119e+003,1.103284e-002
2.480048e+003,1.107168e-002
2.481977e+003,1.094618e-002
2.483905e+003,1.097347e-002
2.485833e+003,1.088268e-002
2.487762e+003,1.074605e-002
2.489690e+003,1.085237e-002
2.491619e+003,1.096473e-002
2.493547e+003,1.106818e-002
2.495476e+003,1.109711e-002
2.497405e+003,1.102974e-002
2.499333e+003,1.098940e-002
2.501261e+003,1.102070e-002
2.503190e+003,1.109368e-002
2.505118e+003,1.099936e-002
2.507047e+003,1.094013e-002
2.508975e+003,1.094937e-002
2.510904e+003,1.092586e-002
2.512833e+003,1.091322e-002
2.514761e+003,1.105333e-002
2.516689e+003,1.118774e-002
2.518618e+003,1.127020e-002
2.520546e+003,1.126115e-002
2.522475e+003,1.122851e-002
2.524403e+003,1.123021e-002
2.526332e+003,1.118499e-002
2.528260e+003,1.120991e-002
2.530189e+003,1.118883e-002
2.532117e+003,1.106744e-002
2.534046e+003,1.117122e-002
2.535974e+003,1.112644e-002
2.537903e+003,1.104874e-002
2.539831e+003,1.119590e-002
2.541760e+003,1.124496e-002
2.543688e+003,1.122786e-002
2.545617e+003,1.129845e-002
2.547545e+003,1.123429e-002
2.549474e+003,1.114120e-002
2.551402e+003,1.126146e-002
2.553331e+003,1.142243e-002
2.555259e+003,1.144573e-002
2.557188e+003,1.138678e-002
2.559116e+003,1.135726e-002
2.561045e+003,1.133940e-002
2.562973e+003,1.133539e-002
2.564902e+003,1.126870e-002
2.566830e+003,1.127972e-002
2.568759e+003,1.136212e-002
2.570687e+003,1.144478e-002
2.572616e+003,1.142978e-002
2.574544e+003,1.134379e-002
2.576473e+003,1.133042e-002
2.578401e+003,1.140090e-002
2.580330e+003,1.134831e-002
2.582258e+003,1.114099e-002
2.584187e+003,1.117781e-002
2.586115e+003,1.129260e-002
2.588044e+003,1.126061e-002
2.589972e+003,1.111649e-002
2.591901e+003,1.115990e-002
2.593829e+003,1.123772e-002
2.595758e+003,1.122405e-002
2.597686e+003,1.114021e-002
2.599615e+003,1.108647e-002
2.601543e+003,1.113522e-002
2.603472e+003,1.117686e-002
2.605400e+003,1.110251e-002
2.607329e+003,1.096732e-002
2.609257e+003,1.089413e-002
2.611186e+003,1.084425e-002
2.613114e+003,1.083066e-002
2.615043e+003,1.088142e-002
2.616971e+003,1.088869e-002
2.618900e+003,1.087564e-002
2.620828e+003,1.085173e-002
2.622757e+003,1.082805e-002
2.624685e+003,1.077057e-002
2.626614e+003,1.075610e-002
2.628542e+003,1.080152e-002
2.630471e+003,1.079601e-002
2.632399e+003,1.084429e-002
2.634328e+003,1.088845e-002
2.636256e+003,1.085669e-002
2.638185e+003,1.086596e-002
2.640113e+003,1.091702e-002
2.642042e+003,1.099837e-002
2.643970e+003,1.102159e-002
2.645899e+003,1.110245e-002
2.647827e+003,1.114184e-002
2.649756e+003,1.119808e-002
2.651684e+003,1.125744e-002
2.653613e+003,1.129458e-002
2.655541e+003,1.130077e-002
2.657470e+003,1.130325e-002
2.659398e+003,1.132580e-002
2.661327e+003,1.137960e-002
2.663255e+003,1.136175e-002
2.665184e+003,1.142165e-002
2.667112e+003,1.146505e-002
2.669041e+003,1.143563e-002
2.670969e+003,1.147563e-002
2.672898e+003,1.154246e-002
2.674826e+003,1.157067e-002
2.676755e+003,1.163723e-002
2.678683e+003,1.163373e-002
2.680612e+003,1.165180e-002
2.682540e+003,1.170588e-002
2.684469e+003,1.168141e-002
2.686397e+003,1.169438e-002
2.688326e+003,1.172893e-002
2.690254e+003,1.173308e-002
2.692183e+003,1.176961e-002
2.694111e+003,1.176236e-002
2.696040e+003,1.178653e-002
2.697968e+003,1.180270e-002
2.699897e+003,1.182330e-002
2.701825e+003,1.181792e-002
2.703754e+003,1.180645e-002
2.705682e+003,1.184598e-002
2.707611e+003,1.189525e-002
2.709539e+003,1.186886e-002
2.711468e+003,1.185684e-002
2.713396e+003,1.185575e-002
2.715325e+003,1.187083e-002
2.717253e+003,1.186688e-002
2.719182e+003,1.184536e-002
2.721110e+003,1.190121e-002
2.723039e+003,1.191010e-002
2.724967e+003,1.188272e-002
2.726896e+003,1.188858e-002
2.728824e+003,1.194913e-002
2.730753e+003,1.196973e-002
2.732681e+003,1.194664e-002
2.734610e+003,1.191194e-002
2.736538e+003,1.192587e-002
2.738467e+003,1.195315e-002
2.740395e+003,1.191803e-002
2.742324e+003,1.190605e-002
2.744252e+003,1.192672e-002
2.746181e+003,1.194814e-002
2.748109e+003,1.195233e-002
2.750038e+003,1.196064e-002
2.751966e+003,1.196697e-002
2.753895e+003,1.195877e-002
2.755823e+003,1.197260e-002
2.757752e+003,1.196020e-002
2.759680e+003,1.202096e-002
2.761609e+003,1.201500e-002
2.763537e+003,1.200775e-002
2.765466e+003,1.206256e-002
2.767394e+003,1.212405e-002
2.769323e+003,1.213427e-002
2.771251e+003,1.209124e-002
2.773180e+003,1.211918e-002
2.775108e+003,1.213666e-002
2.777037e+003,1.211973e-002
2.778965e+003,1.214177e-002
2.780894e+003,1.217816e-002
2.782822e+003,1.221906e-002
2.784750e+003,1.220018e-002
2.786679e+003,1.221319e-002
2.788608e+003,1.227751e-002
2.790536e+003,1.230747e-002
2.792465e+003,1.229322e-002
2.794393e+003,1.232870e-002
2.796322e+003,1.235413e-002
2.798250e+003,1.237561e-002
2.800178e+003,1.238315e-002
2.802107e+003,1.243193e-002
2.804036e+003,1.247589e-002
2.805964e+003,1.249751e-002
2.807893e+003,1.256831e-002
2.809821e+003,1.256885e-002
2.811750e+003,1.259126e-002
2.813678e+003,1.263700e-002
2.815606e+003,1.269346e-002
2.817535e+003,1.272144e-002
2.819464e+003,1.269913e-002
2.821392e+003,1.271868e-002
2.823321e+003,1.282620e-002
2.825249e+003,1.289855e-002
2.827177e+003,1.292330e-002
2.829106e+003,1.295983e-002
2.831034e+003,1.308202e-002
2.832963e+003,1.324623e-002
2.834892e+003,1.337234e-002
2.836820e+003,1.345746e-002
2.838749e+003,1.356079e-002
2.840677e+003,1.378681e-002
2.842605e+003,1.406528e-002
2.844534e+003,1.449032e-002
2.846462e+003,1.511581e-002
2.848391e+003,1.551369e-002
2.850320e+003,1.541367e-002
2.852248e+003,1.513087e-002
2.854177e+003,1.485258e-002
2.856105e+003,1.463717e-002
2.858033e+003,1.447922e-002
2.859962e+003,1.435207e-002
2.861890e+003,1.426349e-002
2.863819e+003,1.419973e-002
2.865748e+003,1.417426e-002
2.867676e+003,1.420648e-002
2.869604e+003,1.424852e-002
2.871533e+003,1.420942e-002
2.873461e+003,1.418491e-002
2.875390e+003,1.419124e-002
2.877319e+003,1.427441e-002
2.879247e+003,1.428393e-002
2.881176e+003,1.428485e-002
2.883104e+003,1.435711e-002
2.885032e+003,1.439800e-002
2.886961e+003,1.440352e-002
2.888889e+003,1.451985e-002
2.890818e+003,1.464958e-002
2.892747e+003,1.463145e-002
2.894675e+003,1.461658e-002
2.896604e+003,1.471672e-002
2.898532e+003,1.478175e-002
2.900460e+003,1.483859e-002
2.902389e+003,1.487432e-002
2.904317e+003,1.494993e-002
2.906246e+003,1.510360e-002
2.908175e+003,1.527860e-002
2.910103e+003,1.542462e-002
2.912031e+003,1.577464e-002
2.913960e+003,1.625704e-002
2.915888e+003,1.656904e-002
2.917817e+003,1.650646e-002
2.919745e+003,1.626433e-002
2.921674e+003,1.594709e-002
2.923603e+003,1.569380e-002
2.925531e+003,1.543571e-002
2.927459e+003,1.516655e-002
2.929388e+003,1.499194e-002
2.931316e+003,1.478850e-002
2.933245e+003,1.456946e-002
2.935173e+003,1.435483e-002
2.937102e+003,1.411339e-002
2.939031e+003,1.390110e-002
2.940959e+003,1.375092e-002
2.942887e+003,1.364419e-002
2.944816e+003,1.353724e-002
2.946744e+003,1.340679e-002
2.948673e+003,1.336619e-002
2.950601e+003,1.327833e-002
2.952530e+003,1.317443e-002
2.954458e+003,1.308009e-002
2.956387e+003,1.300894e-002
2.958315e+003,1.294439e-002
2.960244e+003,1.291199e-002
2.962172e+003,1.285694e-002
2.964101e+003,1.280410e-002
2.966029e+003,1.268631e-002
2.967958e+003,1.256190e-002
2.969886e+003,1.250156e-002
2.971815e+003,1.233877e-002
2.973743e+003,1.225735e-002
2.975672e+003,1.218684e-002
2.977600e+003,1.212706e-002
2.979529e+003,1.205832e-002
2.981457e+003,1.202282e-002
2.983386e+003,1.198802e-002
2.985314e+003,1.189109e-002
2.987243e+003,1.185066e-002
2.989171e+003,1.191030e-002
2.991100e+003,1.189933e-002
2.993028e+003,1.186796e-002
2.994957e+003,1.185564e-002
2.996885e+003,1.181893e-002
2.998814e+003,1.179854e-002
3.000742e+003,1.180384e-002
3.002671e+003,1.178285e-002
3.004599e+003,1.182999e-002
3.006528e+003,1.191743e-002
3.008456e+003,1.194028e-002
3.010385e+003,1.193138e-002
3.012313e+003,1.195570e-002
3.014242e+003,1.198147e-002
3.016170e+003,1.201728e-002
3.018099e+003,1.201919e-002
3.020027e+003,1.205150e-002
3.021956e+003,1.203959e-002
3.023884e+003,1.209096e-002
3.025813e+003,1.216429e-002
3.027741e+003,1.219920e-002
3.029670e+003,1.218881e-002
3.031598e+003,1.223480e-002
3.033527e+003,1.219186e-002
3.035455e+003,1.220056e-002
3.037384e+003,1.226151e-002
3.039312e+003,1.227185e-002
3.041241e+003,1.226949e-002
3.043169e+003,1.233182e-002
3.045098e+003,1.236996e-002
3.047026e+003,1.237768e-002
3.048955e+003,1.240999e-002
3.050883e+003,1.239283e-002
3.052812e+003,1.240074e-002
3.054740e+003,1.253038e-002
3.056669e+003,1.261490e-002
3.058597e+003,1.255638e-002
3.060526e+003,1.256477e-002
3.062454e+003,1.266500e-002
3.064383e+003,1.266750e-002
3.066311e+003,1.270051e-002
3.068240e+003,1.272287e-002
3.070168e+003,1.272454e-002
3.072097e+003,1.270791e-002
3.074025e+003,1.270657e-002
3.075954e+003,1.272098e-002
3.077882e+003,1.279558e-002
3.079811e+003,1.287696e-002
3.081739e+003,1.287155e-002
3.083668e+003,1.286296e-002
3.085596e+003,1.293058e-002
3.087525e+003,1.287841e-002
3.089453e+003,1.285829e-002
3.091382e+003,1.291349e-002
3.093310e+003,1.292571e-002
3.095239e+003,1.300101e-002
3.097167e+003,1.305203e-002
3.099096e+003,1.310167e-002
3.101024e+003,1.318094e-002
3.102953e+003,1.314067e-002
3.104881e+003,1.310433e-002
3.106810e+003,1.317041e-002
3.108738e+003,1.316625e-002
3.110667e+003,1.312539e-002
3.112595e+003,1.320793e-002
3.114524e+003,1.329129e-002
3.116452e+003,1.339294e-002
3.118381e+003,1.347044e-002
3.120309e+003,1.347074e-002
3.122238e+003,1.340584e-002
3.124166e+003,1.338866e-002
3.126095e+003,1.348813e-002
3.128023e+003,1.355058e-002
3.129952e+003,1.361442e-002
3.131880e+003,1.365565e-002
3.133809e+003,1.368631e-002
3.135737e+003,1.373866e-002
3.137666e+003,1.377202e-002
3.139594e+003,1.378580e-002
3.141523e+003,1.383475e-002
3.143451e+003,1.381588e-002
3.145380e+003,1.384966e-002
3.147308e+003,1.397793e-002
3.149237e+003,1.403942e-002
3.151165e+003,1.396617e-002
3.153094e+003,1.407322e-002
3.155022e+003,1.414970e-002
3.156951e+003,1.414149e-002
3.158879e+003,1.416455e-002
3.160808e+003,1.423365e-002
3.162736e+003,1.423442e-002
3.164665e+003,1.433872e-002
3.166593e+003,1.442527e-002
3.168522e+003,1.445602e-002
3.170450e+003,1.445756e-002
3.172379e+003,1.453507e-002
3.174307e+003,1.457698e-002
3.176236e+003,1.461548e-002
3.178164e+003,1.468436e-002
3.180093e+003,1.469817e-002
3.182021e+003,1.472549e-002
3.183950e+003,1.477283e-002
3.185878e+003,1.482977e-002
3.187807e+003,1.487669e-002
3.189735e+003,1.488670e-002
3.191664e+003,1.492367e-002
3.193592e+003,1.505118e-002
3.195521e+003,1.512213e-002
3.197449e+003,1.502390e-002
3.199378e+003,1.509074e-002
3.201306e+003,1.517095e-002
3.203235e+003,1.527013e-002
3.205163e+003,1.531601e-002
3.207092e+003,1.529927e-002
3.209020e+003,1.525525e-002
3.210948e+003,1.533764e-002
3.212877e+003,1.548326e-002
3.214806e+003,1.547571e-002
3.216734e+003,1.548634e-002
3.218663e+003,1.558175e-002
3.220591e+003,1.561307e-002
3.222520e+003,1.568839e-002
3.224448e+003,1.576374e-002
3.226376e+003,1.578507e-002
3.228305e+003,1.582970e-002
3.230234e+003,1.590812e-002
3.232162e+003,1.587403e-002
3.234091e+003,1.587255e-002
3.236019e+003,1.600291e-002
3.237948e+003,1.608995e-002
3.239876e+003,1.612995e-002
3.241804e+003,1.614542e-002
3.243733e+003,1.621640e-002
3.245662e+003,1.623762e-002
3.247590e+003,1.625381e-002
3.249519e+003,1.625477e-002
3.251447e+003,1.633303e-002
3.253375e+003,1.640437e-002
3.255304e+003,1.638693e-002
3.257232e+003,1.642700e-002
3.259161e+003,1.638208e-002
3.261090e+003,1.641632e-002
3.263018e+003,1.654834e-002
3.264947e+003,1.664844e-002
3.266875e+003,1.672916e-002
3.268803e+003,1.673190e-002
3.270732e+003,1.677916e-002
3.272660e+003,1.674181e-002
3.274589e+003,1.664826e-002
3.276518e+003,1.669661e-002
3.278446e+003,1.676795e-002
3.280375e+003,1.673687e-002
3.282303e+003,1.676529e-002
3.284231e+003,1.680140e-002
3.286160e+003,1.684743e-002
3.288088e+003,1.679404e-002
3.290017e+003,1.678196e-002
3.291946e+003,1.676387e-002
3.293874e+003,1.670056e-002
3.295802e+003,1.663802e-002
3.297731e+003,1.657521e-002
3.299659e+003,1.665524e-002
3.301588e+003,1.678659e-002
3.303516e+003,1.670160e-002
3.305445e+003,1.664079e-002
3.307374e+003,1.666695e-002
3.309302e+003,1.667498e-002
3.311230e+003,1.666423e-002
3.313159e+003,1.661617e-002
3.315087e+003,1.662492e-002
3.317016e+003,1.660674e-002
3.318944e+003,1.660612e-002
3.320873e+003,1.663544e-002
3.322802e+003,1.654904e-002
3.324730e+003,1.658617e-002
3.326658e+003,1.658443e-002
3.328587e+003,1.652930e-002
3.330515e+003,1.652351e-002
3.332444e+003,1.648802e-002
3.334372e+003,1.643268e-002
3.336301e+003,1.641230e-002
3.338229e+003,1.639367e-002
3.340158e+003,1.632815e-002
3.342086e+003,1.634067e-002
3.344015e+003,1.632424e-002
3.345943e+003,1.629321e-002
3.347872e+003,1.622317e-002
3.349800e+003,1.617786e-002
3.351729e+003,1.610858e-002
3.353657e+003,1.607730e-002
3.355586e+003,1.608553e-002
3.357514e+003,1.608927e-002
3.359443e+003,1.597178e-002
3.361371e+003,1.592901e-002
3.363300e+003,1.592224e-002
3.365229e+003,1.588255e-002
3.367157e+003,1.586714e-002
3.369085e+003,1.585023e-002
3.371014e+003,1.578961e-002
3.372942e+003,1.572947e-002
3.374871e+003,1.559667e-002
3.376799e+003,1.558491e-002
3.378728e+003,1.553230e-002
3.380656e+003,1.547445e-002
3.382585e+003,1.545938e-002
3.384513e+003,1.542834e-002
3.386442e+003,1.542035e-002
3.388370e+003,1.538705e-002
3.390299e+003,1.534354e-002
3.392227e+003,1.527927e-002
3.394156e+003,1.528914e-002
3.396084e+003,1.521194e-002
3.398013e+003,1.518781e-002
3.399941e+003,1.525528e-002
3.401870e+003,1.516551e-002
3.403798e+003,1.503238e-002
3.405727e+003,1.492752e-002
3.407655e+003,1.488501e-002
3.409584e+003,1.488100e-002
3.411512e+003,1.484266e-002
3.413441e+003,1.472268e-002
3.415369e+003,1.469460e-002
3.417298e+003,1.467844e-002
3.419226e+003,1.457179e-002
3.421155e+003,1.439409e-002
3.423083e+003,1.429151e-002
3.425012e+003,1.426694e-002
3.426940e+003,1.422318e-002
3.428869e+003,1.419660e-002
3.430797e+003,1.411419e-002
3.432726e+003,1.401370e-002
3.434654e+003,1.390285e-002
3.436583e+003,1.384564e-002
3.438511e+003,1.373412e-002
3.440440e+003,1.364628e-002
3.442368e+003,1.351642e-002
3.444297e+003,1.349108e-002
3.446225e+003,1.344099e-002
3.448154e+003,1.338530e-002
3.450082e+003,1.328741e-002
3.452011e+003,1.313755e-002
3.453939e+003,1.308397e-002
3.455868e+003,1.305836e-002
3.457796e+003,1.300000e-002
3.459725e+003,1.286655e-002
3.461653e+003,1.273907e-002
3.463582e+003,1.265906e-002
3.465510e+003,1.260719e-002
3.467439e+003,1.242145e-002
3.469367e+003,1.232678e-002
3.471296e+003,1.232194e-002
3.473224e+003,1.223710e-002
3.475153e+003,1.204374e-002
3.477081e+003,1.202284e-002
3.479010e+003,1.199833e-002
3.480938e+003,1.191401e-002
3.482867e+003,1.181277e-002
3.484795e+003,1.178498e-002
3.486724e+003,1.180277e-002
3.488652e+003,1.169581e-002
3.490581e+003,1.159047e-002
3.492509e+003,1.148645e-002
3.494438e+003,1.140672e-002
3.496366e+003,1.137176e-002
3.498295e+003,1.131490e-002
3.500223e+003,1.128106e-002
3.502152e+003,1.117196e-002
3.504080e+003,1.106785e-002
3.506009e+003,1.100147e-002
3.507937e+003,1.089296e-002
3.509866e+003,1.089538e-002
3.511794e+003,1.083382e-002
3.513723e+003,1.079171e-002
3.515651e+003,1.075369e-002
3.517580e+003,1.067083e-002
3.519508e+003,1.058880e-002
3.521437e+003,1.052292e-002
3.523365e+003,1.044820e-002
3.525294e+003,1.044153e-002
3.527222e+003,1.039363e-002
3.529151e+003,1.032741e-002
3.531079e+003,1.023684e-002
3.533008e+003,1.011222e-002
3.534936e+003,1.007879e-002
3.536865e+003,1.006057e-002
3.538793e+003,1.003275e-002
3.540722e+003,9.992439e-003
3.542650e+003,9.922042e-003
3.544579e+003,9.742652e-003
3.546507e+003,9.615056e-003
3.548436e+003,9.570660e-003
3.550364e+003,9.603181e-003
3.552293e+003,9.613071e-003
3.554221e+003,9.590757e-003
3.556150e+003,9.573243e-003
3.558078e+003,9.419232e-003
3.560007e+003,9.292167e-003
3.561935e+003,9.205719e-003
3.563864e+003,9.149847e-003
3.565792e+003,9.076421e-003
3.567721e+003,8.999513e-003
3.569649e+003,9.031530e-003
3.571578e+003,9.003651e-003
3.573506e+003,8.971351e-003
3.575435e+003,8.874499e-003
3.577363e+003,8.764653e-003
3.579292e+003,8.699862e-003
3.581220e+003,8.624284e-003
3.583149e+003,8.455042e-003
3.585077e+003,8.260563e-003
3.587006e+003,8.212367e-003
3.588934e+003,8.099201e-003
3.590863e+003,7.933190e-003
3.592791e+003,7.741521e-003
3.594720e+003,7.594838e-003
3.596648e+003,7.438350e-003
3.598577e+003,7.373353e-003
3.600505e+003,7.302659e-003
3.602434e+003,7.287058e-003
3.604362e+003,7.387405e-003
3.606291e+003,7.552140e-003
3.608219e+003,7.702870e-003
3.610148e+003,7.855706e-003
3.612076e+003,7.964422e-003
3.614005e+003,7.866117e-003
3.615933e+003,7.515313e-003
3.617862e+003,7.233733e-003
3.619790e+003,7.024523e-003
3.621719e+003,6.855083e-003
3.623647e+003,6.697712e-003
3.625576e+003,6.664349e-003
3.627504e+003,6.678641e-003
3.629433e+003,6.732464e-003
3.631361e+003,6.822303e-003
3.633290e+003,6.945474e-003
3.635218e+003,7.071366e-003
3.637146e+003,7.126857e-003
3.639075e+003,7.158312e-003
3.641004e+003,7.316210e-003
3.642932e+003,7.442721e-003
3.644861e+003,7.488920e-003
3.646789e+003,7.425125e-003
3.648718e+003,7.427792e-003
3.650646e+003,7.453811e-003
3.652574e+003,7.573267e-003
3.654503e+003,7.631211e-003
3.656432e+003,7.555971e-003
3.658360e+003,7.510885e-003
3.660289e+003,7.467657e-003
3.662217e+003,7.412882e-003
3.664146e+003,7.431159e-003
3.666074e+003,7.436765e-003
3.668002e+003,7.361895e-003
3.669931e+003,7.357283e-003
3.671860e+003,7.377421e-003
3.673788e+003,7.336508e-003
3.675717e+003,7.244728e-003
3.677645e+003,7.135489e-003
3.679573e+003,7.089355e-003
3.681502e+003,7.040833e-003
3.683430e+003,6.993284e-003
3.685359e+003,6.933968e-003
3.687288e+003,6.993594e-003
3.689216e+003,6.876732e-003
3.691145e+003,6.739914e-003
3.693073e+003,6.625439e-003
3.695001e+003,6.364559e-003
3.696930e+003,6.178330e-003
3.698858e+003,6.043687e-003
3.700787e+003,5.931996e-003
3.702716e+003,5.907243e-003
3.704644e+003,5.941055e-003
3.706573e+003,6.047524e-003
3.708501e+003,6.300627e-003
3.710429e+003,6.444064e-003
3.712358e+003,6.598887e-003
3.714286e+003,6.981431e-003
3.716215e+003,6.839751e-003
3.718144e+003,6.441442e-003
3.720072e+003,6.086307e-003
3.722000e+003,5.725360e-003
3.723929e+003,5.455383e-003
3.725857e+003,5.396936e-003
3.727786e+003,5.401874e-003
3.729714e+003,5.294411e-003
3.731643e+003,5.461673e-003
3.733572e+003,5.661757e-003
3.735500e+003,5.869421e-003
3.737428e+003,6.164013e-003
3.739357e+003,6.332456e-003
3.741285e+003,6.477164e-003
3.743214e+003,6.821013e-003
3.745142e+003,6.928832e-003
3.747071e+003,6.985073e-003
3.749000e+003,7.130561e-003
3.750928e+003,7.118581e-003
3.752856e+003,7.165423e-003
3.754785e+003,7.205259e-003
3.756713e+003,7.117199e-003
3.758642e+003,7.025400e-003
3.760570e+003,7.138752e-003
3.762499e+003,7.266921e-003
3.764427e+003,7.283460e-003
3.766356e+003,7.158792e-003
3.768284e+003,7.124968e-003
3.770213e+003,7.072358e-003
3.772141e+003,7.069135e-003
3.774070e+003,7.123523e-003
3.775998e+003,7.149633e-003
3.777927e+003,7.169058e-003
3.779855e+003,7.214831e-003
3.781784e+003,7.206175e-003
3.783712e+003,7.130339e-003
3.785641e+003,7.149800e-003
3.787569e+003,7.226896e-003
3.789498e+003,7.232097e-003
3.791426e+003,7.175440e-003
3.793355e+003,7.213712e-003
3.795283e+003,7.168138e-003
3.797212e+003,7.166919e-003
3.799140e+003,7.335176e-003
3.801069e+003,7.363879e-003
3.802997e+003,7.311258e-003
3.804926e+003,7.397290e-003
3.806854e+003,7.333713e-003
3.808783e+003,7.239808e-003
3.810711e+003,7.289364e-003
3.812640e+003,7.290076e-003
3.814568e+003,7.317780e-003
3.816497e+003,7.390733e-003
3.818425e+003,7.359780e-003
3.820354e+003,7.256725e-003
3.822282e+003,7.235556e-003
3.824211e+003,7.253465e-003
3.826139e+003,7.282374e-003
3.828068e+003,7.249257e-003
3.829996e+003,7.293606e-003
3.831925e+003,7.309600e-003
3.833853e+003,7.264748e-003
3.835782e+003,7.245168e-003
3.837710e+003,7.219196e-003
3.839639e+003,7.256901e-003
3.841567e+003,7.348056e-003
3.843496e+003,7.281176e-003
3.845424e+003,7.289697e-003
3.847353e+003,7.235170e-003
3.849281e+003,7.255379e-003
3.851210e+003,7.307190e-003
3.853138e+003,7.335264e-003
3.855067e+003,7.267363e-003
3.856995e+003,7.238022e-003
3.858924e+003,7.238797e-003
3.860852e+003,7.167915e-003
3.862781e+003,7.173972e-003
3.864709e+003,7.322145e-003
3.866638e+003,7.344948e-003
3.868566e+003,7.338706e-003
3.870495e+003,7.294709e-003
3.872423e+003,7.198646e-003
3.874352e+003,7.168843e-003
3.876280e+003,7.170117e-003
3.878209e+003,7.214216e-003
3.880137e+003,7.224862e-003
3.882066e+003,7.259036e-003
3.883994e+003,7.237103e-003
3.885923e+003,7.179395e-003
3.887851e+003,7.190418e-003
3.889780e+003,7.264772e-003
3.891708e+003,7.337820e-003
3.893637e+003,7.301953e-003
3.895565e+003,7.233186e-003
3.897494e+003,7.341417e-003
3.899422e+003,7.338741e-003
3.901351e+003,7.172045e-003
3.903279e+003,7.210397e-003
3.905208e+003,7.216237e-003
3.907136e+003,7.286891e-003
3.909065e+003,7.344671e-003
3.910993e+003,7.303854e-003
3.912922e+003,7.259840e-003
3.914850e+003,7.328418e-003
3.916779e+003,7.295411e-003
3.918707e+003,7.201932e-003
3.920636e+003,7.242377e-003
3.922564e+003,7.289274e-003
3.924493e+003,7.253355e-003
3.926421e+003,7.263315e-003
3.928350e+003,7.273852e-003
3.930278e+003,7.245079e-003
3.932207e+003,7.287958e-003
3.934135e+003,7.297321e-003
3.936064e+003,7.268270e-003
3.937992e+003,7.284287e-003
3.939921e+003,7.315693e-003
3.941849e+003,7.261501e-003
3.943778e+003,7.213425e-003
3.945706e+003,7.244395e-003
3.947635e+003,7.309026e-003
3.949563e+003,7.264821e-003
3.951492e+003,7.300805e-003
3.953420e+003,7.260582e-003
3.955349e+003,7.230802e-003
3.957277e+003,7.246456e-003
3.959206e+003,7.323764e-003
3.961134e+003,7.254319e-003
3.963063e+003,7.146439e-003
3.964991e+003,7.249786e-003
3.966920e+003,7.275531e-003
3.968848e+003,7.226842e-003
3.970777e+003,7.243476e-003
3.972705e+003,7.184150e-003
3.974634e+003,7.156135e-003
3.976562e+003,7.204539e-003
3.978491e+003,7.312021e-003
3.980419e+003,7.327183e-003
3.982348e+003,7.286780e-003
3.984276e+003,7.250457e-003
3.986205e+003,7.228904e-003
3.988133e+003,7.240277e-003
3.990062e+003,7.281583e-003
3.991990e+003,7.216027e-003
3.993919e+003,7.169420e-003
3.995847e+003,7.217675e-003
3.997776e+003,7.301413e-003
3.999704e+003,7.301788e-003
4.001633e+003,0.000000e+000
