3.991989e+002,4.906924e-002
4.011274e+002,4.468017e-002
4.030559e+002,4.468017e-002
4.049844e+002,4.515752e-002
4.069129e+002,4.650616e-002
4.088414e+002,4.585237e-002
4.107699e+002,4.397609e-002
4.126984e+002,4.414327e-002
4.146269e+002,4.544016e-002
4.165554e+002,4.774924e-002
4.184839e+002,4.649213e-002
4.204124e+002,4.557314e-002
4.223409e+002,4.616743e-002
4.242694e+002,4.552075e-002
4.261979e+002,4.626488e-002
4.281264e+002,4.641632e-002
4.300549e+002,4.704883e-002
4.319834e+002,4.703504e-002
4.339119e+002,4.607082e-002
4.358404e+002,4.644869e-002
4.377689e+002,4.681136e-002
4.396974e+002,4.618886e-002
4.416259e+002,4.586286e-002
4.435544e+002,4.565223e-002
4.454829e+002,4.616103e-002
4.474114e+002,4.681093e-002
4.493399e+002,4.585750e-002
4.512684e+002,4.524956e-002
4.531969e+002,4.453601e-002
4.551254e+002,4.476025e-002
4.570539e+002,4.482199e-002
4.589824e+002,4.484404e-002
4.609109e+002,4.538629e-002
4.628394e+002,4.546831e-002
4.647679e+002,4.529376e-002
4.666964e+002,4.544894e-002
4.686249e+002,4.534554e-002
4.705533e+002,4.573093e-002
4.724819e+002,4.554256e-002
4.744103e+002,4.551470e-002
4.763389e+002,4.466218e-002
4.782673e+002,4.424732e-002
4.801959e+002,4.396092e-002
4.821243e+002,4.381656e-002
4.840529e+002,4.373521e-002
4.859813e+002,4.380375e-002
4.879099e+002,4.400408e-002
4.898383e+002,4.410562e-002
4.917668e+002,4.385156e-002
4.936953e+002,4.352742e-002
4.956238e+002,4.336950e-002
4.975523e+002,4.324833e-002
4.994808e+002,4.271170e-002
5.014093e+002,4.275341e-002
5.033378e+002,4.290856e-002
5.052663e+002,4.328166e-002
5.071948e+002,4.298829e-002
5.091233e+002,4.308124e-002
5.110518e+002,4.293220e-002
5.129803e+002,4.290278e-002
5.149088e+002,4.273595e-002
5.168373e+002,4.316816e-002
5.187658e+002,4.313530e-002
5.206943e+002,4.318452e-002
5.226228e+002,4.293444e-002
5.245513e+002,4.294630e-002
5.264798e+002,4.289691e-002
5.284083e+002,4.325993e-002
5.303368e+002,4.313513e-002
5.322653e+002,4.279563e-002
5.341938e+002,4.271127e-002
5.361223e+002,4.276195e-002
5.380508e+002,4.263732e-002
5.399792e+002,4.256207e-002
5.419078e+002,4.239814e-002
5.438363e+002,4.261453e-002
5.457648e+002,4.257997e-002
5.476932e+002,4.221309e-002
5.496218e+002,4.253373e-002
5.515503e+002,4.255415e-002
5.534788e+002,4.257575e-002
5.554072e+002,4.312859e-002
5.573358e+002,4.323369e-002
5.592643e+002,4.344564e-002
5.611927e+002,4.308100e-002
5.631212e+002,4.273127e-002
5.650497e+002,4.217722e-002
5.669783e+002,4.180305e-002
5.689067e+002,4.161848e-002
5.708352e+002,4.145610e-002
5.727637e+002,4.120976e-002
5.746923e+002,4.097848e-002
5.766207e+002,4.085318e-002
5.785492e+002,4.114349e-002
5.804777e+002,4.133173e-002
5.824063e+002,4.089729e-002
5.843347e+002,4.059045e-002
5.862632e+002,4.055285e-002
5.881917e+002,4.033049e-002
5.901202e+002,4.039215e-002
5.920487e+002,4.055097e-002
5.939772e+002,4.032139e-002
5.959057e+002,4.011682e-002
5.978342e+002,4.020860e-002
5.997627e+002,3.972500e-002
6.016912e+002,3.959033e-002
6.036197e+002,3.938355e-002
6.055482e+002,3.933692e-002
6.074767e+002,3.928224e-002
6.094052e+002,3.921231e-002
6.113337e+002,3.903956e-002
6.132622e+002,3.885093e-002
6.151907e+002,3.841079e-002
6.171192e+002,3.837904e-002
6.190477e+002,3.794887e-002
6.209762e+002,3.734376e-002
6.229047e+002,3.693546e-002
6.248332e+002,3.658091e-002
6.267617e+002,3.636126e-002
6.286902e+002,3.603859e-002
6.306187e+002,3.576983e-002
6.325472e+002,3.560272e-002
6.344756e+002,3.525925e-002
6.364042e+002,3.526125e-002
6.383326e+002,3.498445e-002
6.402612e+002,3.472197e-002
6.421896e+002,3.451757e-002
6.441182e+002,3.423627e-002
6.460466e+002,3.395024e-002
6.479752e+002,3.400088e-002
6.499036e+002,3.392875e-002
6.518322e+002,3.375310e-002
6.537606e+002,3.356069e-002
6.556891e+002,3.356002e-002
6.576177e+002,3.380141e-002
6.595461e+002,3.382079e-002
6.614746e+002,3.374297e-002
6.634031e+002,3.388566e-002
6.653317e+002,3.375464e-002
6.672601e+002,3.337624e-002
6.691886e+002,3.302449e-002
6.711171e+002,3.265141e-002
6.730457e+002,3.229159e-002
6.749741e+002,3.178807e-002
6.769026e+002,3.129915e-002
6.788311e+002,3.094099e-002
6.807596e+002,3.034532e-002
6.826881e+002,2.997755e-002
6.846166e+002,2.974063e-002
6.865451e+002,2.956619e-002
6.884736e+002,2.936639e-002
6.904021e+002,2.949595e-002
6.923306e+002,2.949562e-002
6.942591e+002,2.943649e-002
6.961876e+002,2.910424e-002
6.981161e+002,2.906763e-002
7.000446e+002,2.904227e-002
7.019731e+002,2.879949e-002
7.039016e+002,2.860013e-002
7.058301e+002,2.857121e-002
7.077585e+002,2.832280e-002
7.096871e+002,2.804607e-002
7.116156e+002,2.793739e-002
7.135441e+002,2.781132e-002
7.154725e+002,2.756832e-002
7.174011e+002,2.757491e-002
7.193296e+002,2.759974e-002
7.212581e+002,2.723913e-002
7.231865e+002,2.689004e-002
7.251151e+002,2.665048e-002
7.270436e+002,2.638145e-002
7.289720e+002,2.631573e-002
7.309005e+002,2.605297e-002
7.328290e+002,2.560605e-002
7.347576e+002,2.532841e-002
7.366860e+002,2.528428e-002
7.386145e+002,2.521225e-002
7.405430e+002,2.511586e-002
7.424716e+002,2.484138e-002
7.444000e+002,2.461418e-002
7.463285e+002,2.437771e-002
7.482570e+002,2.424110e-002
7.501855e+002,2.411649e-002
7.521140e+002,2.402318e-002
7.540425e+002,2.384784e-002
7.559710e+002,2.374568e-002
7.578995e+002,2.358244e-002
7.598280e+002,2.344739e-002
7.617565e+002,2.341522e-002
7.636850e+002,2.331987e-002
7.656135e+002,2.315331e-002
7.675420e+002,2.307307e-002
7.694705e+002,2.310666e-002
7.713990e+002,2.302790e-002
7.733275e+002,2.293619e-002
7.752560e+002,2.294458e-002
7.771844e+002,2.287933e-002
7.791130e+002,2.281350e-002
7.810415e+002,2.269042e-002
7.829700e+002,2.267551e-002
7.848984e+002,2.268553e-002
7.868270e+002,2.264458e-002
7.887555e+002,2.253265e-002
7.906840e+002,2.247598e-002
7.926124e+002,2.243983e-002
7.945410e+002,2.243843e-002
7.964695e+002,2.228759e-002
7.983979e+002,2.221236e-002
8.003264e+002,2.216550e-002
8.022549e+002,2.211773e-002
8.041835e+002,2.209423e-002
8.061119e+002,2.197700e-002
8.080404e+002,2.179399e-002
8.099689e+002,2.181256e-002
8.118975e+002,2.189252e-002
8.138259e+002,2.181141e-002
8.157545e+002,2.163498e-002
8.176830e+002,2.168394e-002
8.196115e+002,2.158887e-002
8.215399e+002,2.140006e-002
8.234684e+002,2.135148e-002
8.253970e+002,2.128664e-002
8.273254e+002,2.117314e-002
8.292539e+002,2.132349e-002
8.311824e+002,2.133787e-002
8.331110e+002,2.122550e-002
8.350394e+002,2.115070e-002
8.369679e+002,2.107018e-002
8.388964e+002,2.111877e-002
8.408250e+002,2.118024e-002
8.427534e+002,2.111341e-002
8.446819e+002,2.102003e-002
8.466104e+002,2.101989e-002
8.485389e+002,2.103495e-002
8.504674e+002,2.103589e-002
8.523959e+002,2.106228e-002
8.543244e+002,2.111773e-002
8.562529e+002,2.104246e-002
8.581814e+002,2.099513e-002
8.601099e+002,2.103853e-002
8.620384e+002,2.111463e-002
8.639669e+002,2.113599e-002
8.658954e+002,2.111954e-002
8.678239e+002,2.116093e-002
8.697524e+002,2.125480e-002
8.716809e+002,2.126754e-002
8.736094e+002,2.133933e-002
8.755378e+002,2.154005e-002
8.774664e+002,2.169046e-002
8.793949e+002,2.184353e-002
8.813234e+002,2.197812e-002
8.832518e+002,2.217352e-002
8.851804e+002,2.239493e-002
8.871089e+002,2.277460e-002
8.890374e+002,2.320451e-002
8.909658e+002,2.348695e-002
8.928943e+002,2.362985e-002
8.948229e+002,2.383663e-002
8.967513e+002,2.405816e-002
8.986798e+002,2.407329e-002
9.006083e+002,2.395577e-002
9.025369e+002,2.368104e-002
9.044653e+002,2.337777e-002
9.063938e+002,2.314289e-002
9.083223e+002,2.295415e-002
9.102509e+002,2.286997e-002
9.121793e+002,2.284378e-002
9.141078e+002,2.276950e-002
9.160364e+002,2.278612e-002
9.179648e+002,2.284632e-002
9.198933e+002,2.293640e-002
9.218218e+002,2.307419e-002
9.237504e+002,2.320402e-002
9.256788e+002,2.333434e-002
9.276073e+002,2.345701e-002
9.295358e+002,2.364549e-002
9.314644e+002,2.387349e-002
9.333928e+002,2.413528e-002
9.353213e+002,2.446943e-002
9.372498e+002,2.480044e-002
9.391783e+002,2.507890e-002
9.411068e+002,2.541030e-002
9.430353e+002,2.586006e-002
9.449637e+002,2.634708e-002
9.468923e+002,2.684236e-002
9.488208e+002,2.729982e-002
9.507493e+002,2.785590e-002
9.526777e+002,2.839210e-002
9.546063e+002,2.888058e-002
9.565348e+002,2.950801e-002
9.584633e+002,3.012978e-002
9.603917e+002,3.072331e-002
9.623203e+002,3.132898e-002
9.642488e+002,3.188193e-002
9.661772e+002,3.232071e-002
9.681057e+002,3.288911e-002
9.700343e+002,3.339374e-002
9.719628e+002,3.392780e-002
9.738912e+002,3.455999e-002
9.758197e+002,3.530819e-002
9.777483e+002,3.608441e-002
9.796768e+002,3.688950e-002
9.816052e+002,3.779027e-002
9.835337e+002,3.872928e-002
9.854623e+002,3.965407e-002
9.873907e+002,4.036820e-002
9.893192e+002,4.082988e-002
9.912477e+002,4.114256e-002
9.931763e+002,4.133949e-002
9.951047e+002,4.151733e-002
9.970332e+002,4.173646e-002
9.989617e+002,4.205228e-002
1.000890e+003,4.254261e-002
1.002819e+003,4.305533e-002
1.004747e+003,4.347555e-002
1.006676e+003,4.390356e-002
1.008604e+003,4.436310e-002
1.010533e+003,4.485843e-002
1.012461e+003,4.534690e-002
1.014390e+003,4.583897e-002
1.016318e+003,4.649557e-002
1.018247e+003,4.719745e-002
1.020175e+003,4.786373e-002
1.022104e+003,4.847702e-002
1.024032e+003,4.904357e-002
1.025961e+003,4.969887e-002
1.027889e+003,5.035226e-002
1.029818e+003,5.092116e-002
1.031746e+003,5.144048e-002
1.033675e+003,5.172058e-002
1.035603e+003,5.166695e-002
1.037532e+003,5.122113e-002
1.039460e+003,5.062868e-002
1.041389e+003,5.005544e-002
1.043317e+003,4.963509e-002
1.045246e+003,4.931356e-002
1.047174e+003,4.906245e-002
1.049103e+003,4.882858e-002
1.051031e+003,4.863520e-002
1.052960e+003,4.838989e-002
1.054888e+003,4.793847e-002
1.056817e+003,4.736862e-002
1.058745e+003,4.674649e-002
1.060674e+003,4.607418e-002
1.062602e+003,4.532965e-002
1.064531e+003,4.452878e-002
1.066459e+003,4.373312e-002
1.068388e+003,4.294046e-002
1.070316e+003,4.225397e-002
1.072245e+003,4.168033e-002
1.074173e+003,4.111863e-002
1.076102e+003,4.046534e-002
1.078030e+003,3.979309e-002
1.079959e+003,3.910223e-002
1.081887e+003,3.848031e-002
1.083816e+003,3.797184e-002
1.085744e+003,3.757146e-002
1.087673e+003,3.721044e-002
1.089601e+003,3.697027e-002
1.091530e+003,3.678855e-002
1.093458e+003,3.654789e-002
1.095387e+003,3.630305e-002
1.097315e+003,3.614148e-002
1.099244e+003,3.603671e-002
1.101172e+003,3.593476e-002
1.103101e+003,3.572818e-002
1.105029e+003,3.538749e-002
1.106958e+003,3.492783e-002
1.108886e+003,3.426434e-002
1.110815e+003,3.353317e-002
1.112743e+003,3.272953e-002
1.114672e+003,3.182762e-002
1.116600e+003,3.096627e-002
1.118529e+003,3.019712e-002
1.120457e+003,2.945333e-002
1.122386e+003,2.878048e-002
1.124314e+003,2.814371e-002
1.126243e+003,2.742167e-002
1.128171e+003,2.670214e-002
1.130100e+003,2.603987e-002
1.132028e+003,2.541571e-002
1.133957e+003,2.485513e-002
1.135885e+003,2.435272e-002
1.137814e+003,2.403007e-002
1.139742e+003,2.389250e-002
1.141671e+003,2.392954e-002
1.143599e+003,2.404951e-002
1.145528e+003,2.419073e-002
1.147456e+003,2.434168e-002
1.149385e+003,2.457429e-002
1.151313e+003,2.488001e-002
1.153242e+003,2.519686e-002
1.155170e+003,2.545629e-002
1.157099e+003,2.560988e-002
1.159027e+003,2.564159e-002
1.160956e+003,2.553949e-002
1.162884e+003,2.532237e-002
1.164813e+003,2.486850e-002
1.166741e+003,2.419809e-002
1.168670e+003,2.340980e-002
1.170598e+003,2.255020e-002
1.172526e+003,2.170084e-002
1.174455e+003,2.097986e-002
1.176384e+003,2.036528e-002
1.178312e+003,1.976649e-002
1.180240e+003,1.926673e-002
1.182169e+003,1.885108e-002
1.184098e+003,1.852661e-002
1.186026e+003,1.830705e-002
1.187954e+003,1.818339e-002
1.189883e+003,1.813277e-002
1.191812e+003,1.816561e-002
1.193740e+003,1.827040e-002
1.195668e+003,1.848453e-002
1.197597e+003,1.867420e-002
1.199526e+003,1.884047e-002
1.201454e+003,1.895514e-002
1.203382e+003,1.897377e-002
1.205311e+003,1.887495e-002
1.207240e+003,1.880884e-002
1.209168e+003,1.880062e-002
1.211096e+003,1.880840e-002
1.213025e+003,1.882257e-002
1.214953e+003,1.888526e-002
1.216882e+003,1.900987e-002
1.218810e+003,1.919328e-002
1.220739e+003,1.934194e-002
1.222667e+003,1.950694e-002
1.224596e+003,1.972647e-002
1.226524e+003,1.997605e-002
1.228453e+003,2.020122e-002
1.230381e+003,2.037987e-002
1.232310e+003,2.052488e-002
1.234238e+003,2.061772e-002
1.236167e+003,2.070000e-002
1.238095e+003,2.071925e-002
1.240024e+003,2.073679e-002
1.241952e+003,2.072721e-002
1.243881e+003,2.071754e-002
1.245809e+003,2.068008e-002
1.247738e+003,2.060115e-002
1.249666e+003,2.047568e-002
1.251595e+003,2.031925e-002
1.253523e+003,2.019721e-002
1.255452e+003,2.004525e-002
1.257380e+003,1.986693e-002
1.259309e+003,1.968968e-002
1.261237e+003,1.949906e-002
1.263166e+003,1.930315e-002
1.265094e+003,1.910930e-002
1.267023e+003,1.885375e-002
1.268951e+003,1.858948e-002
1.270880e+003,1.839386e-002
1.272808e+003,1.820306e-002
1.274737e+003,1.803379e-002
1.276665e+003,1.789655e-002
1.278594e+003,1.777291e-002
1.280522e+003,1.768664e-002
1.282451e+003,1.759598e-002
1.284379e+003,1.748430e-002
1.286308e+003,1.738611e-002
1.288236e+003,1.729049e-002
1.290165e+003,1.724284e-002
1.292093e+003,1.729767e-002
1.294022e+003,1.735834e-002
1.295950e+003,1.743651e-002
1.297879e+003,1.752673e-002
1.299807e+003,1.762091e-002
1.301736e+003,1.778611e-002
1.303664e+003,1.798375e-002
1.305593e+003,1.816263e-002
1.307521e+003,1.835295e-002
1.309450e+003,1.853804e-002
1.311378e+003,1.871588e-002
1.313307e+003,1.886347e-002
1.315235e+003,1.890782e-002
1.317164e+003,1.889730e-002
1.319092e+003,1.884211e-002
1.321021e+003,1.870905e-002
1.322949e+003,1.854820e-002
1.324878e+003,1.839514e-002
1.326806e+003,1.826546e-002
1.328735e+003,1.821897e-002
1.330663e+003,1.817945e-002
1.332592e+003,1.818084e-002
1.334520e+003,1.817455e-002
1.336449e+003,1.812924e-002
1.338377e+003,1.805277e-002
1.340306e+003,1.796664e-002
1.342234e+003,1.790897e-002
1.344163e+003,1.786784e-002
1.346091e+003,1.787886e-002
1.348020e+003,1.790863e-002
1.349948e+003,1.797076e-002
1.351877e+003,1.806563e-002
1.353805e+003,1.818378e-002
1.355734e+003,1.828764e-002
1.357662e+003,1.840303e-002
1.359591e+003,1.851917e-002
1.361519e+003,1.866603e-002
1.363448e+003,1.879983e-002
1.365376e+003,1.889110e-002
1.367305e+003,1.893939e-002
1.369233e+003,1.892778e-002
1.371162e+003,1.887308e-002
1.373090e+003,1.879721e-002
1.375019e+003,1.867486e-002
1.376947e+003,1.852714e-002
1.378876e+003,1.833968e-002
1.380804e+003,1.811470e-002
1.382733e+003,1.790012e-002
1.384661e+003,1.771208e-002
1.386590e+003,1.752080e-002
1.388518e+003,1.734711e-002
1.390447e+003,1.719732e-002
1.392375e+003,1.711325e-002
1.394304e+003,1.702019e-002
1.396232e+003,1.698131e-002
1.398161e+003,1.702464e-002
1.400089e+003,1.706046e-002
1.402018e+003,1.708568e-002
1.403946e+003,1.708796e-002
1.405875e+003,1.709993e-002
1.407803e+003,1.715728e-002
1.409732e+003,1.720873e-002
1.411660e+003,1.726386e-002
1.413589e+003,1.737955e-002
1.415517e+003,1.748215e-002
1.417446e+003,1.751281e-002
1.419374e+003,1.761573e-002
1.421303e+003,1.769038e-002
1.423231e+003,1.768158e-002
1.425160e+003,1.767916e-002
1.427088e+003,1.765163e-002
1.429017e+003,1.761951e-002
1.430945e+003,1.762743e-002
1.432874e+003,1.755292e-002
1.434802e+003,1.743198e-002
1.436731e+003,1.732961e-002
1.438659e+003,1.726211e-002
1.440588e+003,1.719766e-002
1.442516e+003,1.710248e-002
1.444445e+003,1.703049e-002
1.446373e+003,1.700923e-002
1.448302e+003,1.701394e-002
1.450230e+003,1.699859e-002
1.452159e+003,1.695370e-002
1.454087e+003,1.689246e-002
1.456016e+003,1.676844e-002
1.457944e+003,1.664676e-002
1.459873e+003,1.660052e-002
1.461801e+003,1.663361e-002
1.463730e+003,1.647815e-002
1.465658e+003,1.619153e-002
1.467587e+003,1.588805e-002
1.469515e+003,1.557235e-002
1.471444e+003,1.529123e-002
1.473372e+003,1.493384e-002
1.475301e+003,1.446986e-002
1.477229e+003,1.420137e-002
1.479158e+003,1.406310e-002
1.481086e+003,1.402162e-002
1.483015e+003,1.401727e-002
1.484943e+003,1.404542e-002
1.486872e+003,1.413236e-002
1.488800e+003,1.425117e-002
1.490729e+003,1.439855e-002
1.492657e+003,1.456005e-002
1.494586e+003,1.473103e-002
1.496514e+003,1.496062e-002
1.498443e+003,1.516823e-002
1.500371e+003,1.537779e-002
1.502300e+003,1.556158e-002
1.504228e+003,1.572197e-002
1.506157e+003,1.587508e-002
1.508085e+003,1.606701e-002
1.510014e+003,1.624109e-002
1.511942e+003,1.648720e-002
1.513871e+003,1.663988e-002
1.515799e+003,1.667074e-002
1.517728e+003,1.668240e-002
1.519656e+003,1.662313e-002
1.521585e+003,1.652071e-002
1.523513e+003,1.647298e-002
1.525442e+003,1.645450e-002
1.527370e+003,1.645599e-002
1.529299e+003,1.646422e-002
1.531227e+003,1.649665e-002
1.533156e+003,1.648772e-002
1.535084e+003,1.653244e-002
1.537013e+003,1.653497e-002
1.538941e+003,1.647997e-002
1.540870e+003,1.641457e-002
1.542798e+003,1.635766e-002
1.544727e+003,1.626310e-002
1.546655e+003,1.618174e-002
1.548584e+003,1.608039e-002
1.550512e+003,1.600924e-002
1.552441e+003,1.593812e-002
1.554369e+003,1.583963e-002
1.556298e+003,1.567399e-002
1.558226e+003,1.561682e-002
1.560155e+003,1.563642e-002
1.562083e+003,1.553995e-002
1.564012e+003,1.550392e-002
1.565940e+003,1.546054e-002
1.567869e+003,1.539695e-002
1.569797e+003,1.535796e-002
1.571726e+003,1.537618e-002
1.573654e+003,1.544605e-002
1.575583e+003,1.555596e-002
1.577511e+003,1.562678e-002
1.579440e+003,1.572249e-002
1.581368e+003,1.584016e-002
1.583297e+003,1.597548e-002
1.585225e+003,1.610129e-002
1.587154e+003,1.621257e-002
1.589082e+003,1.634880e-002
1.591010e+003,1.648179e-002
1.592939e+003,1.660492e-002
1.594868e+003,1.673624e-002
1.596796e+003,1.685132e-002
1.598724e+003,1.695189e-002
1.600653e+003,1.708306e-002
1.602582e+003,1.723701e-002
1.604510e+003,1.732358e-002
1.606438e+003,1.747029e-002
1.608367e+003,1.768115e-002
1.610296e+003,1.790682e-002
1.612224e+003,1.817636e-002
1.614152e+003,1.847779e-002
1.616081e+003,1.879144e-002
1.618010e+003,1.911966e-002
1.619938e+003,1.937493e-002
1.621866e+003,1.953109e-002
1.623795e+003,1.967382e-002
1.625724e+003,1.974553e-002
1.627652e+003,1.972239e-002
1.629580e+003,1.963381e-002
1.631509e+003,1.949871e-002
1.633438e+003,1.941252e-002
1.635366e+003,1.930039e-002
1.637294e+003,1.920816e-002
1.639223e+003,1.911425e-002
1.641151e+003,1.907236e-002
1.643080e+003,1.904366e-002
1.645008e+003,1.897783e-002
1.646937e+003,1.888420e-002
1.648865e+003,1.881662e-002
1.650794e+003,1.872370e-002
1.652722e+003,1.855277e-002
1.654651e+003,1.839663e-002
1.656579e+003,1.815191e-002
1.658508e+003,1.793944e-002
1.660436e+003,1.767609e-002
1.662365e+003,1.731880e-002
1.664293e+003,1.703457e-002
1.666222e+003,1.675987e-002
1.668150e+003,1.640218e-002
1.670079e+003,1.605330e-002
1.672007e+003,1.579553e-002
1.673936e+003,1.553186e-002
1.675864e+003,1.529524e-002
1.677793e+003,1.505990e-002
1.679721e+003,1.481690e-002
1.681650e+003,1.456239e-002
1.683578e+003,1.435687e-002
1.685507e+003,1.423705e-002
1.687435e+003,1.400136e-002
1.689364e+003,1.377057e-002
1.691292e+003,1.358640e-002
1.693221e+003,1.345200e-002
1.695149e+003,1.335266e-002
1.697078e+003,1.317483e-002
1.699006e+003,1.287361e-002
1.700935e+003,1.272259e-002
1.702863e+003,1.262656e-002
1.704792e+003,1.263164e-002
1.706720e+003,1.261393e-002
1.708649e+003,1.264897e-002
1.710577e+003,1.269287e-002
1.712506e+003,1.273178e-002
1.714434e+003,1.279900e-002
1.716363e+003,1.294531e-002
1.718291e+003,1.301961e-002
1.720220e+003,1.308303e-002
1.722148e+003,1.316816e-002
1.724077e+003,1.319024e-002
1.726005e+003,1.318146e-002
1.727934e+003,1.323290e-002
1.729862e+003,1.329044e-002
1.731791e+003,1.328479e-002
1.733719e+003,1.322016e-002
1.735648e+003,1.313063e-002
1.737576e+003,1.285949e-002
1.739505e+003,1.263496e-002
1.741433e+003,1.233431e-002
1.743362e+003,1.193150e-002
1.745290e+003,1.167296e-002
1.747219e+003,1.147454e-002
1.749147e+003,1.123987e-002
1.751076e+003,1.108356e-002
1.753004e+003,1.090821e-002
1.754933e+003,1.072933e-002
1.756861e+003,1.063223e-002
1.758790e+003,1.052169e-002
1.760718e+003,1.043353e-002
1.762647e+003,1.036410e-002
1.764575e+003,1.028425e-002
1.766504e+003,1.025735e-002
1.768432e+003,1.027776e-002
1.770361e+003,1.027880e-002
1.772289e+003,1.024553e-002
1.774218e+003,1.020413e-002
1.776146e+003,1.023059e-002
1.778075e+003,1.025110e-002
1.780003e+003,1.021741e-002
1.781932e+003,1.021125e-002
1.783860e+003,1.023025e-002
1.785789e+003,1.019172e-002
1.787717e+003,1.024800e-002
1.789646e+003,1.027018e-002
1.791574e+003,1.022685e-002
1.793503e+003,1.019465e-002
1.795431e+003,1.017724e-002
1.797360e+003,1.023879e-002
1.799288e+003,1.026785e-002
1.801217e+003,1.024325e-002
1.803145e+003,1.030249e-002
1.805074e+003,1.026316e-002
1.807002e+003,1.024623e-002
1.808931e+003,1.030200e-002
1.810859e+003,1.030413e-002
1.812788e+003,1.032576e-002
1.814716e+003,1.037291e-002
1.816645e+003,1.040216e-002
1.818573e+003,1.046345e-002
1.820502e+003,1.049417e-002
1.822430e+003,1.043723e-002
1.824359e+003,1.042282e-002
1.826287e+003,1.045599e-002
1.828216e+003,1.053366e-002
1.830144e+003,1.055625e-002
1.832073e+003,1.055850e-002
1.834001e+003,1.051202e-002
1.835930e+003,1.056271e-002
1.837858e+003,1.053227e-002
1.839787e+003,1.042896e-002
1.841715e+003,1.044625e-002
1.843644e+003,1.055127e-002
1.845572e+003,1.060922e-002
1.847501e+003,1.076372e-002
1.849429e+003,1.068380e-002
1.851358e+003,1.060200e-002
1.853286e+003,1.058847e-002
1.855215e+003,1.059474e-002
1.857143e+003,1.070715e-002
1.859072e+003,1.074197e-002
1.861000e+003,1.067633e-002
1.862929e+003,1.078716e-002
1.864857e+003,1.075882e-002
1.866786e+003,1.063053e-002
1.868714e+003,1.067572e-002
1.870643e+003,1.089333e-002
1.872571e+003,1.093187e-002
1.874500e+003,1.092249e-002
1.876428e+003,1.091819e-002
1.878357e+003,1.098353e-002
1.880285e+003,1.105928e-002
1.882214e+003,1.106596e-002
1.884142e+003,1.093822e-002
1.886071e+003,1.101113e-002
1.887999e+003,1.111004e-002
1.889928e+003,1.119515e-002
1.891856e+003,1.122045e-002
1.893785e+003,1.113991e-002
1.895713e+003,1.135626e-002
1.897642e+003,1.143869e-002
1.899570e+003,1.127281e-002
1.901499e+003,1.117882e-002
1.903427e+003,1.127297e-002
1.905356e+003,1.145867e-002
1.907284e+003,1.157913e-002
1.909213e+003,1.146247e-002
1.911141e+003,1.155835e-002
1.913070e+003,1.156425e-002
1.914998e+003,1.158132e-002
1.916927e+003,1.158291e-002
1.918855e+003,1.161449e-002
1.920784e+003,1.180336e-002
1.922712e+003,1.186869e-002
1.924641e+003,1.163318e-002
1.926569e+003,1.182860e-002
1.928498e+003,1.218021e-002
1.930426e+003,1.232809e-002
1.932355e+003,1.230183e-002
1.934283e+003,1.214177e-002
1.936212e+003,1.254526e-002
1.938140e+003,1.266469e-002
1.940069e+003,1.235358e-002
1.941997e+003,1.239137e-002
1.943926e+003,1.302880e-002
1.945854e+003,1.298624e-002
1.947783e+003,1.287303e-002
1.949711e+003,1.324423e-002
1.951640e+003,1.320552e-002
1.953568e+003,1.263945e-002
1.955497e+003,1.300866e-002
1.957425e+003,1.366400e-002
1.959354e+003,1.409532e-002
1.961282e+003,1.392758e-002
1.963211e+003,1.388507e-002
1.965139e+003,1.450890e-002
1.967068e+003,1.425585e-002
1.968996e+003,1.387404e-002
1.970925e+003,1.439877e-002
1.972853e+003,1.536120e-002
1.974782e+003,1.551676e-002
1.976710e+003,1.500151e-002
1.978639e+003,1.507801e-002
1.980567e+003,1.512556e-002
1.982496e+003,1.460440e-002
1.984424e+003,1.380288e-002
1.986353e+003,1.358773e-002
1.988281e+003,1.337765e-002
1.990210e+003,1.350887e-002
1.992138e+003,1.355281e-002
1.994067e+003,1.237020e-002
1.995995e+003,1.177141e-002
1.997924e+003,1.199432e-002
1.999852e+003,1.213276e-002
2.001781e+003,1.317991e-002
2.003709e+003,1.351905e-002
2.005638e+003,1.323157e-002
2.007566e+003,1.350639e-002
2.009495e+003,1.398360e-002
2.011423e+003,1.342223e-002
2.013352e+003,1.297503e-002
2.015280e+003,1.311344e-002
2.017208e+003,1.361769e-002
2.019137e+003,1.399100e-002
2.021066e+003,1.464421e-002
2.022994e+003,1.393815e-002
2.024922e+003,1.287893e-002
2.026851e+003,1.290538e-002
2.028780e+003,1.329023e-002
2.030708e+003,1.256343e-002
2.032636e+003,1.202633e-002
2.034565e+003,1.259641e-002
2.036494e+003,1.137727e-002
2.038422e+003,1.069031e-002
2.040350e+003,1.106606e-002
2.042279e+003,1.118258e-002
2.044208e+003,1.069804e-002
2.046136e+003,1.050845e-002
2.048064e+003,1.009069e-002
2.049993e+003,1.028630e-002
2.051921e+003,1.034023e-002
2.053850e+003,9.995984e-003
2.055778e+003,1.012748e-002
2.057707e+003,9.861347e-003
2.059635e+003,9.575123e-003
2.061564e+003,9.668344e-003
2.063492e+003,9.646845e-003
2.065421e+003,9.448451e-003
2.067349e+003,9.570306e-003
2.069278e+003,9.517182e-003
2.071206e+003,9.409324e-003
2.073135e+003,9.503875e-003
2.075063e+003,9.582074e-003
2.076992e+003,9.484632e-003
2.078920e+003,9.330272e-003
2.080849e+003,9.288186e-003
2.082777e+003,9.348809e-003
2.084706e+003,9.423847e-003
2.086634e+003,9.745941e-003
2.088563e+003,1.009594e-002
2.090491e+003,1.012583e-002
2.092420e+003,1.000953e-002
2.094348e+003,9.915067e-003
2.096277e+003,9.896209e-003
2.098205e+003,9.709683e-003
2.100134e+003,1.002345e-002
2.102062e+003,1.000369e-002
2.103991e+003,9.981614e-003
2.105919e+003,9.995209e-003
2.107848e+003,9.934794e-003
2.109776e+003,1.017471e-002
2.111705e+003,1.004356e-002
2.113633e+003,9.923031e-003
2.115562e+003,9.998498e-003
2.117490e+003,1.013119e-002
2.119419e+003,1.033959e-002
2.121347e+003,1.022135e-002
2.123276e+003,1.002888e-002
2.125204e+003,1.022698e-002
2.127133e+003,1.043600e-002
2.129061e+003,1.031682e-002
2.130990e+003,1.030932e-002
2.132918e+003,1.056991e-002
2.134847e+003,1.063480e-002
2.136775e+003,1.087367e-002
2.138704e+003,1.101550e-002
2.140632e+003,1.082920e-002
2.142561e+003,1.081636e-002
2.144489e+003,1.138981e-002
2.146418e+003,1.136093e-002
2.148346e+003,1.077336e-002
2.150275e+003,9.977307e-003
2.152203e+003,1.116187e-002
2.154132e+003,1.255777e-002
2.156060e+003,1.219561e-002
2.157989e+003,1.149292e-002
2.159917e+003,1.014639e-002
2.161846e+003,1.003983e-002
2.163774e+003,1.093707e-002
2.165703e+003,1.123371e-002
2.167631e+003,1.069175e-002
2.169560e+003,1.036242e-002
2.171488e+003,1.093928e-002
2.173417e+003,1.079690e-002
2.175345e+003,1.105921e-002
2.177274e+003,1.095471e-002
2.179202e+003,1.067331e-002
2.181131e+003,1.033032e-002
2.183059e+003,1.012522e-002
2.184988e+003,1.037617e-002
2.186916e+003,1.046916e-002
2.188845e+003,9.867066e-003
2.190773e+003,9.980088e-003
2.192702e+003,1.038564e-002
2.194630e+003,1.035425e-002
2.196559e+003,1.004943e-002
2.198487e+003,1.045633e-002
2.200416e+003,1.046499e-002
2.202344e+003,1.049862e-002
2.204273e+003,1.052167e-002
2.206201e+003,1.055715e-002
2.208130e+003,1.061483e-002
2.210058e+003,1.051308e-002
2.211987e+003,1.025721e-002
2.213915e+003,1.052116e-002
2.215844e+003,1.046264e-002
2.217772e+003,1.011857e-002
2.219701e+003,1.043101e-002
2.221629e+003,1.028038e-002
2.223558e+003,1.072346e-002
2.225486e+003,1.094635e-002
2.227415e+003,1.076276e-002
2.229343e+003,1.087435e-002
2.231272e+003,1.092025e-002
2.233200e+003,1.076320e-002
2.235129e+003,1.025179e-002
2.237057e+003,1.021278e-002
2.238986e+003,1.063880e-002
2.240914e+003,1.060307e-002
2.242843e+003,1.020481e-002
2.244771e+003,1.015855e-002
2.246700e+003,1.001540e-002
2.248628e+003,1.006683e-002
2.250557e+003,1.026053e-002
2.252485e+003,1.042996e-002
2.254414e+003,1.042517e-002
2.256342e+003,1.006325e-002
2.258271e+003,9.786956e-003
2.260199e+003,9.647503e-003
2.262128e+003,9.646882e-003
2.264056e+003,9.903237e-003
2.265985e+003,9.896788e-003
2.267913e+003,9.923520e-003
2.269842e+003,1.002377e-002
2.271770e+003,1.009377e-002
2.273699e+003,1.032075e-002
2.275627e+003,1.019128e-002
2.277556e+003,1.005871e-002
2.279484e+003,1.021009e-002
2.281413e+003,1.047077e-002
2.283341e+003,1.062420e-002
2.285270e+003,1.045041e-002
2.287198e+003,1.038951e-002
2.289127e+003,1.052954e-002
2.291055e+003,1.060864e-002
2.292984e+003,1.045346e-002
2.294912e+003,1.035375e-002
2.296841e+003,1.038200e-002
2.298769e+003,1.052174e-002
2.300698e+003,1.057044e-002
2.302626e+003,1.067675e-002
2.304555e+003,1.081901e-002
2.306483e+003,1.093790e-002
2.308412e+003,1.102347e-002
2.310340e+003,1.107292e-002
2.312269e+003,1.104821e-002
2.314197e+003,1.106950e-002
2.316125e+003,1.111717e-002
2.318054e+003,1.135259e-002
2.319983e+003,1.159572e-002
2.321911e+003,1.185241e-002
2.323840e+003,1.186345e-002
2.325768e+003,1.178577e-002
2.327697e+003,1.164190e-002
2.329625e+003,1.143326e-002
2.331553e+003,1.126098e-002
2.333482e+003,1.129146e-002
2.335411e+003,1.133351e-002
2.337339e+003,1.095114e-002
2.339268e+003,1.048417e-002
2.341196e+003,1.060321e-002
2.343125e+003,1.045834e-002
2.345053e+003,1.030395e-002
2.346981e+003,1.021958e-002
2.348910e+003,1.007989e-002
2.350839e+003,1.000471e-002
2.352767e+003,1.011740e-002
2.354696e+003,9.984819e-003
2.356624e+003,9.699806e-003
2.358552e+003,9.766703e-003
2.360481e+003,9.684304e-003
2.362409e+003,9.871198e-003
2.364338e+003,1.033698e-002
2.366267e+003,9.975787e-003
2.368195e+003,9.700057e-003
2.370124e+003,9.562578e-003
2.372052e+003,9.552543e-003
2.373980e+003,9.946256e-003
2.375909e+003,1.028264e-002
2.377838e+003,1.023152e-002
2.379766e+003,1.022834e-002
2.381695e+003,1.017874e-002
2.383623e+003,1.015892e-002
2.385552e+003,1.015338e-002
2.387480e+003,1.018297e-002
2.389408e+003,1.007712e-002
2.391337e+003,1.001413e-002
2.393266e+003,1.001039e-002
2.395194e+003,1.004483e-002
2.397123e+003,1.016372e-002
2.399051e+003,1.025000e-002
2.400979e+003,1.021375e-002
2.402908e+003,1.017494e-002
2.404836e+003,1.010457e-002
2.406765e+003,1.013187e-002
2.408694e+003,1.026104e-002
2.410622e+003,1.041710e-002
2.412551e+003,1.046682e-002
2.414479e+003,1.051444e-002
2.416407e+003,1.064750e-002
2.418336e+003,1.072442e-002
2.420264e+003,1.066845e-002
2.422193e+003,1.060583e-002
2.424122e+003,1.064787e-002
2.426050e+003,1.072200e-002
2.427979e+003,1.074724e-002
2.429907e+003,1.065701e-002
2.431835e+003,1.064509e-002
2.433764e+003,1.071029e-002
2.435692e+003,1.076351e-002
2.437621e+003,1.075199e-002
2.439550e+003,1.059168e-002
2.441478e+003,1.046672e-002
2.443406e+003,1.052031e-002
2.445335e+003,1.056268e-002
2.447263e+003,1.050752e-002
2.449192e+003,1.052609e-002
2.451121e+003,1.056665e-002
2.453049e+003,1.040328e-002
2.454978e+003,1.040644e-002
2.456906e+003,1.044513e-002
2.458834e+003,1.042830e-002
2.460763e+003,1.040152e-002
2.462691e+003,1.041479e-002
2.464620e+003,1.033236e-002
2.466549e+003,1.023268e-002
2.468477e+003,1.027200e-002
2.470406e+003,1.042819e-002
2.472334e+003,1.045263e-002
2.474262e+003,1.037189e-002
2.476191e+003,1.030966e-002
2.478119e+003,1.030630e-002
2.480048e+003,1.039867e-002
2.481977e+003,1.041105e-002
2.483905e+003,1.045606e-002
2.485833e+003,1.046712e-002
2.487762e+003,1.048393e-002
2.489690e+003,1.046563e-002
2.491619e+003,1.042056e-002
2.493547e+003,1.048573e-002
2.495476e+003,1.042348e-002
2.497405e+003,1.046709e-002
2.499333e+003,1.049906e-002
2.501261e+003,1.044720e-002
2.503190e+003,1.047568e-002
2.505118e+003,1.048932e-002
2.507047e+003,1.056530e-002
2.508975e+003,1.058635e-002
2.510904e+003,1.042996e-002
2.512833e+003,1.042314e-002
2.514761e+003,1.048427e-002
2.516689e+003,1.069083e-002
2.518618e+003,1.083736e-002
2.520546e+003,1.084578e-002
2.522475e+003,1.084367e-002
2.524403e+003,1.069779e-002
2.526332e+003,1.063140e-002
2.528260e+003,1.087856e-002
2.530189e+003,1.097302e-002
2.532117e+003,1.081069e-002
2.534046e+003,1.078076e-002
2.535974e+003,1.075097e-002
2.537903e+003,1.061925e-002
2.539831e+003,1.067962e-002
2.541760e+003,1.078827e-002
2.543688e+003,1.081623e-002
2.545617e+003,1.089633e-002
2.547545e+003,1.084775e-002
2.549474e+003,1.059449e-002
2.551402e+003,1.064335e-002
2.553331e+003,1.079442e-002
2.555259e+003,1.076806e-002
2.557188e+003,1.067134e-002
2.559116e+003,1.076449e-002
2.561045e+003,1.088883e-002
2.562973e+003,1.088363e-002
2.564902e+003,1.084534e-002
2.566830e+003,1.089239e-002
2.568759e+003,1.100606e-002
2.570687e+003,1.094570e-002
2.572616e+003,1.093068e-002
2.574544e+003,1.089895e-002
2.576473e+003,1.088696e-002
2.578401e+003,1.093038e-002
2.580330e+003,1.089491e-002
2.582258e+003,1.080366e-002
2.584187e+003,1.078810e-002
2.586115e+003,1.092368e-002
2.588044e+003,1.093785e-002
2.589972e+003,1.080264e-002
2.591901e+003,1.093031e-002
2.593829e+003,1.101775e-002
2.595758e+003,1.080841e-002
2.597686e+003,1.073630e-002
2.599615e+003,1.070509e-002
2.601543e+003,1.068441e-002
2.603472e+003,1.071141e-002
2.605400e+003,1.067493e-002
2.607329e+003,1.066339e-002
2.609257e+003,1.058533e-002
2.611186e+003,1.043614e-002
2.613114e+003,1.035058e-002
2.615043e+003,1.043451e-002
2.616971e+003,1.049835e-002
2.618900e+003,1.051550e-002
2.620828e+003,1.056723e-002
2.622757e+003,1.049421e-002
2.624685e+003,1.047839e-002
2.626614e+003,1.050585e-002
2.628542e+003,1.047985e-002
2.630471e+003,1.050182e-002
2.632399e+003,1.055640e-002
2.634328e+003,1.052517e-002
2.636256e+003,1.051814e-002
2.638185e+003,1.052856e-002
2.640113e+003,1.052347e-002
2.642042e+003,1.056689e-002
2.643970e+003,1.064556e-002
2.645899e+003,1.066037e-002
2.647827e+003,1.066281e-002
2.649756e+003,1.076765e-002
2.651684e+003,1.080417e-002
2.653613e+003,1.083226e-002
2.655541e+003,1.085234e-002
2.657470e+003,1.088662e-002
2.659398e+003,1.090558e-002
2.661327e+003,1.087445e-002
2.663255e+003,1.094224e-002
2.665184e+003,1.098427e-002
2.667112e+003,1.097506e-002
2.669041e+003,1.099552e-002
2.670969e+003,1.105438e-002
2.672898e+003,1.111863e-002
2.674826e+003,1.111597e-002
2.676755e+003,1.112580e-002
2.678683e+003,1.113032e-002
2.680612e+003,1.115395e-002
2.682540e+003,1.124418e-002
2.684469e+003,1.127115e-002
2.686397e+003,1.128023e-002
2.688326e+003,1.128285e-002
2.690254e+003,1.123986e-002
2.692183e+003,1.124602e-002
2.694111e+003,1.127438e-002
2.696040e+003,1.124173e-002
2.697968e+003,1.129801e-002
2.699897e+003,1.136834e-002
2.701825e+003,1.136569e-002
2.703754e+003,1.135484e-002
2.705682e+003,1.136110e-002
2.707611e+003,1.134239e-002
2.709539e+003,1.136096e-002
2.711468e+003,1.137902e-002
2.713396e+003,1.136763e-002
2.715325e+003,1.135736e-002
2.717253e+003,1.136008e-002
2.719182e+003,1.137498e-002
2.721110e+003,1.142250e-002
2.723039e+003,1.139120e-002
2.724967e+003,1.136658e-002
2.726896e+003,1.141501e-002
2.728824e+003,1.144447e-002
2.730753e+003,1.139909e-002
2.732681e+003,1.135352e-002
2.734610e+003,1.132814e-002
2.736538e+003,1.131141e-002
2.738467e+003,1.136712e-002
2.740395e+003,1.140246e-002
2.742324e+003,1.138297e-002
2.744252e+003,1.140307e-002
2.746181e+003,1.149047e-002
2.748109e+003,1.153933e-002
2.750038e+003,1.148407e-002
2.751966e+003,1.145424e-002
2.753895e+003,1.149040e-002
2.755823e+003,1.155808e-002
2.757752e+003,1.152871e-002
2.759680e+003,1.151279e-002
2.761609e+003,1.153854e-002
2.763537e+003,1.157070e-002
2.765466e+003,1.163985e-002
2.767394e+003,1.170132e-002
2.769323e+003,1.173952e-002
2.771251e+003,1.172198e-002
2.773180e+003,1.171535e-002
2.775108e+003,1.168066e-002
2.777037e+003,1.166490e-002
2.778965e+003,1.170319e-002
2.780894e+003,1.173662e-002
2.782822e+003,1.179596e-002
2.784750e+003,1.179334e-002
2.786679e+003,1.178707e-002
2.788608e+003,1.181973e-002
2.790536e+003,1.184543e-002
2.792465e+003,1.185459e-002
2.794393e+003,1.191878e-002
2.796322e+003,1.194974e-002
2.798250e+003,1.194242e-002
2.800178e+003,1.196813e-002
2.802107e+003,1.201115e-002
2.804036e+003,1.202345e-002
2.805964e+003,1.203980e-002
2.807893e+003,1.208545e-002
2.809821e+003,1.206784e-002
2.811750e+003,1.212010e-002
2.813678e+003,1.214756e-002
2.815606e+003,1.220767e-002
2.817535e+003,1.221371e-002
2.819464e+003,1.225385e-002
2.821392e+003,1.229077e-002
2.823321e+003,1.233879e-002
2.825249e+003,1.236099e-002
2.827177e+003,1.240964e-002
2.829106e+003,1.251602e-002
2.831034e+003,1.258928e-002
2.832963e+003,1.269363e-002
2.834892e+003,1.278695e-002
2.836820e+003,1.285265e-002
2.838749e+003,1.303480e-002
2.840677e+003,1.323318e-002
2.842605e+003,1.349000e-002
2.844534e+003,1.387243e-002
2.846462e+003,1.440948e-002
2.848391e+003,1.481846e-002
2.850320e+003,1.474538e-002
2.852248e+003,1.443270e-002
2.854177e+003,1.419628e-002
2.856105e+003,1.400505e-002
2.858033e+003,1.386231e-002
2.859962e+003,1.374064e-002
2.861890e+003,1.366999e-002
2.863819e+003,1.365491e-002
2.865748e+003,1.363419e-002
2.867676e+003,1.363532e-002
2.869604e+003,1.368647e-002
2.871533e+003,1.370309e-002
2.873461e+003,1.368689e-002
2.875390e+003,1.367916e-002
2.877319e+003,1.373832e-002
2.879247e+003,1.370945e-002
2.881176e+003,1.368784e-002
2.883104e+003,1.372074e-002
2.885032e+003,1.380754e-002
2.886961e+003,1.382382e-002
2.888889e+003,1.383439e-002
2.890818e+003,1.390726e-002
2.892747e+003,1.395232e-002
2.894675e+003,1.402171e-002
2.896604e+003,1.409947e-002
2.898532e+003,1.416622e-002
2.900460e+003,1.425979e-002
2.902389e+003,1.432375e-002
2.904317e+003,1.434625e-002
2.906246e+003,1.443739e-002
2.908175e+003,1.458882e-002
2.910103e+003,1.472903e-002
2.912031e+003,1.505296e-002
2.913960e+003,1.549607e-002
2.915888e+003,1.586110e-002
2.917817e+003,1.581821e-002
2.919745e+003,1.556946e-002
2.921674e+003,1.520392e-002
2.923603e+003,1.487569e-002
2.925531e+003,1.463762e-002
2.927459e+003,1.441691e-002
2.929388e+003,1.420672e-002
2.931316e+003,1.407000e-002
2.933245e+003,1.388133e-002
2.935173e+003,1.373082e-002
2.937102e+003,1.356628e-002
2.939031e+003,1.337972e-002
2.940959e+003,1.316564e-002
2.942887e+003,1.305619e-002
2.944816e+003,1.299184e-002
2.946744e+003,1.285439e-002
2.948673e+003,1.279577e-002
2.950601e+003,1.273530e-002
2.952530e+003,1.266231e-002
2.954458e+003,1.258452e-002
2.956387e+003,1.252696e-002
2.958315e+003,1.252613e-002
2.960244e+003,1.243908e-002
2.962172e+003,1.235463e-002
2.964101e+003,1.228034e-002
2.966029e+003,1.222312e-002
2.967958e+003,1.216115e-002
2.969886e+003,1.210043e-002
2.971815e+003,1.199491e-002
2.973743e+003,1.184953e-002
2.975672e+003,1.178063e-002
2.977600e+003,1.173100e-002
2.979529e+003,1.165491e-002
2.981457e+003,1.165435e-002
2.983386e+003,1.169049e-002
2.985314e+003,1.157774e-002
2.987243e+003,1.148835e-002
2.989171e+003,1.149960e-002
2.991100e+003,1.150035e-002
2.993028e+003,1.151635e-002
2.994957e+003,1.154223e-002
2.996885e+003,1.149323e-002
2.998814e+003,1.144259e-002
3.000742e+003,1.148413e-002
3.002671e+003,1.154206e-002
3.004599e+003,1.153835e-002
3.006528e+003,1.158401e-002
3.008456e+003,1.161481e-002
3.010385e+003,1.161195e-002
3.012313e+003,1.165169e-002
3.014242e+003,1.164880e-002
3.016170e+003,1.161304e-002
3.018099e+003,1.161367e-002
3.020027e+003,1.165173e-002
3.021956e+003,1.169075e-002
3.023884e+003,1.173263e-002
3.025813e+003,1.180683e-002
3.027741e+003,1.181858e-002
3.029670e+003,1.177880e-002
3.031598e+003,1.184886e-002
3.033527e+003,1.181474e-002
3.035455e+003,1.181347e-002
3.037384e+003,1.188955e-002
3.039312e+003,1.190702e-002
3.041241e+003,1.192021e-002
3.043169e+003,1.196631e-002
3.045098e+003,1.199438e-002
3.047026e+003,1.203702e-002
3.048955e+003,1.205475e-002
3.050883e+003,1.206457e-002
3.052812e+003,1.209142e-002
3.054740e+003,1.216322e-002
3.056669e+003,1.216950e-002
3.058597e+003,1.214591e-002
3.060526e+003,1.218762e-002
3.062454e+003,1.224810e-002
3.064383e+003,1.228110e-002
3.066311e+003,1.229474e-002
3.068240e+003,1.231572e-002
3.070168e+003,1.231842e-002
3.072097e+003,1.231906e-002
3.074025e+003,1.230402e-002
3.075954e+003,1.230103e-002
3.077882e+003,1.237670e-002
3.079811e+003,1.243603e-002
3.081739e+003,1.251434e-002
3.083668e+003,1.251432e-002
3.085596e+003,1.248983e-002
3.087525e+003,1.245126e-002
3.089453e+003,1.245324e-002
3.091382e+003,1.247082e-002
3.093310e+003,1.249111e-002
3.095239e+003,1.256602e-002
3.097167e+003,1.261375e-002
3.099096e+003,1.269885e-002
3.101024e+003,1.273790e-002
3.102953e+003,1.262453e-002
3.104881e+003,1.271309e-002
3.106810e+003,1.279858e-002
3.108738e+003,1.281029e-002
3.110667e+003,1.285866e-002
3.112595e+003,1.287871e-002
3.114524e+003,1.285326e-002
3.116452e+003,1.288318e-002
3.118381e+003,1.293183e-002
3.120309e+003,1.297527e-002
3.122238e+003,1.296888e-002
3.124166e+003,1.302379e-002
3.126095e+003,1.309356e-002
3.128023e+003,1.313193e-002
3.129952e+003,1.314144e-002
3.131880e+003,1.311069e-002
3.133809e+003,1.318158e-002
3.135737e+003,1.328573e-002
3.137666e+003,1.334116e-002
3.139594e+003,1.339591e-002
3.141523e+003,1.337916e-002
3.143451e+003,1.337313e-002
3.145380e+003,1.341702e-002
3.147308e+003,1.348032e-002
3.149237e+003,1.350094e-002
3.151165e+003,1.348570e-002
3.153094e+003,1.358915e-002
3.155022e+003,1.370279e-002
3.156951e+003,1.363632e-002
3.158879e+003,1.360713e-002
3.160808e+003,1.365562e-002
3.162736e+003,1.373018e-002
3.164665e+003,1.384767e-002
3.166593e+003,1.389606e-002
3.168522e+003,1.388164e-002
3.170450e+003,1.392051e-002
3.172379e+003,1.398782e-002
3.174307e+003,1.400105e-002
3.176236e+003,1.400015e-002
3.178164e+003,1.400844e-002
3.180093e+003,1.403863e-002
3.182021e+003,1.415685e-002
3.183950e+003,1.424783e-002
3.185878e+003,1.427845e-002
3.187807e+003,1.430964e-002
3.189735e+003,1.434482e-002
3.191664e+003,1.436570e-002
3.193592e+003,1.450686e-002
3.195521e+003,1.454785e-002
3.197449e+003,1.443938e-002
3.199378e+003,1.449416e-002
3.201306e+003,1.452119e-002
3.203235e+003,1.460029e-002
3.205163e+003,1.463449e-002
3.207092e+003,1.466868e-002
3.209020e+003,1.472620e-002
3.210948e+003,1.477055e-002
3.212877e+003,1.479811e-002
3.214806e+003,1.478363e-002
3.216734e+003,1.486257e-002
3.218663e+003,1.494202e-002
3.220591e+003,1.492377e-002
3.222520e+003,1.498726e-002
3.224448e+003,1.503242e-002
3.226376e+003,1.511094e-002
3.228305e+003,1.520309e-002
3.230234e+003,1.530215e-002
3.232162e+003,1.523172e-002
3.234091e+003,1.518801e-002
3.236019e+003,1.524075e-002
3.237948e+003,1.537699e-002
3.239876e+003,1.547424e-002
3.241804e+003,1.549007e-002
3.243733e+003,1.552440e-002
3.245662e+003,1.554402e-002
3.247590e+003,1.559306e-002
3.249519e+003,1.560329e-002
3.251447e+003,1.562815e-002
3.253375e+003,1.570052e-002
3.255304e+003,1.569656e-002
3.257232e+003,1.574909e-002
3.259161e+003,1.576803e-002
3.261090e+003,1.575497e-002
3.263018e+003,1.580232e-002
3.264947e+003,1.587507e-002
3.266875e+003,1.588694e-002
3.268803e+003,1.595338e-002
3.270732e+003,1.598813e-002
3.272660e+003,1.603065e-002
3.274589e+003,1.601215e-002
3.276518e+003,1.605091e-002
3.278446e+003,1.602109e-002
3.280375e+003,1.595468e-002
3.282303e+003,1.596749e-002
3.284231e+003,1.592756e-002
3.286160e+003,1.599256e-002
3.288088e+003,1.600553e-002
3.290017e+003,1.609187e-002
3.291946e+003,1.609340e-002
3.293874e+003,1.601027e-002
3.295802e+003,1.596097e-002
3.297731e+003,1.594844e-002
3.299659e+003,1.595091e-002
3.301588e+003,1.596722e-002
3.303516e+003,1.593988e-002
3.305445e+003,1.596971e-002
3.307374e+003,1.597879e-002
3.309302e+003,1.591897e-002
3.311230e+003,1.580665e-002
3.313159e+003,1.575180e-002
3.315087e+003,1.583688e-002
3.317016e+003,1.586273e-002
3.318944e+003,1.588437e-002
3.320873e+003,1.585336e-002
3.322802e+003,1.574322e-002
3.324730e+003,1.579237e-002
3.326658e+003,1.576932e-002
3.328587e+003,1.570304e-002
3.330515e+003,1.576548e-002
3.332444e+003,1.573646e-002
3.334372e+003,1.568819e-002
3.336301e+003,1.567991e-002
3.338229e+003,1.567136e-002
3.340158e+003,1.563838e-002
3.342086e+003,1.559537e-002
3.344015e+003,1.559056e-002
3.345943e+003,1.559599e-002
3.347872e+003,1.552280e-002
3.349800e+003,1.538092e-002
3.351729e+003,1.533346e-002
3.353657e+003,1.536790e-002
3.355586e+003,1.530261e-002
3.357514e+003,1.537119e-002
3.359443e+003,1.526117e-002
3.361371e+003,1.511671e-002
3.363300e+003,1.510844e-002
3.365229e+003,1.512581e-002
3.367157e+003,1.512359e-002
3.369085e+003,1.505928e-002
3.371014e+003,1.495948e-002
3.372942e+003,1.499363e-002
3.374871e+003,1.493459e-002
3.376799e+003,1.487358e-002
3.378728e+003,1.480287e-002
3.380656e+003,1.473488e-002
3.382585e+003,1.480511e-002
3.384513e+003,1.477912e-002
3.386442e+003,1.468665e-002
3.388370e+003,1.469804e-002
3.390299e+003,1.467447e-002
3.392227e+003,1.459325e-002
3.394156e+003,1.454622e-002
3.396084e+003,1.449868e-002
3.398013e+003,1.448489e-002
3.399941e+003,1.444662e-002
3.401870e+003,1.440428e-002
3.403798e+003,1.428052e-002
3.405727e+003,1.419477e-002
3.407655e+003,1.423413e-002
3.409584e+003,1.414537e-002
3.411512e+003,1.408316e-002
3.413441e+003,1.402520e-002
3.415369e+003,1.397273e-002
3.417298e+003,1.388780e-002
3.419226e+003,1.382204e-002
3.421155e+003,1.372056e-002
3.423083e+003,1.366360e-002
3.425012e+003,1.359746e-002
3.426940e+003,1.346747e-002
3.428869e+003,1.336683e-002
3.430797e+003,1.341058e-002
3.432726e+003,1.336835e-002
3.434654e+003,1.319806e-002
3.436583e+003,1.309243e-002
3.438511e+003,1.308920e-002
3.440440e+003,1.301339e-002
3.442368e+003,1.288999e-002
3.444297e+003,1.289030e-002
3.446225e+003,1.282953e-002
3.448154e+003,1.274191e-002
3.450082e+003,1.270305e-002
3.452011e+003,1.257643e-002
3.453939e+003,1.241392e-002
3.455868e+003,1.240971e-002
3.457796e+003,1.237894e-002
3.459725e+003,1.225715e-002
3.461653e+003,1.214107e-002
3.463582e+003,1.209650e-002
3.465510e+003,1.203446e-002
3.467439e+003,1.187421e-002
3.469367e+003,1.183508e-002
3.471296e+003,1.182064e-002
3.473224e+003,1.173050e-002
3.475153e+003,1.157103e-002
3.477081e+003,1.151038e-002
3.479010e+003,1.155012e-002
3.480938e+003,1.144425e-002
3.482867e+003,1.129672e-002
3.484795e+003,1.133837e-002
3.486724e+003,1.133147e-002
3.488652e+003,1.125318e-002
3.490581e+003,1.115540e-002
3.492509e+003,1.101796e-002
3.494438e+003,1.097092e-002
3.496366e+003,1.085868e-002
3.498295e+003,1.079759e-002
3.500223e+003,1.074307e-002
3.502152e+003,1.066539e-002
3.504080e+003,1.059128e-002
3.506009e+003,1.048153e-002
3.507937e+003,1.041183e-002
3.509866e+003,1.038954e-002
3.511794e+003,1.033793e-002
3.513723e+003,1.040835e-002
3.515651e+003,1.029066e-002
3.517580e+003,1.013187e-002
3.519508e+003,1.010589e-002
3.521437e+003,1.010592e-002
3.523365e+003,9.996888e-003
3.525294e+003,9.932371e-003
3.527222e+003,9.851336e-003
3.529151e+003,9.829595e-003
3.531079e+003,9.797991e-003
3.533008e+003,9.766739e-003
3.534936e+003,9.632998e-003
3.536865e+003,9.580943e-003
3.538793e+003,9.535020e-003
3.540722e+003,9.531916e-003
3.542650e+003,9.541493e-003
3.544579e+003,9.416908e-003
3.546507e+003,9.284860e-003
3.548436e+003,9.234201e-003
3.550364e+003,9.225615e-003
3.552293e+003,9.172932e-003
3.554221e+003,9.124552e-003
3.556150e+003,9.034174e-003
3.558078e+003,8.977266e-003
3.560007e+003,9.007451e-003
3.561935e+003,9.036008e-003
3.563864e+003,8.907693e-003
3.565792e+003,8.785370e-003
3.567721e+003,8.704157e-003
3.569649e+003,8.679350e-003
3.571578e+003,8.618320e-003
3.573506e+003,8.563110e-003
3.575435e+003,8.498768e-003
3.577363e+003,8.460690e-003
3.579292e+003,8.367515e-003
3.581220e+003,8.306495e-003
3.583149e+003,8.268395e-003
3.585077e+003,8.054127e-003
3.587006e+003,7.914064e-003
3.588934e+003,7.806276e-003
3.590863e+003,7.741774e-003
3.592791e+003,7.636280e-003
3.594720e+003,7.505987e-003
3.596648e+003,7.462216e-003
3.598577e+003,7.491435e-003
3.600505e+003,7.426776e-003
3.602434e+003,7.266262e-003
3.604362e+003,7.233851e-003
3.606291e+003,7.369844e-003
3.608219e+003,7.490766e-003
3.610148e+003,7.635134e-003
3.612076e+003,7.622530e-003
3.614005e+003,7.577447e-003
3.615933e+003,7.372293e-003
3.617862e+003,7.083989e-003
3.619790e+003,6.969196e-003
3.621719e+003,6.784596e-003
3.623647e+003,6.647833e-003
3.625576e+003,6.632399e-003
3.627504e+003,6.571181e-003
3.629433e+003,6.557507e-003
3.631361e+003,6.609004e-003
3.633290e+003,6.832460e-003
3.635218e+003,6.988196e-003
3.637146e+003,7.016032e-003
3.639075e+003,7.166011e-003
3.641004e+003,7.239831e-003
3.642932e+003,7.274485e-003
3.644861e+003,7.300653e-003
3.646789e+003,7.266117e-003
3.648718e+003,7.247872e-003
3.650646e+003,7.256208e-003
3.652574e+003,7.359795e-003
3.654503e+003,7.378275e-003
3.656432e+003,7.294946e-003
3.658360e+003,7.204141e-003
3.660289e+003,7.160792e-003
3.662217e+003,7.187654e-003
3.664146e+003,7.258942e-003
3.666074e+003,7.175837e-003
3.668002e+003,7.058721e-003
3.669931e+003,7.083694e-003
3.671860e+003,7.049051e-003
3.673788e+003,6.961628e-003
3.675717e+003,6.926450e-003
3.677645e+003,6.912291e-003
3.679573e+003,6.851669e-003
3.681502e+003,6.765482e-003
3.683430e+003,6.713562e-003
3.685359e+003,6.706052e-003
3.687288e+003,6.769917e-003
3.689216e+003,6.709467e-003
3.691145e+003,6.542461e-003
3.693073e+003,6.459964e-003
3.695001e+003,6.361195e-003
3.696930e+003,6.194877e-003
3.698858e+003,6.011056e-003
3.700787e+003,5.962236e-003
3.702716e+003,5.977060e-003
3.704644e+003,6.053092e-003
3.706573e+003,6.067338e-003
3.708501e+003,6.171115e-003
3.710429e+003,6.369517e-003
3.712358e+003,6.451570e-003
3.714286e+003,6.667202e-003
3.716215e+003,6.688670e-003
3.718144e+003,6.313312e-003
3.720072e+003,5.988633e-003
3.722000e+003,5.665680e-003
3.723929e+003,5.449472e-003
3.725857e+003,5.377158e-003
3.727786e+003,5.406339e-003
3.729714e+003,5.416320e-003
3.731643e+003,5.559823e-003
3.733572e+003,5.666979e-003
3.735500e+003,5.795586e-003
3.737428e+003,5.932395e-003
3.739357e+003,6.037070e-003
3.741285e+003,6.325399e-003
3.743214e+003,6.610740e-003
3.745142e+003,6.689290e-003
3.747071e+003,6.635620e-003
3.749000e+003,6.671907e-003
3.750928e+003,6.746085e-003
3.752856e+003,6.853426e-003
3.754785e+003,6.906951e-003
3.756713e+003,6.868005e-003
3.758642e+003,6.798902e-003
3.760570e+003,6.785336e-003
3.762499e+003,6.848576e-003
3.764427e+003,6.817043e-003
3.766356e+003,6.769529e-003
3.768284e+003,6.814467e-003
3.770213e+003,6.901773e-003
3.772141e+003,6.924073e-003
3.774070e+003,6.855244e-003
3.775998e+003,6.870874e-003
3.777927e+003,6.882517e-003
3.779855e+003,6.922291e-003
3.781784e+003,6.945584e-003
3.783712e+003,6.834820e-003
3.785641e+003,6.794928e-003
3.787569e+003,6.835843e-003
3.789498e+003,6.877373e-003
3.791426e+003,6.940965e-003
3.793355e+003,6.937115e-003
3.795283e+003,6.930016e-003
3.797212e+003,6.926809e-003
3.799140e+003,6.989120e-003
3.801069e+003,6.926511e-003
3.802997e+003,6.826139e-003
3.804926e+003,6.929955e-003
3.806854e+003,7.010703e-003
3.808783e+003,6.923757e-003
3.810711e+003,6.893497e-003
3.812640e+003,6.889685e-003
3.814568e+003,6.891285e-003
3.816497e+003,6.977618e-003
3.818425e+003,7.021026e-003
3.820354e+003,6.957094e-003
3.822282e+003,6.892792e-003
3.824211e+003,6.829451e-003
3.826139e+003,6.821863e-003
3.828068e+003,6.830043e-003
3.829996e+003,6.829422e-003
3.831925e+003,6.853960e-003
3.833853e+003,6.921701e-003
3.835782e+003,6.953147e-003
3.837710e+003,6.915380e-003
3.839639e+003,6.825272e-003
3.841567e+003,6.807618e-003
3.843496e+003,6.806240e-003
3.845424e+003,6.937013e-003
3.847353e+003,6.885502e-003
3.849281e+003,6.823870e-003
3.851210e+003,6.941769e-003
3.853138e+003,6.963861e-003
3.855067e+003,6.930968e-003
3.856995e+003,6.842710e-003
3.858924e+003,6.872692e-003
3.860852e+003,6.854795e-003
3.862781e+003,6.790299e-003
3.864709e+003,6.797605e-003
3.866638e+003,6.861360e-003
3.868566e+003,6.847748e-003
3.870495e+003,6.756573e-003
3.872423e+003,6.702019e-003
3.874352e+003,6.762908e-003
3.876280e+003,6.830684e-003
3.878209e+003,6.894219e-003
3.880137e+003,6.867588e-003
3.882066e+003,6.866322e-003
3.883994e+003,6.875384e-003
3.885923e+003,6.838549e-003
3.887851e+003,6.873532e-003
3.889780e+003,6.892732e-003
3.891708e+003,6.954350e-003
3.893637e+003,7.000824e-003
3.895565e+003,6.952019e-003
3.897494e+003,6.950891e-003
3.899422e+003,6.914117e-003
3.901351e+003,6.802076e-003
3.903279e+003,6.827463e-003
3.905208e+003,6.887244e-003
3.907136e+003,6.875551e-003
3.909065e+003,6.835787e-003
3.910993e+003,6.850316e-003
3.912922e+003,6.851914e-003
3.914850e+003,6.887568e-003
3.916779e+003,6.872562e-003
3.918707e+003,6.823777e-003
3.920636e+003,6.893146e-003
3.922564e+003,6.945916e-003
3.924493e+003,6.926956e-003
3.926421e+003,6.878178e-003
3.928350e+003,6.844104e-003
3.930278e+003,6.850106e-003
3.932207e+003,6.922379e-003
3.934135e+003,6.953551e-003
3.936064e+003,6.856437e-003
3.937992e+003,6.761214e-003
3.939921e+003,6.815752e-003
3.941849e+003,6.832378e-003
3.943778e+003,6.878701e-003
3.945706e+003,6.902469e-003
3.947635e+003,6.927468e-003
3.949563e+003,6.897067e-003
3.951492e+003,6.902199e-003
3.953420e+003,6.878645e-003
3.955349e+003,6.838447e-003
3.957277e+003,6.900796e-003
3.959206e+003,6.923416e-003
3.961134e+003,6.833210e-003
3.963063e+003,6.816988e-003
3.964991e+003,6.842923e-003
3.966920e+003,6.921796e-003
3.968848e+003,6.970106e-003
3.970777e+003,6.924524e-003
3.972705e+003,6.851397e-003
3.974634e+003,6.893790e-003
3.976562e+003,6.964688e-003
3.978491e+003,6.897232e-003
3.980419e+003,6.928138e-003
3.982348e+003,6.949654e-003
3.984276e+003,6.915790e-003
3.986205e+003,6.954521e-003
3.988133e+003,6.951879e-003
3.990062e+003,6.892202e-003
3.991990e+003,6.846964e-003
3.993919e+003,6.832766e-003
3.995847e+003,6.805188e-003
3.997776e+003,6.796231e-003
3.999704e+003,6.796611e-003
4.001633e+003,0.000000e+000
