3.991989e+002,2.899778e-002
4.011274e+002,2.874154e-002
4.030559e+002,2.874154e-002
4.049844e+002,2.828238e-002
4.069129e+002,2.724962e-002
4.088414e+002,2.703164e-002
4.107699e+002,2.712509e-002
4.126984e+002,2.754777e-002
4.146269e+002,2.734296e-002
4.165554e+002,2.809721e-002
4.184839e+002,2.781194e-002
4.204124e+002,2.803602e-002
4.223409e+002,2.785102e-002
4.242694e+002,2.788030e-002
4.261979e+002,2.875300e-002
4.281264e+002,2.848358e-002
4.300549e+002,2.857424e-002
4.319834e+002,2.807007e-002
4.339119e+002,2.768983e-002
4.358404e+002,2.842536e-002
4.377689e+002,2.814086e-002
4.396974e+002,2.815015e-002
4.416259e+002,2.837323e-002
4.435544e+002,2.802446e-002
4.454829e+002,2.694608e-002
4.474114e+002,2.756848e-002
4.493399e+002,2.777823e-002
4.512684e+002,2.786857e-002
4.531969e+002,2.770967e-002
4.551254e+002,2.801736e-002
4.570539e+002,2.817603e-002
4.589824e+002,2.789191e-002
4.609109e+002,2.761620e-002
4.628394e+002,2.788003e-002
4.647679e+002,2.834213e-002
4.666964e+002,2.831461e-002
4.686249e+002,2.810956e-002
4.705533e+002,2.846543e-002
4.724819e+002,2.844720e-002
4.744103e+002,2.889414e-002
4.763389e+002,2.866259e-002
4.782673e+002,2.859263e-002
4.801959e+002,2.813494e-002
4.821243e+002,2.774496e-002
4.840529e+002,2.805508e-002
4.859813e+002,2.834174e-002
4.879099e+002,2.815136e-002
4.898383e+002,2.785596e-002
4.917668e+002,2.755243e-002
4.936953e+002,2.775072e-002
4.956238e+002,2.814301e-002
4.975523e+002,2.816621e-002
4.994808e+002,2.829176e-002
5.014093e+002,2.832221e-002
5.033378e+002,2.805608e-002
5.052663e+002,2.785943e-002
5.071948e+002,2.776105e-002
5.091233e+002,2.774505e-002
5.110518e+002,2.745931e-002
5.129803e+002,2.729766e-002
5.149088e+002,2.712650e-002
5.168373e+002,2.741796e-002
5.187658e+002,2.718026e-002
5.206943e+002,2.752021e-002
5.226228e+002,2.753939e-002
5.245513e+002,2.781337e-002
5.264798e+002,2.759152e-002
5.284083e+002,2.709031e-002
5.303368e+002,2.689360e-002
5.322653e+002,2.755084e-002
5.341938e+002,2.761327e-002
5.361223e+002,2.714070e-002
5.380508e+002,2.702485e-002
5.399792e+002,2.695261e-002
5.419078e+002,2.648810e-002
5.438363e+002,2.639902e-002
5.457648e+002,2.643116e-002
5.476932e+002,2.660722e-002
5.496218e+002,2.672909e-002
5.515503e+002,2.667359e-002
5.534788e+002,2.652968e-002
5.554072e+002,2.686450e-002
5.573358e+002,2.674923e-002
5.592643e+002,2.699930e-002
5.611927e+002,2.683439e-002
5.631212e+002,2.669903e-002
5.650497e+002,2.653691e-002
5.669783e+002,2.631877e-002
5.689067e+002,2.623117e-002
5.708352e+002,2.629840e-002
5.727637e+002,2.622643e-002
5.746923e+002,2.614906e-002
5.766207e+002,2.571313e-002
5.785492e+002,2.554105e-002
5.804777e+002,2.537299e-002
5.824063e+002,2.566565e-002
5.843347e+002,2.566633e-002
5.862632e+002,2.572799e-002
5.881917e+002,2.562176e-002
5.901202e+002,2.572688e-002
5.920487e+002,2.557193e-002
5.939772e+002,2.540148e-002
5.959057e+002,2.537061e-002
5.978342e+002,2.536074e-002
5.997627e+002,2.512825e-002
6.016912e+002,2.522302e-002
6.036197e+002,2.523612e-002
6.055482e+002,2.506349e-002
6.074767e+002,2.492630e-002
6.094052e+002,2.506617e-002
6.113337e+002,2.499913e-002
6.132622e+002,2.467623e-002
6.151907e+002,2.457077e-002
6.171192e+002,2.471923e-002
6.190477e+002,2.439845e-002
6.209762e+002,2.398744e-002
6.229047e+002,2.362141e-002
6.248332e+002,2.340675e-002
6.267617e+002,2.322578e-002
6.286902e+002,2.326361e-002
6.306187e+002,2.304166e-002
6.325472e+002,2.288799e-002
6.344756e+002,2.282042e-002
6.364042e+002,2.268831e-002
6.383326e+002,2.245359e-002
6.402612e+002,2.227238e-002
6.421896e+002,2.198984e-002
6.441182e+002,2.182874e-002
6.460466e+002,2.178890e-002
6.479752e+002,2.192142e-002
6.499036e+002,2.172696e-002
6.518322e+002,2.143181e-002
6.537606e+002,2.135999e-002
6.556891e+002,2.136645e-002
6.576177e+002,2.123987e-002
6.595461e+002,2.142491e-002
6.614746e+002,2.158813e-002
6.634031e+002,2.162672e-002
6.653317e+002,2.167033e-002
6.672601e+002,2.148617e-002
6.691886e+002,2.126124e-002
6.711171e+002,2.112349e-002
6.730457e+002,2.086777e-002
6.749741e+002,2.045904e-002
6.769026e+002,2.014786e-002
6.788311e+002,2.000161e-002
6.807596e+002,1.956326e-002
6.826881e+002,1.938149e-002
6.846166e+002,1.919147e-002
6.865451e+002,1.899994e-002
6.884736e+002,1.900720e-002
6.904021e+002,1.907242e-002
6.923306e+002,1.914503e-002
6.942591e+002,1.912347e-002
6.961876e+002,1.891442e-002
6.981161e+002,1.886301e-002
7.000446e+002,1.877111e-002
7.019731e+002,1.875581e-002
7.039016e+002,1.863379e-002
7.058301e+002,1.835974e-002
7.077585e+002,1.807173e-002
7.096871e+002,1.796153e-002
7.116156e+002,1.790586e-002
7.135441e+002,1.783670e-002
7.154725e+002,1.751244e-002
7.174011e+002,1.732521e-002
7.193296e+002,1.735042e-002
7.212581e+002,1.724692e-002
7.231865e+002,1.693265e-002
7.251151e+002,1.678642e-002
7.270436e+002,1.671169e-002
7.289720e+002,1.663582e-002
7.309005e+002,1.643597e-002
7.328290e+002,1.626252e-002
7.347576e+002,1.611829e-002
7.366860e+002,1.607199e-002
7.386145e+002,1.575165e-002
7.405430e+002,1.560702e-002
7.424716e+002,1.552780e-002
7.444000e+002,1.549747e-002
7.463285e+002,1.547700e-002
7.482570e+002,1.544454e-002
7.501855e+002,1.523487e-002
7.521140e+002,1.514593e-002
7.540425e+002,1.510753e-002
7.559710e+002,1.498200e-002
7.578995e+002,1.485561e-002
7.598280e+002,1.479488e-002
7.617565e+002,1.469698e-002
7.636850e+002,1.455507e-002
7.656135e+002,1.451454e-002
7.675420e+002,1.459407e-002
7.694705e+002,1.456028e-002
7.713990e+002,1.450364e-002
7.733275e+002,1.448775e-002
7.752560e+002,1.454174e-002
7.771844e+002,1.446257e-002
7.791130e+002,1.436872e-002
7.810415e+002,1.430259e-002
7.829700e+002,1.423757e-002
7.848984e+002,1.407883e-002
7.868270e+002,1.415503e-002
7.887555e+002,1.421199e-002
7.906840e+002,1.417721e-002
7.926124e+002,1.406631e-002
7.945410e+002,1.415164e-002
7.964695e+002,1.414811e-002
7.983979e+002,1.398736e-002
8.003264e+002,1.383193e-002
8.022549e+002,1.384907e-002
8.041835e+002,1.380504e-002
8.061119e+002,1.381260e-002
8.080404e+002,1.368798e-002
8.099689e+002,1.354702e-002
8.118975e+002,1.351605e-002
8.138259e+002,1.344195e-002
8.157545e+002,1.338566e-002
8.176830e+002,1.340688e-002
8.196115e+002,1.333540e-002
8.215399e+002,1.329673e-002
8.234684e+002,1.319489e-002
8.253970e+002,1.316467e-002
8.273254e+002,1.311047e-002
8.292539e+002,1.316084e-002
8.311824e+002,1.313031e-002
8.331110e+002,1.309695e-002
8.350394e+002,1.307891e-002
8.369679e+002,1.301940e-002
8.388964e+002,1.288845e-002
8.408250e+002,1.295583e-002
8.427534e+002,1.301418e-002
8.446819e+002,1.292409e-002
8.466104e+002,1.289227e-002
8.485389e+002,1.294726e-002
8.504674e+002,1.288214e-002
8.523959e+002,1.293317e-002
8.543244e+002,1.295955e-002
8.562529e+002,1.304955e-002
8.581814e+002,1.302155e-002
8.601099e+002,1.289473e-002
8.620384e+002,1.289350e-002
8.639669e+002,1.293637e-002
8.658954e+002,1.298454e-002
8.678239e+002,1.305300e-002
8.697524e+002,1.302066e-002
8.716809e+002,1.305276e-002
8.736094e+002,1.311371e-002
8.755378e+002,1.313560e-002
8.774664e+002,1.306679e-002
8.793949e+002,1.315849e-002
8.813234e+002,1.326970e-002
8.832518e+002,1.345312e-002
8.851804e+002,1.355481e-002
8.871089e+002,1.360418e-002
8.890374e+002,1.376161e-002
8.909658e+002,1.396214e-002
8.928943e+002,1.408486e-002
8.948229e+002,1.432659e-002
8.967513e+002,1.435978e-002
8.986798e+002,1.440715e-002
9.006083e+002,1.435416e-002
9.025369e+002,1.420401e-002
9.044653e+002,1.402404e-002
9.063938e+002,1.386993e-002
9.083223e+002,1.369861e-002
9.102509e+002,1.365584e-002
9.121793e+002,1.365467e-002
9.141078e+002,1.362455e-002
9.160364e+002,1.358937e-002
9.179648e+002,1.366538e-002
9.198933e+002,1.373992e-002
9.218218e+002,1.383706e-002
9.237504e+002,1.375271e-002
9.256788e+002,1.386083e-002
9.276073e+002,1.406110e-002
9.295358e+002,1.416814e-002
9.314644e+002,1.426092e-002
9.333928e+002,1.441201e-002
9.353213e+002,1.456857e-002
9.372498e+002,1.474671e-002
9.391783e+002,1.487500e-002
9.411068e+002,1.523594e-002
9.430353e+002,1.554270e-002
9.449637e+002,1.583323e-002
9.468923e+002,1.608405e-002
9.488208e+002,1.639259e-002
9.507493e+002,1.672786e-002
9.526777e+002,1.705742e-002
9.546063e+002,1.733631e-002
9.565348e+002,1.757010e-002
9.584633e+002,1.781824e-002
9.603917e+002,1.822672e-002
9.623203e+002,1.862901e-002
9.642488e+002,1.902915e-002
9.661772e+002,1.933639e-002
9.681057e+002,1.964877e-002
9.700343e+002,2.001307e-002
9.719628e+002,2.040855e-002
9.738912e+002,2.085442e-002
9.758197e+002,2.131848e-002
9.777483e+002,2.173706e-002
9.796768e+002,2.231093e-002
9.816052e+002,2.293612e-002
9.835337e+002,2.353413e-002
9.854623e+002,2.402149e-002
9.873907e+002,2.450224e-002
9.893192e+002,2.493468e-002
9.912477e+002,2.527949e-002
9.931763e+002,2.548545e-002
9.951047e+002,2.562816e-002
9.970332e+002,2.581424e-002
9.989617e+002,2.604444e-002
1.000890e+003,2.639531e-002
1.002819e+003,2.673371e-002
1.004747e+003,2.701461e-002
1.006676e+003,2.735473e-002
1.008604e+003,2.764761e-002
1.010533e+003,2.801469e-002
1.012461e+003,2.840051e-002
1.014390e+003,2.879482e-002
1.016318e+003,2.919831e-002
1.018247e+003,2.964985e-002
1.020175e+003,3.010676e-002
1.022104e+003,3.060607e-002
1.024032e+003,3.114369e-002
1.025961e+003,3.169936e-002
1.027889e+003,3.226167e-002
1.029818e+003,3.286084e-002
1.031746e+003,3.335728e-002
1.033675e+003,3.363767e-002
1.035603e+003,3.369589e-002
1.037532e+003,3.354108e-002
1.039460e+003,3.321183e-002
1.041389e+003,3.282800e-002
1.043317e+003,3.250064e-002
1.045246e+003,3.229487e-002
1.047174e+003,3.207806e-002
1.049103e+003,3.189352e-002
1.051031e+003,3.172617e-002
1.052960e+003,3.160335e-002
1.054888e+003,3.141556e-002
1.056817e+003,3.113536e-002
1.058745e+003,3.083791e-002
1.060674e+003,3.053547e-002
1.062602e+003,3.008184e-002
1.064531e+003,2.953131e-002
1.066459e+003,2.902906e-002
1.068388e+003,2.858633e-002
1.070316e+003,2.817871e-002
1.072245e+003,2.780979e-002
1.074173e+003,2.735638e-002
1.076102e+003,2.693345e-002
1.078030e+003,2.655062e-002
1.079959e+003,2.609346e-002
1.081887e+003,2.557358e-002
1.083816e+003,2.521986e-002
1.085744e+003,2.487439e-002
1.087673e+003,2.456377e-002
1.089601e+003,2.428400e-002
1.091530e+003,2.399908e-002
1.093458e+003,2.364573e-002
1.095387e+003,2.336274e-002
1.097315e+003,2.315471e-002
1.099244e+003,2.296969e-002
1.101172e+003,2.280721e-002
1.103101e+003,2.265422e-002
1.105029e+003,2.247744e-002
1.106958e+003,2.227507e-002
1.108886e+003,2.189991e-002
1.110815e+003,2.149945e-002
1.112743e+003,2.101523e-002
1.114672e+003,2.046905e-002
1.116600e+003,1.989623e-002
1.118529e+003,1.937648e-002
1.120457e+003,1.895272e-002
1.122386e+003,1.860726e-002
1.124314e+003,1.823328e-002
1.126243e+003,1.773170e-002
1.128171e+003,1.724418e-002
1.130100e+003,1.684957e-002
1.132028e+003,1.642827e-002
1.133957e+003,1.612442e-002
1.135885e+003,1.584567e-002
1.137814e+003,1.564752e-002
1.139742e+003,1.556272e-002
1.141671e+003,1.553608e-002
1.143599e+003,1.556626e-002
1.145528e+003,1.571702e-002
1.147456e+003,1.584622e-002
1.149385e+003,1.590900e-002
1.151313e+003,1.599184e-002
1.153242e+003,1.613928e-002
1.155170e+003,1.630131e-002
1.157099e+003,1.639376e-002
1.159027e+003,1.641602e-002
1.160956e+003,1.638698e-002
1.162884e+003,1.615231e-002
1.164813e+003,1.578690e-002
1.166741e+003,1.528676e-002
1.168670e+003,1.474987e-002
1.170598e+003,1.417221e-002
1.172526e+003,1.362448e-002
1.174455e+003,1.316825e-002
1.176384e+003,1.276726e-002
1.178312e+003,1.243531e-002
1.180240e+003,1.210180e-002
1.182169e+003,1.179256e-002
1.184098e+003,1.157880e-002
1.186026e+003,1.145222e-002
1.187954e+003,1.136585e-002
1.189883e+003,1.127370e-002
1.191812e+003,1.125364e-002
1.193740e+003,1.132600e-002
1.195668e+003,1.145615e-002
1.197597e+003,1.158404e-002
1.199526e+003,1.172081e-002
1.201454e+003,1.186488e-002
1.203382e+003,1.195350e-002
1.205311e+003,1.197647e-002
1.207240e+003,1.197787e-002
1.209168e+003,1.196052e-002
1.211096e+003,1.194376e-002
1.213025e+003,1.199539e-002
1.214953e+003,1.210446e-002
1.216882e+003,1.214825e-002
1.218810e+003,1.218696e-002
1.220739e+003,1.225558e-002
1.222667e+003,1.235137e-002
1.224596e+003,1.244350e-002
1.226524e+003,1.252931e-002
1.228453e+003,1.264508e-002
1.230381e+003,1.275175e-002
1.232310e+003,1.283070e-002
1.234238e+003,1.290847e-002
1.236167e+003,1.295805e-002
1.238095e+003,1.297214e-002
1.240024e+003,1.298494e-002
1.241952e+003,1.300686e-002
1.243881e+003,1.303353e-002
1.245809e+003,1.303760e-002
1.247738e+003,1.297915e-002
1.249666e+003,1.294162e-002
1.251595e+003,1.288355e-002
1.253523e+003,1.285205e-002
1.255452e+003,1.282781e-002
1.257380e+003,1.279440e-002
1.259309e+003,1.269797e-002
1.261237e+003,1.257256e-002
1.263166e+003,1.242670e-002
1.265094e+003,1.227014e-002
1.267023e+003,1.212961e-002
1.268951e+003,1.207406e-002
1.270880e+003,1.198973e-002
1.272808e+003,1.188381e-002
1.274737e+003,1.176292e-002
1.276665e+003,1.169128e-002
1.278594e+003,1.162317e-002
1.280522e+003,1.154220e-002
1.282451e+003,1.146193e-002
1.284379e+003,1.136357e-002
1.286308e+003,1.126643e-002
1.288236e+003,1.117483e-002
1.290165e+003,1.111709e-002
1.292093e+003,1.111841e-002
1.294022e+003,1.111467e-002
1.295950e+003,1.112624e-002
1.297879e+003,1.117354e-002
1.299807e+003,1.120827e-002
1.301736e+003,1.123693e-002
1.303664e+003,1.134157e-002
1.305593e+003,1.147027e-002
1.307521e+003,1.158007e-002
1.309450e+003,1.170531e-002
1.311378e+003,1.183264e-002
1.313307e+003,1.189329e-002
1.315235e+003,1.188599e-002
1.317164e+003,1.186908e-002
1.319092e+003,1.186406e-002
1.321021e+003,1.182455e-002
1.322949e+003,1.174871e-002
1.324878e+003,1.168324e-002
1.326806e+003,1.160888e-002
1.328735e+003,1.155429e-002
1.330663e+003,1.158061e-002
1.332592e+003,1.158456e-002
1.334520e+003,1.157839e-002
1.336449e+003,1.156427e-002
1.338377e+003,1.151998e-002
1.340306e+003,1.146013e-002
1.342234e+003,1.143316e-002
1.344163e+003,1.143171e-002
1.346091e+003,1.141462e-002
1.348020e+003,1.139102e-002
1.349948e+003,1.143526e-002
1.351877e+003,1.145607e-002
1.353805e+003,1.149653e-002
1.355734e+003,1.155901e-002
1.357662e+003,1.157471e-002
1.359591e+003,1.157682e-002
1.361519e+003,1.165029e-002
1.363448e+003,1.171593e-002
1.365376e+003,1.178702e-002
1.367305e+003,1.186214e-002
1.369233e+003,1.188822e-002
1.371162e+003,1.184544e-002
1.373090e+003,1.176415e-002
1.375019e+003,1.165504e-002
1.376947e+003,1.161116e-002
1.378876e+003,1.155866e-002
1.380804e+003,1.144247e-002
1.382733e+003,1.128961e-002
1.384661e+003,1.115402e-002
1.386590e+003,1.104256e-002
1.388518e+003,1.097278e-002
1.390447e+003,1.092338e-002
1.392375e+003,1.085632e-002
1.394304e+003,1.082533e-002
1.396232e+003,1.082295e-002
1.398161e+003,1.078250e-002
1.400089e+003,1.078638e-002
1.402018e+003,1.080019e-002
1.403946e+003,1.086133e-002
1.405875e+003,1.090417e-002
1.407803e+003,1.091778e-002
1.409732e+003,1.093064e-002
1.411660e+003,1.098115e-002
1.413589e+003,1.105918e-002
1.415517e+003,1.114032e-002
1.417446e+003,1.118704e-002
1.419374e+003,1.118906e-002
1.421303e+003,1.119282e-002
1.423231e+003,1.121358e-002
1.425160e+003,1.125599e-002
1.427088e+003,1.121502e-002
1.429017e+003,1.112477e-002
1.430945e+003,1.107849e-002
1.432874e+003,1.104365e-002
1.434802e+003,1.095195e-002
1.436731e+003,1.085283e-002
1.438659e+003,1.082225e-002
1.440588e+003,1.079259e-002
1.442516e+003,1.077607e-002
1.444445e+003,1.073636e-002
1.446373e+003,1.072012e-002
1.448302e+003,1.072853e-002
1.450230e+003,1.070901e-002
1.452159e+003,1.063193e-002
1.454087e+003,1.056455e-002
1.456016e+003,1.049986e-002
1.457944e+003,1.045127e-002
1.459873e+003,1.037032e-002
1.461801e+003,1.029838e-002
1.463730e+003,1.022416e-002
1.465658e+003,1.015743e-002
1.467587e+003,1.000010e-002
1.469515e+003,9.802765e-003
1.471444e+003,9.621185e-003
1.473372e+003,9.444921e-003
1.475301e+003,9.328634e-003
1.477229e+003,9.248313e-003
1.479158e+003,9.146392e-003
1.481086e+003,9.053276e-003
1.483015e+003,9.014615e-003
1.484943e+003,8.999414e-003
1.486872e+003,8.967054e-003
1.488800e+003,8.961719e-003
1.490729e+003,8.997449e-003
1.492657e+003,9.038431e-003
1.494586e+003,9.117262e-003
1.496514e+003,9.217182e-003
1.498443e+003,9.313921e-003
1.500371e+003,9.448191e-003
1.502300e+003,9.585524e-003
1.504228e+003,9.665371e-003
1.506157e+003,9.742327e-003
1.508085e+003,9.841764e-003
1.510014e+003,9.898227e-003
1.511942e+003,9.925811e-003
1.513871e+003,9.980781e-003
1.515799e+003,9.971368e-003
1.517728e+003,9.931128e-003
1.519656e+003,9.873101e-003
1.521585e+003,9.799027e-003
1.523513e+003,9.718665e-003
1.525442e+003,9.691485e-003
1.527370e+003,9.700133e-003
1.529299e+003,9.684284e-003
1.531227e+003,9.682565e-003
1.533156e+003,9.700896e-003
1.535084e+003,9.723509e-003
1.537013e+003,9.762642e-003
1.538941e+003,9.808676e-003
1.540870e+003,9.752510e-003
1.542798e+003,9.705818e-003
1.544727e+003,9.700700e-003
1.546655e+003,9.669763e-003
1.548584e+003,9.579460e-003
1.550512e+003,9.534468e-003
1.552441e+003,9.523639e-003
1.554369e+003,9.480739e-003
1.556298e+003,9.401924e-003
1.558226e+003,9.361017e-003
1.560155e+003,9.371416e-003
1.562083e+003,9.337506e-003
1.564012e+003,9.305898e-003
1.565940e+003,9.305533e-003
1.567869e+003,9.345001e-003
1.569797e+003,9.347457e-003
1.571726e+003,9.335064e-003
1.573654e+003,9.359740e-003
1.575583e+003,9.427645e-003
1.577511e+003,9.471717e-003
1.579440e+003,9.526336e-003
1.581368e+003,9.643188e-003
1.583297e+003,9.692861e-003
1.585225e+003,9.753074e-003
1.587154e+003,9.846295e-003
1.589082e+003,9.958082e-003
1.591010e+003,1.000787e-002
1.592939e+003,1.004848e-002
1.594868e+003,1.009526e-002
1.596796e+003,1.017537e-002
1.598724e+003,1.026719e-002
1.600653e+003,1.030082e-002
1.602582e+003,1.034703e-002
1.604510e+003,1.040533e-002
1.606438e+003,1.045117e-002
1.608367e+003,1.050242e-002
1.610296e+003,1.054077e-002
1.612224e+003,1.063392e-002
1.614152e+003,1.074146e-002
1.616081e+003,1.088148e-002
1.618010e+003,1.101767e-002
1.619938e+003,1.114636e-002
1.621866e+003,1.125335e-002
1.623795e+003,1.135437e-002
1.625724e+003,1.149797e-002
1.627652e+003,1.157204e-002
1.629580e+003,1.158854e-002
1.631509e+003,1.160327e-002
1.633438e+003,1.160883e-002
1.635366e+003,1.160709e-002
1.637294e+003,1.160156e-002
1.639223e+003,1.156513e-002
1.641151e+003,1.154409e-002
1.643080e+003,1.151788e-002
1.645008e+003,1.149073e-002
1.646937e+003,1.146924e-002
1.648865e+003,1.140527e-002
1.650794e+003,1.133223e-002
1.652722e+003,1.125464e-002
1.654651e+003,1.116419e-002
1.656579e+003,1.108595e-002
1.658508e+003,1.095869e-002
1.660436e+003,1.079847e-002
1.662365e+003,1.070541e-002
1.664293e+003,1.058150e-002
1.666222e+003,1.042773e-002
1.668150e+003,1.025863e-002
1.670079e+003,1.010207e-002
1.672007e+003,9.980423e-003
1.673936e+003,9.836487e-003
1.675864e+003,9.683479e-003
1.677793e+003,9.528071e-003
1.679721e+003,9.394737e-003
1.681650e+003,9.267079e-003
1.683578e+003,9.149560e-003
1.685507e+003,9.052951e-003
1.687435e+003,8.857482e-003
1.689364e+003,8.692698e-003
1.691292e+003,8.625371e-003
1.693221e+003,8.577959e-003
1.695149e+003,8.473313e-003
1.697078e+003,8.353211e-003
1.699006e+003,8.226104e-003
1.700935e+003,8.091963e-003
1.702863e+003,8.007286e-003
1.704792e+003,7.978243e-003
1.706720e+003,7.936832e-003
1.708649e+003,7.906490e-003
1.710577e+003,7.946997e-003
1.712506e+003,7.941576e-003
1.714434e+003,7.891622e-003
1.716363e+003,7.872313e-003
1.718291e+003,7.873015e-003
1.720220e+003,7.881364e-003
1.722148e+003,7.860228e-003
1.724077e+003,7.854772e-003
1.726005e+003,7.888411e-003
1.727934e+003,7.817321e-003
1.729862e+003,7.812232e-003
1.731791e+003,7.767027e-003
1.733719e+003,7.678592e-003
1.735648e+003,7.591876e-003
1.737576e+003,7.548600e-003
1.739505e+003,7.517996e-003
1.741433e+003,7.480548e-003
1.743362e+003,7.412906e-003
1.745290e+003,7.315951e-003
1.747219e+003,7.255476e-003
1.749147e+003,7.226333e-003
1.751076e+003,7.136356e-003
1.753004e+003,7.026821e-003
1.754933e+003,6.960533e-003
1.756861e+003,6.886558e-003
1.758790e+003,6.825218e-003
1.760718e+003,6.787448e-003
1.762647e+003,6.761382e-003
1.764575e+003,6.751319e-003
1.766504e+003,6.724188e-003
1.768432e+003,6.651524e-003
1.770361e+003,6.613659e-003
1.772289e+003,6.651701e-003
1.774218e+003,6.681285e-003
1.776146e+003,6.719560e-003
1.778075e+003,6.675949e-003
1.780003e+003,6.663314e-003
1.781932e+003,6.681076e-003
1.783860e+003,6.686915e-003
1.785789e+003,6.677292e-003
1.787717e+003,6.677453e-003
1.789646e+003,6.679696e-003
1.791574e+003,6.715393e-003
1.793503e+003,6.697678e-003
1.795431e+003,6.685003e-003
1.797360e+003,6.767908e-003
1.799288e+003,6.811068e-003
1.801217e+003,6.796888e-003
1.803145e+003,6.716492e-003
1.805074e+003,6.693310e-003
1.807002e+003,6.706140e-003
1.808931e+003,6.695771e-003
1.810859e+003,6.660466e-003
1.812788e+003,6.670991e-003
1.814716e+003,6.716155e-003
1.816645e+003,6.739049e-003
1.818573e+003,6.702519e-003
1.820502e+003,6.642828e-003
1.822430e+003,6.639887e-003
1.824359e+003,6.611864e-003
1.826287e+003,6.656575e-003
1.828216e+003,6.709924e-003
1.830144e+003,6.740785e-003
1.832073e+003,6.699719e-003
1.834001e+003,6.625372e-003
1.835930e+003,6.595463e-003
1.837858e+003,6.653444e-003
1.839787e+003,6.727445e-003
1.841715e+003,6.719064e-003
1.843644e+003,6.691677e-003
1.845572e+003,6.713777e-003
1.847501e+003,6.772537e-003
1.849429e+003,6.783611e-003
1.851358e+003,6.743057e-003
1.853286e+003,6.733748e-003
1.855215e+003,6.728939e-003
1.857143e+003,6.837901e-003
1.859072e+003,6.914947e-003
1.861000e+003,6.785551e-003
1.862929e+003,6.685243e-003
1.864857e+003,6.726760e-003
1.866786e+003,6.693698e-003
1.868714e+003,6.580188e-003
1.870643e+003,6.548289e-003
1.872571e+003,6.734086e-003
1.874500e+003,6.851305e-003
1.876428e+003,6.768390e-003
1.878357e+003,6.780234e-003
1.880285e+003,6.835057e-003
1.882214e+003,6.898478e-003
1.884142e+003,6.910957e-003
1.886071e+003,6.760011e-003
1.887999e+003,6.856445e-003
1.889928e+003,6.867355e-003
1.891856e+003,6.641239e-003
1.893785e+003,6.638015e-003
1.895713e+003,6.724964e-003
1.897642e+003,6.696117e-003
1.899570e+003,6.688381e-003
1.901499e+003,6.852657e-003
1.903427e+003,6.914882e-003
1.905356e+003,6.676902e-003
1.907284e+003,6.542539e-003
1.909213e+003,6.524627e-003
1.911141e+003,6.590090e-003
1.913070e+003,6.730589e-003
1.914998e+003,6.900343e-003
1.916927e+003,6.696702e-003
1.918855e+003,6.679966e-003
1.920784e+003,6.678057e-003
1.922712e+003,6.468217e-003
1.924641e+003,6.471980e-003
1.926569e+003,6.489449e-003
1.928498e+003,6.537513e-003
1.930426e+003,6.601067e-003
1.932355e+003,6.826853e-003
1.934283e+003,6.766898e-003
1.936212e+003,6.325922e-003
1.938140e+003,6.255334e-003
1.940069e+003,6.441418e-003
1.941997e+003,6.416369e-003
1.943926e+003,6.072778e-003
1.945854e+003,6.038687e-003
1.947783e+003,5.746471e-003
1.949711e+003,5.908570e-003
1.951640e+003,6.144804e-003
1.953568e+003,6.103964e-003
1.955497e+003,6.563253e-003
1.957425e+003,6.338150e-003
1.959354e+003,6.367662e-003
1.961282e+003,6.756203e-003
1.963211e+003,6.680564e-003
1.965139e+003,5.945265e-003
1.967068e+003,6.092352e-003
1.968996e+003,6.058055e-003
1.970925e+003,5.543269e-003
1.972853e+003,5.206069e-003
1.974782e+003,5.028906e-003
1.976710e+003,5.014483e-003
1.978639e+003,5.396554e-003
1.980567e+003,5.792362e-003
1.982496e+003,6.196133e-003
1.984424e+003,6.406785e-003
1.986353e+003,6.507056e-003
1.988281e+003,6.338163e-003
1.990210e+003,6.230594e-003
1.992138e+003,5.991547e-003
1.994067e+003,5.701089e-003
1.995995e+003,5.300489e-003
1.997924e+003,5.084275e-003
1.999852e+003,5.125998e-003
2.001781e+003,5.710630e-003
2.003709e+003,5.470171e-003
2.005638e+003,5.319267e-003
2.007566e+003,5.597851e-003
2.009495e+003,5.800202e-003
2.011423e+003,5.565773e-003
2.013352e+003,4.871278e-003
2.015280e+003,4.624976e-003
2.017208e+003,5.000783e-003
2.019137e+003,4.963030e-003
2.021066e+003,4.752778e-003
2.022994e+003,4.683154e-003
2.024922e+003,4.777537e-003
2.026851e+003,4.613379e-003
2.028780e+003,5.671109e-003
2.030708e+003,5.713978e-003
2.032636e+003,4.814622e-003
2.034565e+003,4.671601e-003
2.036494e+003,4.159022e-003
2.038422e+003,4.804032e-003
2.040350e+003,4.973818e-003
2.042279e+003,4.699158e-003
2.044208e+003,4.671972e-003
2.046136e+003,4.722536e-003
2.048064e+003,5.224753e-003
2.049993e+003,5.648602e-003
2.051921e+003,6.054687e-003
2.053850e+003,6.147444e-003
2.055778e+003,6.698763e-003
2.057707e+003,6.598270e-003
2.059635e+003,6.112500e-003
2.061564e+003,6.094910e-003
2.063492e+003,6.237087e-003
2.065421e+003,6.199942e-003
2.067349e+003,6.265694e-003
2.069278e+003,6.557984e-003
2.071206e+003,6.631966e-003
2.073135e+003,6.193610e-003
2.075063e+003,6.182959e-003
2.076992e+003,6.542906e-003
2.078920e+003,6.253278e-003
2.080849e+003,6.070483e-003
2.082777e+003,6.400763e-003
2.084706e+003,6.717515e-003
2.086634e+003,6.953782e-003
2.088563e+003,6.941797e-003
2.090491e+003,6.669756e-003
2.092420e+003,6.692940e-003
2.094348e+003,6.935757e-003
2.096277e+003,6.859875e-003
2.098205e+003,6.520916e-003
2.100134e+003,6.341072e-003
2.102062e+003,6.723010e-003
2.103991e+003,6.845618e-003
2.105919e+003,6.663991e-003
2.107848e+003,6.705411e-003
2.109776e+003,6.879179e-003
2.111705e+003,6.969439e-003
2.113633e+003,6.963244e-003
2.115562e+003,6.961291e-003
2.117490e+003,7.005737e-003
2.119419e+003,6.899310e-003
2.121347e+003,6.852014e-003
2.123276e+003,6.834678e-003
2.125204e+003,6.641684e-003
2.127133e+003,6.675767e-003
2.129061e+003,6.927017e-003
2.130990e+003,6.664058e-003
2.132918e+003,6.350082e-003
2.134847e+003,6.360001e-003
2.136775e+003,6.612817e-003
2.138704e+003,6.721462e-003
2.140632e+003,6.811925e-003
2.142561e+003,7.036852e-003
2.144489e+003,7.123978e-003
2.146418e+003,6.624357e-003
2.148346e+003,5.958327e-003
2.150275e+003,5.841779e-003
2.152203e+003,6.399476e-003
2.154132e+003,7.553266e-003
2.156060e+003,7.932290e-003
2.157989e+003,7.064230e-003
2.159917e+003,6.624222e-003
2.161846e+003,6.839391e-003
2.163774e+003,6.143087e-003
2.165703e+003,5.854339e-003
2.167631e+003,6.540021e-003
2.169560e+003,7.175178e-003
2.171488e+003,6.663049e-003
2.173417e+003,6.378191e-003
2.175345e+003,6.404621e-003
2.177274e+003,7.030285e-003
2.179202e+003,6.240623e-003
2.181131e+003,5.768239e-003
2.183059e+003,5.787009e-003
2.184988e+003,6.199145e-003
2.186916e+003,6.703056e-003
2.188845e+003,7.640732e-003
2.190773e+003,7.591501e-003
2.192702e+003,6.532285e-003
2.194630e+003,6.377283e-003
2.196559e+003,7.031565e-003
2.198487e+003,7.260850e-003
2.200416e+003,7.490998e-003
2.202344e+003,7.282784e-003
2.204273e+003,7.435716e-003
2.206201e+003,7.397158e-003
2.208130e+003,7.550501e-003
2.210058e+003,7.521608e-003
2.211987e+003,7.314593e-003
2.213915e+003,7.219646e-003
2.215844e+003,6.889109e-003
2.217772e+003,6.617494e-003
2.219701e+003,7.129098e-003
2.221629e+003,7.231673e-003
2.223558e+003,7.179355e-003
2.225486e+003,7.076321e-003
2.227415e+003,7.030689e-003
2.229343e+003,7.114009e-003
2.231272e+003,7.279195e-003
2.233200e+003,7.230024e-003
2.235129e+003,7.181830e-003
2.237057e+003,7.257909e-003
2.238986e+003,7.248995e-003
2.240914e+003,7.241818e-003
2.242843e+003,7.141886e-003
2.244771e+003,7.186640e-003
2.246700e+003,7.030057e-003
2.248628e+003,6.922324e-003
2.250557e+003,6.886133e-003
2.252485e+003,6.867208e-003
2.254414e+003,7.271344e-003
2.256342e+003,7.418598e-003
2.258271e+003,7.057244e-003
2.260199e+003,6.701122e-003
2.262128e+003,7.030315e-003
2.264056e+003,7.294532e-003
2.265985e+003,7.410182e-003
2.267913e+003,7.407589e-003
2.269842e+003,7.294830e-003
2.271770e+003,7.281372e-003
2.273699e+003,7.364968e-003
2.275627e+003,7.349134e-003
2.277556e+003,7.146358e-003
2.279484e+003,7.350906e-003
2.281413e+003,7.396376e-003
2.283341e+003,7.244338e-003
2.285270e+003,7.187101e-003
2.287198e+003,7.294596e-003
2.289127e+003,7.524422e-003
2.291055e+003,7.644472e-003
2.292984e+003,7.611724e-003
2.294912e+003,7.673084e-003
2.296841e+003,7.660113e-003
2.298769e+003,7.648110e-003
2.300698e+003,7.509105e-003
2.302626e+003,7.428593e-003
2.304555e+003,7.585637e-003
2.306483e+003,7.594023e-003
2.308412e+003,7.771409e-003
2.310340e+003,7.920398e-003
2.312269e+003,7.830848e-003
2.314197e+003,7.842766e-003
2.316125e+003,7.858369e-003
2.318054e+003,7.773494e-003
2.319983e+003,7.801893e-003
2.321911e+003,7.938708e-003
2.323840e+003,8.010670e-003
2.325768e+003,7.987765e-003
2.327697e+003,7.839992e-003
2.329625e+003,7.737734e-003
2.331553e+003,7.791690e-003
2.333482e+003,7.788086e-003
2.335411e+003,7.722666e-003
2.337339e+003,7.727552e-003
2.339268e+003,7.706844e-003
2.341196e+003,7.554289e-003
2.343125e+003,7.483996e-003
2.345053e+003,7.407457e-003
2.346981e+003,7.396608e-003
2.348910e+003,7.314035e-003
2.350839e+003,7.404924e-003
2.352767e+003,7.322033e-003
2.354696e+003,7.127199e-003
2.356624e+003,7.261178e-003
2.358552e+003,7.349826e-003
2.360481e+003,7.263111e-003
2.362409e+003,7.250293e-003
2.364338e+003,7.457946e-003
2.366267e+003,7.479097e-003
2.368195e+003,7.251914e-003
2.370124e+003,7.327729e-003
2.372052e+003,7.440336e-003
2.373980e+003,7.392890e-003
2.375909e+003,7.568139e-003
2.377838e+003,7.492711e-003
2.379766e+003,7.325885e-003
2.381695e+003,7.353977e-003
2.383623e+003,7.463924e-003
2.385552e+003,7.459368e-003
2.387480e+003,7.430776e-003
2.389408e+003,7.409964e-003
2.391337e+003,7.372491e-003
2.393266e+003,7.357785e-003
2.395194e+003,7.305345e-003
2.397123e+003,7.243074e-003
2.399051e+003,7.296983e-003
2.400979e+003,7.292691e-003
2.402908e+003,7.348527e-003
2.404836e+003,7.327667e-003
2.406765e+003,7.043957e-003
2.408694e+003,6.945736e-003
2.410622e+003,6.986544e-003
2.412551e+003,7.042442e-003
2.414479e+003,7.101648e-003
2.416407e+003,7.055070e-003
2.418336e+003,6.971897e-003
2.420264e+003,7.023415e-003
2.422193e+003,7.055677e-003
2.424122e+003,7.048773e-003
2.426050e+003,7.197277e-003
2.427979e+003,7.210819e-003
2.429907e+003,7.045338e-003
2.431835e+003,6.889109e-003
2.433764e+003,6.980281e-003
2.435692e+003,7.056822e-003
2.437621e+003,7.008734e-003
2.439550e+003,7.056013e-003
2.441478e+003,7.086087e-003
2.443406e+003,7.082821e-003
2.445335e+003,7.090028e-003
2.447263e+003,7.099964e-003
2.449192e+003,7.077163e-003
2.451121e+003,7.015973e-003
2.453049e+003,7.046988e-003
2.454978e+003,7.183869e-003
2.456906e+003,7.263511e-003
2.458834e+003,7.297947e-003
2.460763e+003,7.130917e-003
2.462691e+003,6.973344e-003
2.464620e+003,7.070730e-003
2.466549e+003,7.141426e-003
2.468477e+003,7.082720e-003
2.470406e+003,7.077264e-003
2.472334e+003,7.099391e-003
2.474262e+003,7.058438e-003
2.476191e+003,7.053555e-003
2.478119e+003,7.002706e-003
2.480048e+003,6.947722e-003
2.481977e+003,6.965129e-003
2.483905e+003,6.995264e-003
2.485833e+003,6.968766e-003
2.487762e+003,6.868306e-003
2.489690e+003,6.766355e-003
2.491619e+003,6.864199e-003
2.493547e+003,7.018364e-003
2.495476e+003,7.027456e-003
2.497405e+003,6.956240e-003
2.499333e+003,6.897122e-003
2.501261e+003,6.916883e-003
2.503190e+003,6.943480e-003
2.505118e+003,6.914627e-003
2.507047e+003,6.935467e-003
2.508975e+003,6.908163e-003
2.510904e+003,6.898132e-003
2.512833e+003,6.979776e-003
2.514761e+003,6.970045e-003
2.516689e+003,6.924155e-003
2.518618e+003,6.939978e-003
2.520546e+003,7.068137e-003
2.522475e+003,6.933447e-003
2.524403e+003,6.898569e-003
2.526332e+003,6.848446e-003
2.528260e+003,6.877260e-003
2.530189e+003,6.901969e-003
2.532117e+003,6.916277e-003
2.534046e+003,6.922236e-003
2.535974e+003,6.783923e-003
2.537903e+003,6.772379e-003
2.539831e+003,6.824817e-003
2.541760e+003,6.869820e-003
2.543688e+003,6.848109e-003
2.545617e+003,6.877832e-003
2.547545e+003,6.917691e-003
2.549474e+003,6.882814e-003
2.551402e+003,6.809603e-003
2.553331e+003,6.725130e-003
2.555259e+003,6.792404e-003
2.557188e+003,6.822225e-003
2.559116e+003,6.734082e-003
2.561045e+003,6.800246e-003
2.562973e+003,6.970281e-003
2.564902e+003,6.991325e-003
2.566830e+003,6.981964e-003
2.568759e+003,6.911193e-003
2.570687e+003,6.843464e-003
2.572616e+003,6.922977e-003
2.574544e+003,7.079958e-003
2.576473e+003,7.147455e-003
2.578401e+003,7.019105e-003
2.580330e+003,6.903989e-003
2.582258e+003,6.923381e-003
2.584187e+003,6.926276e-003
2.586115e+003,6.882814e-003
2.588044e+003,6.931831e-003
2.589972e+003,6.948631e-003
2.591901e+003,6.932403e-003
2.593829e+003,6.967351e-003
2.595758e+003,6.933851e-003
2.597686e+003,6.851340e-003
2.599615e+003,6.849220e-003
2.601543e+003,6.837506e-003
2.603472e+003,6.865242e-003
2.605400e+003,6.865074e-003
2.607329e+003,6.866825e-003
2.609257e+003,6.954086e-003
2.611186e+003,7.016916e-003
2.613114e+003,6.950315e-003
2.615043e+003,6.956948e-003
2.616971e+003,6.978260e-003
2.618900e+003,7.024493e-003
2.620828e+003,7.049042e-003
2.622757e+003,7.055677e-003
2.624685e+003,7.174605e-003
2.626614e+003,7.269779e-003
2.628542e+003,7.231269e-003
2.630471e+003,7.280291e-003
2.632399e+003,7.363254e-003
2.634328e+003,7.381486e-003
2.636256e+003,7.353953e-003
2.638185e+003,7.370499e-003
2.640113e+003,7.428369e-003
2.642042e+003,7.540016e-003
2.643970e+003,7.512371e-003
2.645899e+003,7.444109e-003
2.647827e+003,7.454390e-003
2.649756e+003,7.540117e-003
2.651684e+003,7.610316e-003
2.653613e+003,7.661270e-003
2.655541e+003,7.681673e-003
2.657470e+003,7.698165e-003
2.659398e+003,7.696748e-003
2.661327e+003,7.701436e-003
2.663255e+003,7.705720e-003
2.665184e+003,7.681571e-003
2.667112e+003,7.662348e-003
2.669041e+003,7.653547e-003
2.670969e+003,7.681234e-003
2.672898e+003,7.668621e-003
2.674826e+003,7.662214e-003
2.676755e+003,7.617667e-003
2.678683e+003,7.646701e-003
2.680612e+003,7.721909e-003
2.682540e+003,7.735839e-003
2.684469e+003,7.747914e-003
2.686397e+003,7.741472e-003
2.688326e+003,7.745047e-003
2.690254e+003,7.802662e-003
2.692183e+003,7.835453e-003
2.694111e+003,7.846081e-003
2.696040e+003,7.818012e-003
2.697968e+003,7.788696e-003
2.699897e+003,7.794904e-003
2.701825e+003,7.846284e-003
2.703754e+003,7.844563e-003
2.705682e+003,7.750005e-003
2.707611e+003,7.745182e-003
2.709539e+003,7.808971e-003
2.711468e+003,7.817978e-003
2.713396e+003,7.793993e-003
2.715325e+003,7.818080e-003
2.717253e+003,7.859138e-003
2.719182e+003,7.836634e-003
2.721110e+003,7.806238e-003
2.723039e+003,7.848983e-003
2.724967e+003,7.885995e-003
2.726896e+003,7.902293e-003
2.728824e+003,7.890956e-003
2.730753e+003,7.847195e-003
2.732681e+003,7.824590e-003
2.734610e+003,7.854449e-003
2.736538e+003,7.885725e-003
2.738467e+003,7.844833e-003
2.740395e+003,7.818248e-003
2.742324e+003,7.878336e-003
2.744252e+003,7.897737e-003
2.746181e+003,7.844529e-003
2.748109e+003,7.838018e-003
2.750038e+003,7.861668e-003
2.751966e+003,7.857248e-003
2.753895e+003,7.809882e-003
2.755823e+003,7.852728e-003
2.757752e+003,7.904789e-003
2.759680e+003,7.883295e-003
2.761609e+003,7.875434e-003
2.763537e+003,7.873376e-003
2.765466e+003,7.859610e-003
2.767394e+003,7.888897e-003
2.769323e+003,7.940726e-003
2.771251e+003,7.943156e-003
2.773180e+003,7.970997e-003
2.775108e+003,7.951121e-003
2.777037e+003,7.946666e-003
2.778965e+003,7.968737e-003
2.780894e+003,8.005422e-003
2.782822e+003,7.996782e-003
2.784750e+003,7.957600e-003
2.786679e+003,7.964619e-003
2.788608e+003,7.989053e-003
2.790536e+003,7.963337e-003
2.792465e+003,7.969884e-003
2.794393e+003,7.993205e-003
2.796322e+003,8.025470e-003
2.798250e+003,8.089739e-003
2.800178e+003,8.089569e-003
2.802107e+003,8.048287e-003
2.804036e+003,8.035528e-003
2.805964e+003,7.991787e-003
2.807893e+003,8.008999e-003
2.809821e+003,8.049502e-003
2.811750e+003,8.056759e-003
2.813678e+003,8.006502e-003
2.815606e+003,8.080185e-003
2.817535e+003,8.158372e-003
2.819464e+003,8.146454e-003
2.821392e+003,8.139128e-003
2.823321e+003,8.186328e-003
2.825249e+003,8.241908e-003
2.827177e+003,8.240962e-003
2.829106e+003,8.240659e-003
2.831034e+003,8.244812e-003
2.832963e+003,8.283243e-003
2.834892e+003,8.294928e-003
2.836820e+003,8.306681e-003
2.838749e+003,8.344273e-003
2.840677e+003,8.327284e-003
2.842605e+003,8.326541e-003
2.844534e+003,8.380585e-003
2.846462e+003,8.487477e-003
2.848391e+003,8.505926e-003
2.850320e+003,8.515522e-003
2.852248e+003,8.589698e-003
2.854177e+003,8.596964e-003
2.856105e+003,8.596085e-003
2.858033e+003,8.621669e-003
2.859962e+003,8.650838e-003
2.861890e+003,8.668888e-003
2.863819e+003,8.701103e-003
2.865748e+003,8.796544e-003
2.867676e+003,8.842023e-003
2.869604e+003,8.823053e-003
2.871533e+003,8.791235e-003
2.873461e+003,8.777847e-003
2.875390e+003,8.787110e-003
2.877319e+003,8.790221e-003
2.879247e+003,8.809257e-003
2.881176e+003,8.863395e-003
2.883104e+003,8.881589e-003
2.885032e+003,8.893595e-003
2.886961e+003,8.902422e-003
2.888889e+003,8.869517e-003
2.890818e+003,8.839927e-003
2.892747e+003,8.878208e-003
2.894675e+003,8.855246e-003
2.896604e+003,8.839284e-003
2.898532e+003,8.811219e-003
2.900460e+003,8.797220e-003
2.902389e+003,8.780585e-003
2.904317e+003,8.796071e-003
2.906246e+003,8.783763e-003
2.908175e+003,8.784169e-003
2.910103e+003,8.776561e-003
2.912031e+003,8.822310e-003
2.913960e+003,8.846082e-003
2.915888e+003,8.815851e-003
2.917817e+003,8.795022e-003
2.919745e+003,8.825454e-003
2.921674e+003,8.798437e-003
2.923603e+003,8.740691e-003
2.925531e+003,8.682545e-003
2.927459e+003,8.640462e-003
2.929388e+003,8.644247e-003
2.931316e+003,8.621872e-003
2.933245e+003,8.620217e-003
2.935173e+003,8.634862e-003
2.937102e+003,8.654328e-003
2.939031e+003,8.637030e-003
2.940959e+003,8.611250e-003
2.942887e+003,8.559035e-003
2.944816e+003,8.546971e-003
2.946744e+003,8.503869e-003
2.948673e+003,8.398870e-003
2.950601e+003,8.356745e-003
2.952530e+003,8.318689e-003
2.954458e+003,8.302593e-003
2.956387e+003,8.290715e-003
2.958315e+003,8.243349e-003
2.960244e+003,8.183639e-003
2.962172e+003,8.183037e-003
2.964101e+003,8.184294e-003
2.966029e+003,8.150171e-003
2.967958e+003,8.090979e-003
2.969886e+003,8.080842e-003
2.971815e+003,8.074854e-003
2.973743e+003,8.092408e-003
2.975672e+003,8.083524e-003
2.977600e+003,8.112677e-003
2.979529e+003,8.055937e-003
2.981457e+003,7.983881e-003
2.983386e+003,7.945791e-003
2.985314e+003,7.923748e-003
2.987243e+003,7.903158e-003
2.989171e+003,7.934244e-003
2.991100e+003,7.941794e-003
2.993028e+003,7.894752e-003
2.994957e+003,7.847640e-003
2.996885e+003,7.908083e-003
2.998814e+003,7.949785e-003
3.000742e+003,7.896663e-003
3.002671e+003,7.879701e-003
3.004599e+003,7.978598e-003
3.006528e+003,7.970070e-003
3.008456e+003,7.931796e-003
3.010385e+003,7.909848e-003
3.012313e+003,7.955457e-003
3.014242e+003,7.973799e-003
3.016170e+003,7.964699e-003
3.018099e+003,7.957960e-003
3.020027e+003,7.938234e-003
3.021956e+003,7.898121e-003
3.023884e+003,7.947128e-003
3.025813e+003,8.047951e-003
3.027741e+003,8.035745e-003
3.029670e+003,8.059812e-003
3.031598e+003,8.092808e-003
3.033527e+003,8.074803e-003
3.035455e+003,8.073002e-003
3.037384e+003,8.061394e-003
3.039312e+003,8.106851e-003
3.041241e+003,8.086092e-003
3.043169e+003,8.092945e-003
3.045098e+003,8.101677e-003
3.047026e+003,8.120879e-003
3.048955e+003,8.183341e-003
3.050883e+003,8.195031e-003
3.052812e+003,8.170048e-003
3.054740e+003,8.200945e-003
3.056669e+003,8.233596e-003
3.058597e+003,8.231033e-003
3.060526e+003,8.217773e-003
3.062454e+003,8.289406e-003
3.064383e+003,8.385652e-003
3.066311e+003,8.446099e-003
3.068240e+003,8.483488e-003
3.070168e+003,8.451286e-003
3.072097e+003,8.420398e-003
3.074025e+003,8.406725e-003
3.075954e+003,8.422455e-003
3.077882e+003,8.396400e-003
3.079811e+003,8.467348e-003
3.081739e+003,8.544235e-003
3.083668e+003,8.521779e-003
3.085596e+003,8.541834e-003
3.087525e+003,8.514430e-003
3.089453e+003,8.516864e-003
3.091382e+003,8.562833e-003
3.093310e+003,8.533115e-003
3.095239e+003,8.565439e-003
3.097167e+003,8.600336e-003
3.099096e+003,8.656344e-003
3.101024e+003,8.686883e-003
3.102953e+003,8.662531e-003
3.104881e+003,8.662710e-003
3.106810e+003,8.710088e-003
3.108738e+003,8.694830e-003
3.110667e+003,8.679295e-003
3.112595e+003,8.733194e-003
3.114524e+003,8.756177e-003
3.116452e+003,8.777210e-003
3.118381e+003,8.784664e-003
3.120309e+003,8.770190e-003
3.122238e+003,8.734547e-003
3.124166e+003,8.819267e-003
3.126095e+003,8.838565e-003
3.128023e+003,8.922268e-003
3.129952e+003,9.011870e-003
3.131880e+003,9.045335e-003
3.133809e+003,9.049618e-003
3.135737e+003,9.055971e-003
3.137666e+003,9.060247e-003
3.139594e+003,9.057774e-003
3.141523e+003,9.182284e-003
3.143451e+003,9.256378e-003
3.145380e+003,9.243581e-003
3.147308e+003,9.243895e-003
3.149237e+003,9.209167e-003
3.151165e+003,9.182862e-003
3.153094e+003,9.215152e-003
3.155022e+003,9.211761e-003
3.156951e+003,9.297339e-003
3.158879e+003,9.349332e-003
3.160808e+003,9.281176e-003
3.162736e+003,9.333487e-003
3.164665e+003,9.388561e-003
3.166593e+003,9.416334e-003
3.168522e+003,9.492161e-003
3.170450e+003,9.569592e-003
3.172379e+003,9.576724e-003
3.174307e+003,9.642572e-003
3.176236e+003,9.626521e-003
3.178164e+003,9.633188e-003
3.180093e+003,9.674844e-003
3.182021e+003,9.688813e-003
3.183950e+003,9.698422e-003
3.185878e+003,9.775106e-003
3.187807e+003,9.802971e-003
3.189735e+003,9.785387e-003
3.191664e+003,9.816611e-003
3.193592e+003,9.831862e-003
3.195521e+003,9.895298e-003
3.197449e+003,9.888220e-003
3.199378e+003,9.867752e-003
3.201306e+003,9.964343e-003
3.203235e+003,1.002987e-002
3.205163e+003,1.007261e-002
3.207092e+003,1.008679e-002
3.209020e+003,1.011546e-002
3.210948e+003,1.020802e-002
3.212877e+003,1.015372e-002
3.214806e+003,1.012323e-002
3.216734e+003,1.020049e-002
3.218663e+003,1.025645e-002
3.220591e+003,1.030543e-002
3.222520e+003,1.034895e-002
3.224448e+003,1.037757e-002
3.226376e+003,1.037010e-002
3.228305e+003,1.032063e-002
3.230234e+003,1.044617e-002
3.232162e+003,1.060685e-002
3.234091e+003,1.058512e-002
3.236019e+003,1.059389e-002
3.237948e+003,1.061967e-002
3.239876e+003,1.064098e-002
3.241804e+003,1.062643e-002
3.243733e+003,1.065343e-002
3.245662e+003,1.069758e-002
3.247590e+003,1.079998e-002
3.249519e+003,1.082196e-002
3.251447e+003,1.085007e-002
3.253375e+003,1.092554e-002
3.255304e+003,1.095679e-002
3.257232e+003,1.101331e-002
3.259161e+003,1.094207e-002
3.261090e+003,1.089752e-002
3.263018e+003,1.092640e-002
3.264947e+003,1.103777e-002
3.266875e+003,1.109962e-002
3.268803e+003,1.105654e-002
3.270732e+003,1.111410e-002
3.272660e+003,1.119420e-002
3.274589e+003,1.121874e-002
3.276518e+003,1.119742e-002
3.278446e+003,1.112333e-002
3.280375e+003,1.113389e-002
3.282303e+003,1.121116e-002
3.284231e+003,1.124318e-002
3.286160e+003,1.126632e-002
3.288088e+003,1.117205e-002
3.290017e+003,1.109317e-002
3.291946e+003,1.115032e-002
3.293874e+003,1.121281e-002
3.295802e+003,1.126880e-002
3.297731e+003,1.129041e-002
3.299659e+003,1.122828e-002
3.301588e+003,1.119978e-002
3.303516e+003,1.117610e-002
3.305445e+003,1.116220e-002
3.307374e+003,1.115937e-002
3.309302e+003,1.111871e-002
3.311230e+003,1.113715e-002
3.313159e+003,1.126421e-002
3.315087e+003,1.131859e-002
3.317016e+003,1.127474e-002
3.318944e+003,1.127307e-002
3.320873e+003,1.125906e-002
3.322802e+003,1.128014e-002
3.324730e+003,1.130542e-002
3.326658e+003,1.132594e-002
3.328587e+003,1.137348e-002
3.330515e+003,1.135022e-002
3.332444e+003,1.131296e-002
3.334372e+003,1.129555e-002
3.336301e+003,1.128977e-002
3.338229e+003,1.127379e-002
3.340158e+003,1.135483e-002
3.342086e+003,1.133096e-002
3.344015e+003,1.120083e-002
3.345943e+003,1.122342e-002
3.347872e+003,1.133219e-002
3.349800e+003,1.124474e-002
3.351729e+003,1.115908e-002
3.353657e+003,1.113208e-002
3.355586e+003,1.112817e-002
3.357514e+003,1.107398e-002
3.359443e+003,1.105115e-002
3.361371e+003,1.104756e-002
3.363300e+003,1.102928e-002
3.365229e+003,1.096272e-002
3.367157e+003,1.091484e-002
3.369085e+003,1.094105e-002
3.371014e+003,1.094611e-002
3.372942e+003,1.093094e-002
3.374871e+003,1.091513e-002
3.376799e+003,1.089595e-002
3.378728e+003,1.080272e-002
3.380656e+003,1.079274e-002
3.382585e+003,1.078363e-002
3.384513e+003,1.076441e-002
3.386442e+003,1.078524e-002
3.388370e+003,1.076385e-002
3.390299e+003,1.071218e-002
3.392227e+003,1.070664e-002
3.394156e+003,1.072063e-002
3.396084e+003,1.058154e-002
3.398013e+003,1.050666e-002
3.399941e+003,1.047263e-002
3.401870e+003,1.044984e-002
3.403798e+003,1.044006e-002
3.405727e+003,1.040686e-002
3.407655e+003,1.037471e-002
3.409584e+003,1.034743e-002
3.411512e+003,1.032525e-002
3.413441e+003,1.031150e-002
3.415369e+003,1.031316e-002
3.417298e+003,1.019403e-002
3.419226e+003,1.010020e-002
3.421155e+003,1.009876e-002
3.423083e+003,1.010519e-002
3.425012e+003,1.004778e-002
3.426940e+003,1.000148e-002
3.428869e+003,9.936456e-003
3.430797e+003,9.880872e-003
3.432726e+003,9.872030e-003
3.434654e+003,9.864789e-003
3.436583e+003,9.788464e-003
3.438511e+003,9.677893e-003
3.440440e+003,9.687952e-003
3.442368e+003,9.644605e-003
3.444297e+003,9.566755e-003
3.446225e+003,9.538350e-003
3.448154e+003,9.533262e-003
3.450082e+003,9.502833e-003
3.452011e+003,9.444438e-003
3.453939e+003,9.378458e-003
3.455868e+003,9.362362e-003
3.457796e+003,9.293629e-003
3.459725e+003,9.181716e-003
3.461653e+003,9.151305e-003
3.463582e+003,9.191332e-003
3.465510e+003,9.126594e-003
3.467439e+003,8.976935e-003
3.469367e+003,8.961427e-003
3.471296e+003,8.936175e-003
3.473224e+003,8.898907e-003
3.475153e+003,8.891232e-003
3.477081e+003,8.818593e-003
3.479010e+003,8.735088e-003
3.480938e+003,8.688256e-003
3.482867e+003,8.690921e-003
3.484795e+003,8.624830e-003
3.486724e+003,8.599071e-003
3.488652e+003,8.592189e-003
3.490581e+003,8.531440e-003
3.492509e+003,8.441549e-003
3.494438e+003,8.431026e-003
3.496366e+003,8.420190e-003
3.498295e+003,8.361905e-003
3.500223e+003,8.305947e-003
3.502152e+003,8.298877e-003
3.504080e+003,8.334353e-003
3.506009e+003,8.289043e-003
3.507937e+003,8.258726e-003
3.509866e+003,8.173493e-003
3.511794e+003,8.017153e-003
3.513723e+003,7.992604e-003
3.515651e+003,7.996217e-003
3.517580e+003,7.958319e-003
3.519508e+003,7.880580e-003
3.521437e+003,7.885661e-003
3.523365e+003,7.856671e-003
3.525294e+003,7.806888e-003
3.527222e+003,7.827330e-003
3.529151e+003,7.708033e-003
3.531079e+003,7.619616e-003
3.533008e+003,7.636990e-003
3.534936e+003,7.550861e-003
3.536865e+003,7.569292e-003
3.538793e+003,7.524007e-003
3.540722e+003,7.520698e-003
3.542650e+003,7.547815e-003
3.544579e+003,7.468901e-003
3.546507e+003,7.381542e-003
3.548436e+003,7.314282e-003
3.550364e+003,7.297813e-003
3.552293e+003,7.245461e-003
3.554221e+003,7.140371e-003
3.556150e+003,7.180973e-003
3.558078e+003,7.065452e-003
3.560007e+003,6.940657e-003
3.561935e+003,6.942559e-003
3.563864e+003,6.962630e-003
3.565792e+003,6.832752e-003
3.567721e+003,6.741692e-003
3.569649e+003,6.767347e-003
3.571578e+003,6.755105e-003
3.573506e+003,6.649049e-003
3.575435e+003,6.607772e-003
3.577363e+003,6.610299e-003
3.579292e+003,6.509537e-003
3.581220e+003,6.408610e-003
3.583149e+003,6.367640e-003
3.585077e+003,6.215451e-003
3.587006e+003,6.030442e-003
3.588934e+003,5.871866e-003
3.590863e+003,5.617077e-003
3.592791e+003,5.463782e-003
3.594720e+003,5.440879e-003
3.596648e+003,5.358369e-003
3.598577e+003,5.292064e-003
3.600505e+003,5.222378e-003
3.602434e+003,5.225876e-003
3.604362e+003,5.268277e-003
3.606291e+003,5.481688e-003
3.608219e+003,5.663764e-003
3.610148e+003,5.942676e-003
3.612076e+003,6.062223e-003
3.614005e+003,5.886462e-003
3.615933e+003,5.532122e-003
3.617862e+003,5.215088e-003
3.619790e+003,5.058294e-003
3.621719e+003,4.962896e-003
3.623647e+003,4.779506e-003
3.625576e+003,4.611003e-003
3.627504e+003,4.770473e-003
3.629433e+003,4.824346e-003
3.631361e+003,4.947701e-003
3.633290e+003,5.151415e-003
3.635218e+003,5.278624e-003
3.637146e+003,5.451174e-003
3.639075e+003,5.522157e-003
3.641004e+003,5.536264e-003
3.642932e+003,5.688645e-003
3.644861e+003,5.837964e-003
3.646789e+003,5.870172e-003
3.648718e+003,5.853210e-003
3.650646e+003,5.832355e-003
3.652574e+003,5.905981e-003
3.654503e+003,5.987369e-003
3.656432e+003,6.058177e-003
3.658360e+003,6.071675e-003
3.660289e+003,6.050835e-003
3.662217e+003,5.981938e-003
3.664146e+003,5.887992e-003
3.666074e+003,5.843176e-003
3.668002e+003,5.819510e-003
3.669931e+003,5.807266e-003
3.671860e+003,5.769373e-003
3.673788e+003,5.674703e-003
3.675717e+003,5.568213e-003
3.677645e+003,5.583798e-003
3.679573e+003,5.666815e-003
3.681502e+003,5.488104e-003
3.683430e+003,5.267149e-003
3.685359e+003,5.325053e-003
3.687288e+003,5.241584e-003
3.689216e+003,4.922983e-003
3.691145e+003,4.740150e-003
3.693073e+003,4.751512e-003
3.695001e+003,4.574839e-003
3.696930e+003,4.367864e-003
3.698858e+003,4.214625e-003
3.700787e+003,4.149724e-003
3.702716e+003,4.118973e-003
3.704644e+003,4.090020e-003
3.706573e+003,4.204661e-003
3.708501e+003,4.410303e-003
3.710429e+003,4.704120e-003
3.712358e+003,5.093973e-003
3.714286e+003,5.398808e-003
3.716215e+003,5.146100e-003
3.718144e+003,4.773266e-003
3.720072e+003,4.473747e-003
3.722000e+003,4.142809e-003
3.723929e+003,3.858997e-003
3.725857e+003,3.670183e-003
3.727786e+003,3.636776e-003
3.729714e+003,3.780611e-003
3.731643e+003,3.934855e-003
3.733572e+003,4.020407e-003
3.735500e+003,4.274123e-003
3.737428e+003,4.626687e-003
3.739357e+003,4.847296e-003
3.741285e+003,5.086619e-003
3.743214e+003,5.413129e-003
3.745142e+003,5.518047e-003
3.747071e+003,5.601943e-003
3.749000e+003,5.682312e-003
3.750928e+003,5.761674e-003
3.752856e+003,5.735842e-003
3.754785e+003,5.899560e-003
3.756713e+003,5.885590e-003
3.758642e+003,5.820489e-003
3.760570e+003,5.873155e-003
3.762499e+003,5.919191e-003
3.764427e+003,5.914294e-003
3.766356e+003,5.922217e-003
3.768284e+003,5.976034e-003
3.770213e+003,5.912524e-003
3.772141e+003,5.901354e-003
3.774070e+003,5.974235e-003
3.775998e+003,6.053014e-003
3.777927e+003,6.022897e-003
3.779855e+003,5.945907e-003
3.781784e+003,5.949659e-003
3.783712e+003,5.945619e-003
3.785641e+003,5.998794e-003
3.787569e+003,5.972553e-003
3.789498e+003,6.033759e-003
3.791426e+003,6.034610e-003
3.793355e+003,5.993932e-003
3.795283e+003,5.995529e-003
3.797212e+003,6.025731e-003
3.799140e+003,6.078569e-003
3.801069e+003,6.033383e-003
3.802997e+003,5.988866e-003
3.804926e+003,6.089316e-003
3.806854e+003,6.106436e-003
3.808783e+003,6.012597e-003
3.810711e+003,6.004243e-003
3.812640e+003,6.005162e-003
3.814568e+003,6.058750e-003
3.816497e+003,6.093571e-003
3.818425e+003,6.069418e-003
3.820354e+003,6.100742e-003
3.822282e+003,6.118133e-003
3.824211e+003,6.089850e-003
3.826139e+003,6.028967e-003
3.828068e+003,5.998484e-003
3.829996e+003,6.060453e-003
3.831925e+003,6.046330e-003
3.833853e+003,6.032178e-003
3.835782e+003,6.078608e-003
3.837710e+003,6.138528e-003
3.839639e+003,6.050298e-003
3.841567e+003,5.996681e-003
3.843496e+003,6.060235e-003
3.845424e+003,6.135125e-003
3.847353e+003,6.078777e-003
3.849281e+003,6.056529e-003
3.851210e+003,6.153533e-003
3.853138e+003,6.204592e-003
3.855067e+003,6.169299e-003
3.856995e+003,6.114230e-003
3.858924e+003,6.137004e-003
3.860852e+003,6.097594e-003
3.862781e+003,6.082261e-003
3.864709e+003,6.123689e-003
3.866638e+003,6.117106e-003
3.868566e+003,6.151810e-003
3.870495e+003,6.151904e-003
3.872423e+003,6.204203e-003
3.874352e+003,6.178220e-003
3.876280e+003,6.160933e-003
3.878209e+003,6.180799e-003
3.880137e+003,6.166883e-003
3.882066e+003,6.170069e-003
3.883994e+003,6.180963e-003
3.885923e+003,6.159069e-003
3.887851e+003,6.148668e-003
3.889780e+003,6.166504e-003
3.891708e+003,6.170232e-003
3.893637e+003,6.192931e-003
3.895565e+003,6.122045e-003
3.897494e+003,6.060118e-003
3.899422e+003,6.146425e-003
3.901351e+003,6.141112e-003
3.903279e+003,6.130679e-003
3.905208e+003,6.185236e-003
3.907136e+003,6.217383e-003
3.909065e+003,6.169472e-003
3.910993e+003,6.124944e-003
3.912922e+003,6.208970e-003
3.914850e+003,6.264979e-003
3.916779e+003,6.188674e-003
3.918707e+003,6.184081e-003
3.920636e+003,6.214171e-003
3.922564e+003,6.240109e-003
3.924493e+003,6.219234e-003
3.926421e+003,6.224304e-003
3.928350e+003,6.194480e-003
3.930278e+003,6.170099e-003
3.932207e+003,6.146100e-003
3.934135e+003,6.207727e-003
3.936064e+003,6.217517e-003
3.937992e+003,6.170074e-003
3.939921e+003,6.185101e-003
3.941849e+003,6.224116e-003
3.943778e+003,6.235728e-003
3.945706e+003,6.285788e-003
3.947635e+003,6.250467e-003
3.949563e+003,6.219218e-003
3.951492e+003,6.181871e-003
3.953420e+003,6.194047e-003
3.955349e+003,6.211480e-003
3.957277e+003,6.228733e-003
3.959206e+003,6.252937e-003
3.961134e+003,6.269128e-003
3.963063e+003,6.339587e-003
3.964991e+003,6.284973e-003
3.966920e+003,6.175290e-003
3.968848e+003,6.219434e-003
3.970777e+003,6.263824e-003
3.972705e+003,6.239776e-003
3.974634e+003,6.257312e-003
3.976562e+003,6.227514e-003
3.978491e+003,6.226017e-003
3.980419e+003,6.196003e-003
3.982348e+003,6.249020e-003
3.984276e+003,6.365104e-003
3.986205e+003,6.304180e-003
3.988133e+003,6.208489e-003
3.990062e+003,6.159292e-003
3.991990e+003,6.242622e-003
3.993919e+003,6.303121e-003
3.995847e+003,6.299987e-003
3.997776e+003,6.320077e-003
3.999704e+003,6.320597e-003
4.001633e+003,0.000000e+000
