3.991989e+002,4.924393e-002
4.011274e+002,4.681845e-002
4.030559e+002,4.681845e-002
4.049844e+002,4.775994e-002
4.069129e+002,4.626710e-002
4.088414e+002,4.609511e-002
4.107699e+002,4.701081e-002
4.126984e+002,4.893029e-002
4.146269e+002,4.918956e-002
4.165554e+002,4.956550e-002
4.184839e+002,4.871599e-002
4.204124e+002,4.857427e-002
4.223409e+002,4.853919e-002
4.242694e+002,4.860881e-002
4.261979e+002,4.997007e-002
4.281264e+002,5.186521e-002
4.300549e+002,5.235672e-002
4.319834e+002,5.186515e-002
4.339119e+002,5.174678e-002
4.358404e+002,5.172158e-002
4.377689e+002,5.172743e-002
4.396974e+002,5.170247e-002
4.416259e+002,5.152460e-002
4.435544e+002,5.142209e-002
4.454829e+002,5.117678e-002
4.474114e+002,5.184983e-002
4.493399e+002,5.163982e-002
4.512684e+002,5.151824e-002
4.531969e+002,5.109834e-002
4.551254e+002,5.080536e-002
4.570539e+002,5.147174e-002
4.589824e+002,5.113117e-002
4.609109e+002,5.081812e-002
4.628394e+002,5.126207e-002
4.647679e+002,5.063964e-002
4.666964e+002,4.976059e-002
4.686249e+002,4.929711e-002
4.705533e+002,4.949690e-002
4.724819e+002,4.956399e-002
4.744103e+002,4.960978e-002
4.763389e+002,4.917463e-002
4.782673e+002,4.928479e-002
4.801959e+002,4.954001e-002
4.821243e+002,4.965606e-002
4.840529e+002,4.965512e-002
4.859813e+002,4.955704e-002
4.879099e+002,4.940552e-002
4.898383e+002,4.901986e-002
4.917668e+002,4.809278e-002
4.936953e+002,4.810503e-002
4.956238e+002,4.874391e-002
4.975523e+002,4.872642e-002
4.994808e+002,4.875547e-002
5.014093e+002,4.882683e-002
5.033378e+002,4.866935e-002
5.052663e+002,4.899977e-002
5.071948e+002,4.876409e-002
5.091233e+002,4.845239e-002
5.110518e+002,4.874545e-002
5.129803e+002,4.949519e-002
5.149088e+002,4.989758e-002
5.168373e+002,5.006995e-002
5.187658e+002,4.980129e-002
5.206943e+002,5.050886e-002
5.226228e+002,5.098260e-002
5.245513e+002,5.091654e-002
5.264798e+002,5.034761e-002
5.284083e+002,5.044906e-002
5.303368e+002,5.035579e-002
5.322653e+002,5.005050e-002
5.341938e+002,5.016677e-002
5.361223e+002,5.003583e-002
5.380508e+002,4.790044e-002
5.399792e+002,4.774938e-002
5.419078e+002,4.907575e-002
5.438363e+002,4.939865e-002
5.457648e+002,4.954740e-002
5.476932e+002,4.981801e-002
5.496218e+002,5.000897e-002
5.515503e+002,5.025480e-002
5.534788e+002,5.016604e-002
5.554072e+002,5.056164e-002
5.573358e+002,5.105557e-002
5.592643e+002,5.143380e-002
5.611927e+002,5.131988e-002
5.631212e+002,5.083121e-002
5.650497e+002,5.019164e-002
5.669783e+002,4.991635e-002
5.689067e+002,4.956551e-002
5.708352e+002,4.918658e-002
5.727637e+002,4.906321e-002
5.746923e+002,4.911559e-002
5.766207e+002,4.884956e-002
5.785492e+002,4.872162e-002
5.804777e+002,4.860370e-002
5.824063e+002,4.876219e-002
5.843347e+002,4.874429e-002
5.862632e+002,4.881898e-002
5.881917e+002,4.876571e-002
5.901202e+002,4.874388e-002
5.920487e+002,4.864117e-002
5.939772e+002,4.870366e-002
5.959057e+002,4.872021e-002
5.978342e+002,4.864165e-002
5.997627e+002,4.807954e-002
6.016912e+002,4.797122e-002
6.036197e+002,4.786757e-002
6.055482e+002,4.767147e-002
6.074767e+002,4.753923e-002
6.094052e+002,4.743392e-002
6.113337e+002,4.685808e-002
6.132622e+002,4.651007e-002
6.151907e+002,4.624480e-002
6.171192e+002,4.626942e-002
6.190477e+002,4.573321e-002
6.209762e+002,4.510117e-002
6.229047e+002,4.437547e-002
6.248332e+002,4.381802e-002
6.267617e+002,4.311744e-002
6.286902e+002,4.271935e-002
6.306187e+002,4.230318e-002
6.325472e+002,4.192182e-002
6.344756e+002,4.167282e-002
6.364042e+002,4.153680e-002
6.383326e+002,4.116563e-002
6.402612e+002,4.112009e-002
6.421896e+002,4.088884e-002
6.441182e+002,4.054347e-002
6.460466e+002,4.023943e-002
6.479752e+002,4.015114e-002
6.499036e+002,3.988584e-002
6.518322e+002,3.969813e-002
6.537606e+002,3.959907e-002
6.556891e+002,3.979216e-002
6.576177e+002,3.987290e-002
6.595461e+002,3.999532e-002
6.614746e+002,4.013028e-002
6.634031e+002,4.032914e-002
6.653317e+002,4.036451e-002
6.672601e+002,3.998405e-002
6.691886e+002,3.957903e-002
6.711171e+002,3.924539e-002
6.730457e+002,3.858731e-002
6.749741e+002,3.763229e-002
6.769026e+002,3.673135e-002
6.788311e+002,3.595885e-002
6.807596e+002,3.498748e-002
6.826881e+002,3.454941e-002
6.846166e+002,3.380185e-002
6.865451e+002,3.338920e-002
6.884736e+002,3.324330e-002
6.904021e+002,3.308558e-002
6.923306e+002,3.287638e-002
6.942591e+002,3.284523e-002
6.961876e+002,3.270332e-002
6.981161e+002,3.255956e-002
7.000446e+002,3.233201e-002
7.019731e+002,3.231189e-002
7.039016e+002,3.191194e-002
7.058301e+002,3.162897e-002
7.077585e+002,3.137986e-002
7.096871e+002,3.118003e-002
7.116156e+002,3.096319e-002
7.135441e+002,3.083296e-002
7.154725e+002,3.044991e-002
7.174011e+002,3.029257e-002
7.193296e+002,3.032427e-002
7.212581e+002,3.027839e-002
7.231865e+002,2.978791e-002
7.251151e+002,2.947625e-002
7.270436e+002,2.915747e-002
7.289720e+002,2.903634e-002
7.309005e+002,2.876712e-002
7.328290e+002,2.824862e-002
7.347576e+002,2.777002e-002
7.366860e+002,2.778934e-002
7.386145e+002,2.755574e-002
7.405430e+002,2.733403e-002
7.424716e+002,2.712530e-002
7.444000e+002,2.692343e-002
7.463285e+002,2.659888e-002
7.482570e+002,2.640225e-002
7.501855e+002,2.619925e-002
7.521140e+002,2.605976e-002
7.540425e+002,2.577900e-002
7.559710e+002,2.559195e-002
7.578995e+002,2.536388e-002
7.598280e+002,2.528082e-002
7.617565e+002,2.514995e-002
7.636850e+002,2.497876e-002
7.656135e+002,2.476434e-002
7.675420e+002,2.468195e-002
7.694705e+002,2.451847e-002
7.713990e+002,2.447231e-002
7.733275e+002,2.441605e-002
7.752560e+002,2.441272e-002
7.771844e+002,2.437395e-002
7.791130e+002,2.438128e-002
7.810415e+002,2.425082e-002
7.829700e+002,2.407437e-002
7.848984e+002,2.394670e-002
7.868270e+002,2.395633e-002
7.887555e+002,2.384580e-002
7.906840e+002,2.364909e-002
7.926124e+002,2.346995e-002
7.945410e+002,2.337371e-002
7.964695e+002,2.340788e-002
7.983979e+002,2.344526e-002
8.003264e+002,2.323551e-002
8.022549e+002,2.313804e-002
8.041835e+002,2.304044e-002
8.061119e+002,2.308911e-002
8.080404e+002,2.304254e-002
8.099689e+002,2.291450e-002
8.118975e+002,2.285079e-002
8.138259e+002,2.281147e-002
8.157545e+002,2.272240e-002
8.176830e+002,2.270773e-002
8.196115e+002,2.269569e-002
8.215399e+002,2.265132e-002
8.234684e+002,2.253296e-002
8.253970e+002,2.255659e-002
8.273254e+002,2.249650e-002
8.292539e+002,2.257554e-002
8.311824e+002,2.261875e-002
8.331110e+002,2.262287e-002
8.350394e+002,2.262615e-002
8.369679e+002,2.262364e-002
8.388964e+002,2.239276e-002
8.408250e+002,2.220577e-002
8.427534e+002,2.213565e-002
8.446819e+002,2.203274e-002
8.466104e+002,2.190796e-002
8.485389e+002,2.189643e-002
8.504674e+002,2.172501e-002
8.523959e+002,2.168676e-002
8.543244e+002,2.169551e-002
8.562529e+002,2.176542e-002
8.581814e+002,2.173794e-002
8.601099e+002,2.170645e-002
8.620384e+002,2.172665e-002
8.639669e+002,2.184245e-002
8.658954e+002,2.187311e-002
8.678239e+002,2.197467e-002
8.697524e+002,2.202894e-002
8.716809e+002,2.218286e-002
8.736094e+002,2.226293e-002
8.755378e+002,2.240850e-002
8.774664e+002,2.249995e-002
8.793949e+002,2.275662e-002
8.813234e+002,2.299404e-002
8.832518e+002,2.331190e-002
8.851804e+002,2.381168e-002
8.871089e+002,2.429220e-002
8.890374e+002,2.494303e-002
8.909658e+002,2.567727e-002
8.928943e+002,2.622711e-002
8.948229e+002,2.667927e-002
8.967513e+002,2.689830e-002
8.986798e+002,2.683327e-002
9.006083e+002,2.654981e-002
9.025369e+002,2.607702e-002
9.044653e+002,2.550136e-002
9.063938e+002,2.498616e-002
9.083223e+002,2.450722e-002
9.102509e+002,2.429959e-002
9.121793e+002,2.424819e-002
9.141078e+002,2.416218e-002
9.160364e+002,2.406394e-002
9.179648e+002,2.404604e-002
9.198933e+002,2.408439e-002
9.218218e+002,2.424735e-002
9.237504e+002,2.440893e-002
9.256788e+002,2.466199e-002
9.276073e+002,2.487264e-002
9.295358e+002,2.501831e-002
9.314644e+002,2.523528e-002
9.333928e+002,2.554550e-002
9.353213e+002,2.576195e-002
9.372498e+002,2.611017e-002
9.391783e+002,2.665619e-002
9.411068e+002,2.722390e-002
9.430353e+002,2.778192e-002
9.449637e+002,2.853439e-002
9.468923e+002,2.923485e-002
9.488208e+002,2.997798e-002
9.507493e+002,3.083535e-002
9.526777e+002,3.177935e-002
9.546063e+002,3.262578e-002
9.565348e+002,3.348031e-002
9.584633e+002,3.439257e-002
9.603917e+002,3.537821e-002
9.623203e+002,3.642731e-002
9.642488e+002,3.736811e-002
9.661772e+002,3.817717e-002
9.681057e+002,3.902578e-002
9.700343e+002,3.991011e-002
9.719628e+002,4.086151e-002
9.738912e+002,4.195815e-002
9.758197e+002,4.322641e-002
9.777483e+002,4.457247e-002
9.796768e+002,4.611928e-002
9.816052e+002,4.792229e-002
9.835337e+002,4.980681e-002
9.854623e+002,5.152079e-002
9.873907e+002,5.302539e-002
9.893192e+002,5.416032e-002
9.912477e+002,5.488989e-002
9.931763e+002,5.523010e-002
9.951047e+002,5.550479e-002
9.970332e+002,5.580780e-002
9.989617e+002,5.639940e-002
1.000890e+003,5.726716e-002
1.002819e+003,5.828453e-002
1.004747e+003,5.922196e-002
1.006676e+003,6.010273e-002
1.008604e+003,6.093748e-002
1.010533e+003,6.182113e-002
1.012461e+003,6.284785e-002
1.014390e+003,6.402359e-002
1.016318e+003,6.536683e-002
1.018247e+003,6.680625e-002
1.020175e+003,6.818090e-002
1.022104e+003,6.958979e-002
1.024032e+003,7.109203e-002
1.025961e+003,7.262338e-002
1.027889e+003,7.415248e-002
1.029818e+003,7.560965e-002
1.031746e+003,7.683976e-002
1.033675e+003,7.764231e-002
1.035603e+003,7.783087e-002
1.037532e+003,7.734661e-002
1.039460e+003,7.638390e-002
1.041389e+003,7.539766e-002
1.043317e+003,7.461151e-002
1.045246e+003,7.400697e-002
1.047174e+003,7.358108e-002
1.049103e+003,7.321960e-002
1.051031e+003,7.289100e-002
1.052960e+003,7.237487e-002
1.054888e+003,7.159257e-002
1.056817e+003,7.044735e-002
1.058745e+003,6.913693e-002
1.060674e+003,6.775422e-002
1.062602e+003,6.625481e-002
1.064531e+003,6.455818e-002
1.066459e+003,6.280570e-002
1.068388e+003,6.109225e-002
1.070316e+003,5.954870e-002
1.072245e+003,5.825020e-002
1.074173e+003,5.688158e-002
1.076102e+003,5.549033e-002
1.078030e+003,5.417856e-002
1.079959e+003,5.282627e-002
1.081887e+003,5.154669e-002
1.083816e+003,5.059179e-002
1.085744e+003,4.990009e-002
1.087673e+003,4.940206e-002
1.089601e+003,4.898155e-002
1.091530e+003,4.870721e-002
1.093458e+003,4.843245e-002
1.095387e+003,4.827264e-002
1.097315e+003,4.822476e-002
1.099244e+003,4.826512e-002
1.101172e+003,4.838448e-002
1.103101e+003,4.839996e-002
1.105029e+003,4.813861e-002
1.106958e+003,4.766937e-002
1.108886e+003,4.687898e-002
1.110815e+003,4.581022e-002
1.112743e+003,4.446608e-002
1.114672e+003,4.290070e-002
1.116600e+003,4.143440e-002
1.118529e+003,4.019236e-002
1.120457e+003,3.909719e-002
1.122386e+003,3.807205e-002
1.124314e+003,3.694776e-002
1.126243e+003,3.572771e-002
1.128171e+003,3.444788e-002
1.130100e+003,3.313340e-002
1.132028e+003,3.184681e-002
1.133957e+003,3.075507e-002
1.135885e+003,2.980359e-002
1.137814e+003,2.913325e-002
1.139742e+003,2.873234e-002
1.141671e+003,2.867963e-002
1.143599e+003,2.891175e-002
1.145528e+003,2.927912e-002
1.147456e+003,2.975501e-002
1.149385e+003,3.031179e-002
1.151313e+003,3.089116e-002
1.153242e+003,3.157969e-002
1.155170e+003,3.220004e-002
1.157099e+003,3.277254e-002
1.159027e+003,3.308151e-002
1.160956e+003,3.309424e-002
1.162884e+003,3.275714e-002
1.164813e+003,3.206611e-002
1.166741e+003,3.094549e-002
1.168670e+003,2.954500e-002
1.170598e+003,2.800208e-002
1.172526e+003,2.643359e-002
1.174455e+003,2.493282e-002
1.176384e+003,2.358374e-002
1.178312e+003,2.249580e-002
1.180240e+003,2.158525e-002
1.182169e+003,2.077884e-002
1.184098e+003,2.015730e-002
1.186026e+003,1.972484e-002
1.187954e+003,1.943777e-002
1.189883e+003,1.933709e-002
1.191812e+003,1.941455e-002
1.193740e+003,1.959452e-002
1.195668e+003,1.988527e-002
1.197597e+003,2.020242e-002
1.199526e+003,2.051845e-002
1.201454e+003,2.077697e-002
1.203382e+003,2.087416e-002
1.205311e+003,2.081465e-002
1.207240e+003,2.067754e-002
1.209168e+003,2.057785e-002
1.211096e+003,2.055600e-002
1.213025e+003,2.064480e-002
1.214953e+003,2.089603e-002
1.216882e+003,2.116511e-002
1.218810e+003,2.151056e-002
1.220739e+003,2.189643e-002
1.222667e+003,2.232931e-002
1.224596e+003,2.283166e-002
1.226524e+003,2.335018e-002
1.228453e+003,2.386033e-002
1.230381e+003,2.437483e-002
1.232310e+003,2.476936e-002
1.234238e+003,2.507363e-002
1.236167e+003,2.530341e-002
1.238095e+003,2.549746e-002
1.240024e+003,2.560598e-002
1.241952e+003,2.570047e-002
1.243881e+003,2.573207e-002
1.245809e+003,2.568061e-002
1.247738e+003,2.550551e-002
1.249666e+003,2.530646e-002
1.251595e+003,2.506061e-002
1.253523e+003,2.480854e-002
1.255452e+003,2.451280e-002
1.257380e+003,2.418611e-002
1.259309e+003,2.385207e-002
1.261237e+003,2.343414e-002
1.263166e+003,2.298803e-002
1.265094e+003,2.255516e-002
1.267023e+003,2.212129e-002
1.268951e+003,2.167081e-002
1.270880e+003,2.120139e-002
1.272808e+003,2.077811e-002
1.274737e+003,2.037838e-002
1.276665e+003,2.003830e-002
1.278594e+003,1.976295e-002
1.280522e+003,1.956589e-002
1.282451e+003,1.937637e-002
1.284379e+003,1.918216e-002
1.286308e+003,1.896605e-002
1.288236e+003,1.878900e-002
1.290165e+003,1.863123e-002
1.292093e+003,1.863590e-002
1.294022e+003,1.873860e-002
1.295950e+003,1.890368e-002
1.297879e+003,1.909898e-002
1.299807e+003,1.936057e-002
1.301736e+003,1.967027e-002
1.303664e+003,2.001339e-002
1.305593e+003,2.040609e-002
1.307521e+003,2.080126e-002
1.309450e+003,2.117499e-002
1.311378e+003,2.155091e-002
1.313307e+003,2.190580e-002
1.315235e+003,2.216714e-002
1.317164e+003,2.229164e-002
1.319092e+003,2.226736e-002
1.321021e+003,2.209256e-002
1.322949e+003,2.185186e-002
1.324878e+003,2.166597e-002
1.326806e+003,2.145127e-002
1.328735e+003,2.129743e-002
1.330663e+003,2.128431e-002
1.332592e+003,2.123104e-002
1.334520e+003,2.109867e-002
1.336449e+003,2.091797e-002
1.338377e+003,2.069259e-002
1.340306e+003,2.043665e-002
1.342234e+003,2.026813e-002
1.344163e+003,2.014921e-002
1.346091e+003,2.010302e-002
1.348020e+003,2.013272e-002
1.349948e+003,2.024713e-002
1.351877e+003,2.034737e-002
1.353805e+003,2.052380e-002
1.355734e+003,2.078618e-002
1.357662e+003,2.103039e-002
1.359591e+003,2.127610e-002
1.361519e+003,2.154698e-002
1.363448e+003,2.176615e-002
1.365376e+003,2.198153e-002
1.367305e+003,2.211909e-002
1.369233e+003,2.215573e-002
1.371162e+003,2.211156e-002
1.373090e+003,2.194138e-002
1.375019e+003,2.167127e-002
1.376947e+003,2.137065e-002
1.378876e+003,2.097503e-002
1.380804e+003,2.049295e-002
1.382733e+003,1.996322e-002
1.384661e+003,1.947499e-002
1.386590e+003,1.904792e-002
1.388518e+003,1.871832e-002
1.390447e+003,1.844450e-002
1.392375e+003,1.826698e-002
1.394304e+003,1.814380e-002
1.396232e+003,1.803958e-002
1.398161e+003,1.798466e-002
1.400089e+003,1.799430e-002
1.402018e+003,1.801602e-002
1.403946e+003,1.807947e-002
1.405875e+003,1.816221e-002
1.407803e+003,1.826884e-002
1.409732e+003,1.840837e-002
1.411660e+003,1.856109e-002
1.413589e+003,1.873607e-002
1.415517e+003,1.895227e-002
1.417446e+003,1.912918e-002
1.419374e+003,1.932188e-002
1.421303e+003,1.942914e-002
1.423231e+003,1.945891e-002
1.425160e+003,1.943222e-002
1.427088e+003,1.935198e-002
1.429017e+003,1.916927e-002
1.430945e+003,1.898315e-002
1.432874e+003,1.879523e-002
1.434802e+003,1.860487e-002
1.436731e+003,1.836489e-002
1.438659e+003,1.812487e-002
1.440588e+003,1.794851e-002
1.442516e+003,1.782552e-002
1.444445e+003,1.773325e-002
1.446373e+003,1.772362e-002
1.448302e+003,1.774692e-002
1.450230e+003,1.771027e-002
1.452159e+003,1.766554e-002
1.454087e+003,1.762665e-002
1.456016e+003,1.752828e-002
1.457944e+003,1.740238e-002
1.459873e+003,1.724807e-002
1.461801e+003,1.711956e-002
1.463730e+003,1.697262e-002
1.465658e+003,1.663634e-002
1.467587e+003,1.618436e-002
1.469515e+003,1.566257e-002
1.471444e+003,1.510157e-002
1.473372e+003,1.455997e-002
1.475301e+003,1.412552e-002
1.477229e+003,1.379550e-002
1.479158e+003,1.354702e-002
1.481086e+003,1.337596e-002
1.483015e+003,1.331606e-002
1.484943e+003,1.329539e-002
1.486872e+003,1.331094e-002
1.488800e+003,1.338833e-002
1.490729e+003,1.348986e-002
1.492657e+003,1.361125e-002
1.494586e+003,1.379690e-002
1.496514e+003,1.400792e-002
1.498443e+003,1.418741e-002
1.500371e+003,1.435553e-002
1.502300e+003,1.448991e-002
1.504228e+003,1.460273e-002
1.506157e+003,1.471017e-002
1.508085e+003,1.479426e-002
1.510014e+003,1.486259e-002
1.511942e+003,1.492191e-002
1.513871e+003,1.497541e-002
1.515799e+003,1.491101e-002
1.517728e+003,1.471305e-002
1.519656e+003,1.449943e-002
1.521585e+003,1.423110e-002
1.523513e+003,1.401880e-002
1.525442e+003,1.389655e-002
1.527370e+003,1.384606e-002
1.529299e+003,1.385016e-002
1.531227e+003,1.382054e-002
1.533156e+003,1.383699e-002
1.535084e+003,1.386292e-002
1.537013e+003,1.388560e-002
1.538941e+003,1.392683e-002
1.540870e+003,1.394014e-002
1.542798e+003,1.395937e-002
1.544727e+003,1.397736e-002
1.546655e+003,1.396997e-002
1.548584e+003,1.396351e-002
1.550512e+003,1.398482e-002
1.552441e+003,1.397641e-002
1.554369e+003,1.398448e-002
1.556298e+003,1.397377e-002
1.558226e+003,1.405282e-002
1.560155e+003,1.408352e-002
1.562083e+003,1.411025e-002
1.564012e+003,1.415140e-002
1.565940e+003,1.420614e-002
1.567869e+003,1.431886e-002
1.569797e+003,1.447689e-002
1.571726e+003,1.463567e-002
1.573654e+003,1.481017e-002
1.575583e+003,1.503002e-002
1.577511e+003,1.527046e-002
1.579440e+003,1.552708e-002
1.581368e+003,1.582969e-002
1.583297e+003,1.611882e-002
1.585225e+003,1.647239e-002
1.587154e+003,1.681092e-002
1.589082e+003,1.713114e-002
1.591010e+003,1.736462e-002
1.592939e+003,1.758393e-002
1.594868e+003,1.780864e-002
1.596796e+003,1.794585e-002
1.598724e+003,1.801917e-002
1.600653e+003,1.817558e-002
1.602582e+003,1.829365e-002
1.604510e+003,1.834602e-002
1.606438e+003,1.836302e-002
1.608367e+003,1.833015e-002
1.610296e+003,1.827064e-002
1.612224e+003,1.831892e-002
1.614152e+003,1.844982e-002
1.616081e+003,1.861708e-002
1.618010e+003,1.879485e-002
1.619938e+003,1.892694e-002
1.621866e+003,1.904982e-002
1.623795e+003,1.919549e-002
1.625724e+003,1.930982e-002
1.627652e+003,1.933300e-002
1.629580e+003,1.928343e-002
1.631509e+003,1.921416e-002
1.633438e+003,1.910033e-002
1.635366e+003,1.897979e-002
1.637294e+003,1.887485e-002
1.639223e+003,1.876641e-002
1.641151e+003,1.866094e-002
1.643080e+003,1.856742e-002
1.645008e+003,1.852046e-002
1.646937e+003,1.842573e-002
1.648865e+003,1.832797e-002
1.650794e+003,1.826950e-002
1.652722e+003,1.814349e-002
1.654651e+003,1.792023e-002
1.656579e+003,1.767117e-002
1.658508e+003,1.743480e-002
1.660436e+003,1.717578e-002
1.662365e+003,1.687568e-002
1.664293e+003,1.651717e-002
1.666222e+003,1.622048e-002
1.668150e+003,1.595431e-002
1.670079e+003,1.569383e-002
1.672007e+003,1.543890e-002
1.673936e+003,1.518117e-002
1.675864e+003,1.493882e-002
1.677793e+003,1.472426e-002
1.679721e+003,1.455329e-002
1.681650e+003,1.437612e-002
1.683578e+003,1.420840e-002
1.685507e+003,1.409745e-002
1.687435e+003,1.399406e-002
1.689364e+003,1.385728e-002
1.691292e+003,1.370439e-002
1.693221e+003,1.364014e-002
1.695149e+003,1.364767e-002
1.697078e+003,1.357443e-002
1.699006e+003,1.348067e-002
1.700935e+003,1.339410e-002
1.702863e+003,1.336906e-002
1.704792e+003,1.338426e-002
1.706720e+003,1.343480e-002
1.708649e+003,1.355720e-002
1.710577e+003,1.371646e-002
1.712506e+003,1.385899e-002
1.714434e+003,1.395618e-002
1.716363e+003,1.409002e-002
1.718291e+003,1.423418e-002
1.720220e+003,1.442061e-002
1.722148e+003,1.455490e-002
1.724077e+003,1.467405e-002
1.726005e+003,1.483300e-002
1.727934e+003,1.485350e-002
1.729862e+003,1.488604e-002
1.731791e+003,1.493573e-002
1.733719e+003,1.479392e-002
1.735648e+003,1.450532e-002
1.737576e+003,1.423534e-002
1.739505e+003,1.392748e-002
1.741433e+003,1.354274e-002
1.743362e+003,1.319284e-002
1.745290e+003,1.281425e-002
1.747219e+003,1.241264e-002
1.749147e+003,1.207159e-002
1.751076e+003,1.178449e-002
1.753004e+003,1.146390e-002
1.754933e+003,1.121450e-002
1.756861e+003,1.102230e-002
1.758790e+003,1.077013e-002
1.760718e+003,1.057599e-002
1.762647e+003,1.047615e-002
1.764575e+003,1.033104e-002
1.766504e+003,1.022291e-002
1.768432e+003,1.009622e-002
1.770361e+003,1.003342e-002
1.772289e+003,9.993039e-003
1.774218e+003,9.951609e-003
1.776146e+003,9.925573e-003
1.778075e+003,9.875946e-003
1.780003e+003,9.885166e-003
1.781932e+003,9.843746e-003
1.783860e+003,9.806871e-003
1.785789e+003,9.865100e-003
1.787717e+003,9.890826e-003
1.789646e+003,9.856389e-003
1.791574e+003,9.809617e-003
1.793503e+003,9.785486e-003
1.795431e+003,9.871099e-003
1.797360e+003,9.921810e-003
1.799288e+003,9.913233e-003
1.801217e+003,9.861575e-003
1.803145e+003,9.787045e-003
1.805074e+003,9.768779e-003
1.807002e+003,9.841882e-003
1.808931e+003,9.861846e-003
1.810859e+003,9.884759e-003
1.812788e+003,9.864998e-003
1.814716e+003,9.879980e-003
1.816645e+003,9.912115e-003
1.818573e+003,1.004265e-002
1.820502e+003,1.002966e-002
1.822430e+003,9.946388e-003
1.824359e+003,9.940862e-003
1.826287e+003,9.949880e-003
1.828216e+003,1.000508e-002
1.830144e+003,1.006408e-002
1.832073e+003,1.011267e-002
1.834001e+003,1.000094e-002
1.835930e+003,9.947982e-003
1.837858e+003,9.987852e-003
1.839787e+003,1.005485e-002
1.841715e+003,1.007038e-002
1.843644e+003,1.013048e-002
1.845572e+003,1.014191e-002
1.847501e+003,1.011725e-002
1.849429e+003,1.009470e-002
1.851358e+003,1.015907e-002
1.853286e+003,1.019547e-002
1.855215e+003,1.013906e-002
1.857143e+003,1.018478e-002
1.859072e+003,1.022461e-002
1.861000e+003,1.021412e-002
1.862929e+003,1.025056e-002
1.864857e+003,1.032920e-002
1.866786e+003,1.036728e-002
1.868714e+003,1.042222e-002
1.870643e+003,1.042606e-002
1.872571e+003,1.037563e-002
1.874500e+003,1.025246e-002
1.876428e+003,1.025398e-002
1.878357e+003,1.038971e-002
1.880285e+003,1.048729e-002
1.882214e+003,1.053342e-002
1.884142e+003,1.048464e-002
1.886071e+003,1.050117e-002
1.887999e+003,1.064043e-002
1.889928e+003,1.057419e-002
1.891856e+003,1.045911e-002
1.893785e+003,1.045409e-002
1.895713e+003,1.034702e-002
1.897642e+003,1.027889e-002
1.899570e+003,1.040389e-002
1.901499e+003,1.031841e-002
1.903427e+003,1.037902e-002
1.905356e+003,1.048562e-002
1.907284e+003,1.055413e-002
1.909213e+003,1.052493e-002
1.911141e+003,1.037865e-002
1.913070e+003,1.043855e-002
1.914998e+003,1.044228e-002
1.916927e+003,1.034685e-002
1.918855e+003,1.031407e-002
1.920784e+003,1.049200e-002
1.922712e+003,1.057718e-002
1.924641e+003,1.059368e-002
1.926569e+003,1.060067e-002
1.928498e+003,1.054303e-002
1.930426e+003,1.049126e-002
1.932355e+003,1.063378e-002
1.934283e+003,1.072126e-002
1.936212e+003,1.085546e-002
1.938140e+003,1.087360e-002
1.940069e+003,1.083508e-002
1.941997e+003,1.100344e-002
1.943926e+003,1.094462e-002
1.945854e+003,1.107009e-002
1.947783e+003,1.062023e-002
1.949711e+003,1.049910e-002
1.951640e+003,1.066346e-002
1.953568e+003,1.111434e-002
1.955497e+003,1.182248e-002
1.957425e+003,1.167021e-002
1.959354e+003,1.085719e-002
1.961282e+003,1.120926e-002
1.963211e+003,1.184029e-002
1.965139e+003,1.147176e-002
1.967068e+003,1.120151e-002
1.968996e+003,1.048773e-002
1.970925e+003,1.029952e-002
1.972853e+003,1.104174e-002
1.974782e+003,1.093894e-002
1.976710e+003,1.088424e-002
1.978639e+003,1.041995e-002
1.980567e+003,1.047429e-002
1.982496e+003,1.090524e-002
1.984424e+003,1.057894e-002
1.986353e+003,1.027665e-002
1.988281e+003,1.019672e-002
1.990210e+003,9.674040e-003
1.992138e+003,9.709954e-003
1.994067e+003,9.288720e-003
1.995995e+003,9.542265e-003
1.997924e+003,9.566043e-003
1.999852e+003,9.191614e-003
2.001781e+003,9.923539e-003
2.003709e+003,1.022179e-002
2.005638e+003,1.057803e-002
2.007566e+003,1.037071e-002
2.009495e+003,9.430440e-003
2.011423e+003,9.345152e-003
2.013352e+003,9.515373e-003
2.015280e+003,9.272201e-003
2.017208e+003,9.164643e-003
2.019137e+003,9.371729e-003
2.021066e+003,9.380633e-003
2.022994e+003,8.329175e-003
2.024922e+003,7.779150e-003
2.026851e+003,8.382815e-003
2.028780e+003,8.814769e-003
2.030708e+003,8.820822e-003
2.032636e+003,8.689779e-003
2.034565e+003,8.459738e-003
2.036494e+003,8.552861e-003
2.038422e+003,8.486362e-003
2.040350e+003,8.196795e-003
2.042279e+003,8.443318e-003
2.044208e+003,8.782140e-003
2.046136e+003,8.821396e-003
2.048064e+003,8.908307e-003
2.049993e+003,8.676088e-003
2.051921e+003,8.394942e-003
2.053850e+003,9.325313e-003
2.055778e+003,9.844085e-003
2.057707e+003,9.513239e-003
2.059635e+003,9.142917e-003
2.061564e+003,9.365398e-003
2.063492e+003,9.648326e-003
2.065421e+003,9.062997e-003
2.067349e+003,8.680720e-003
2.069278e+003,8.949502e-003
2.071206e+003,9.230874e-003
2.073135e+003,9.210736e-003
2.075063e+003,9.451638e-003
2.076992e+003,9.688879e-003
2.078920e+003,9.186368e-003
2.080849e+003,9.044558e-003
2.082777e+003,9.503283e-003
2.084706e+003,9.590567e-003
2.086634e+003,9.733572e-003
2.088563e+003,9.709141e-003
2.090491e+003,9.882081e-003
2.092420e+003,1.012315e-002
2.094348e+003,1.016993e-002
2.096277e+003,1.001542e-002
2.098205e+003,9.642600e-003
2.100134e+003,9.362249e-003
2.102062e+003,9.862049e-003
2.103991e+003,1.007323e-002
2.105919e+003,9.858897e-003
2.107848e+003,9.760207e-003
2.109776e+003,9.641313e-003
2.111705e+003,9.866320e-003
2.113633e+003,1.012753e-002
2.115562e+003,1.008144e-002
2.117490e+003,9.972764e-003
2.119419e+003,1.007055e-002
2.121347e+003,9.998600e-003
2.123276e+003,1.001952e-002
2.125204e+003,9.911437e-003
2.127133e+003,1.003790e-002
2.129061e+003,1.033565e-002
2.130990e+003,1.052110e-002
2.132918e+003,1.035679e-002
2.134847e+003,1.030237e-002
2.136775e+003,1.026420e-002
2.138704e+003,1.027532e-002
2.140632e+003,1.077214e-002
2.142561e+003,1.112794e-002
2.144489e+003,1.176593e-002
2.146418e+003,1.092134e-002
2.148346e+003,1.033942e-002
2.150275e+003,1.037532e-002
2.152203e+003,1.063259e-002
2.154132e+003,1.123510e-002
2.156060e+003,1.183610e-002
2.157989e+003,1.154304e-002
2.159917e+003,1.135790e-002
2.161846e+003,1.206215e-002
2.163774e+003,1.106179e-002
2.165703e+003,1.077923e-002
2.167631e+003,1.138790e-002
2.169560e+003,1.159207e-002
2.171488e+003,1.096636e-002
2.173417e+003,1.022498e-002
2.175345e+003,9.852796e-003
2.177274e+003,1.049567e-002
2.179202e+003,1.057569e-002
2.181131e+003,1.024004e-002
2.183059e+003,9.951914e-003
2.184988e+003,9.374031e-003
2.186916e+003,9.832426e-003
2.188845e+003,1.056065e-002
2.190773e+003,9.944964e-003
2.192702e+003,9.694911e-003
2.194630e+003,1.063317e-002
2.196559e+003,1.057541e-002
2.198487e+003,9.912251e-003
2.200416e+003,1.012278e-002
2.202344e+003,1.084051e-002
2.204273e+003,1.079082e-002
2.206201e+003,9.667670e-003
2.208130e+003,9.945066e-003
2.210058e+003,1.045776e-002
2.211987e+003,1.032931e-002
2.213915e+003,1.034546e-002
2.215844e+003,1.004251e-002
2.217772e+003,9.528582e-003
2.219701e+003,9.835375e-003
2.221629e+003,1.000338e-002
2.223558e+003,9.912962e-003
2.225486e+003,9.582979e-003
2.227415e+003,9.936659e-003
2.229343e+003,1.042402e-002
2.231272e+003,1.070005e-002
2.233200e+003,1.096154e-002
2.235129e+003,1.110444e-002
2.237057e+003,1.061967e-002
2.238986e+003,1.043571e-002
2.240914e+003,1.066497e-002
2.242843e+003,1.071541e-002
2.244771e+003,1.083179e-002
2.246700e+003,1.077114e-002
2.248628e+003,1.095391e-002
2.250557e+003,1.096769e-002
2.252485e+003,1.078300e-002
2.254414e+003,1.089526e-002
2.256342e+003,1.083929e-002
2.258271e+003,1.086068e-002
2.260199e+003,1.081314e-002
2.262128e+003,1.065864e-002
2.264056e+003,1.054862e-002
2.265985e+003,1.084429e-002
2.267913e+003,1.089028e-002
2.269842e+003,1.079697e-002
2.271770e+003,1.076968e-002
2.273699e+003,1.069501e-002
2.275627e+003,1.055735e-002
2.277556e+003,1.062192e-002
2.279484e+003,1.097644e-002
2.281413e+003,1.095562e-002
2.283341e+003,1.067578e-002
2.285270e+003,1.066572e-002
2.287198e+003,1.081451e-002
2.289127e+003,1.077589e-002
2.291055e+003,1.080243e-002
2.292984e+003,1.084004e-002
2.294912e+003,1.078653e-002
2.296841e+003,1.070938e-002
2.298769e+003,1.066710e-002
2.300698e+003,1.046322e-002
2.302626e+003,1.036074e-002
2.304555e+003,1.046579e-002
2.306483e+003,1.050044e-002
2.308412e+003,1.061983e-002
2.310340e+003,1.076860e-002
2.312269e+003,1.076277e-002
2.314197e+003,1.078171e-002
2.316125e+003,1.060814e-002
2.318054e+003,1.055054e-002
2.319983e+003,1.058450e-002
2.321911e+003,1.061563e-002
2.323840e+003,1.058767e-002
2.325768e+003,1.068167e-002
2.327697e+003,1.064859e-002
2.329625e+003,1.066659e-002
2.331553e+003,1.088329e-002
2.333482e+003,1.084962e-002
2.335411e+003,1.085623e-002
2.337339e+003,1.091537e-002
2.339268e+003,1.103125e-002
2.341196e+003,1.096098e-002
2.343125e+003,1.099329e-002
2.345053e+003,1.085551e-002
2.346981e+003,1.085774e-002
2.348910e+003,1.082549e-002
2.350839e+003,1.084047e-002
2.352767e+003,1.077378e-002
2.354696e+003,1.063465e-002
2.356624e+003,1.063204e-002
2.358552e+003,1.078532e-002
2.360481e+003,1.088729e-002
2.362409e+003,1.083667e-002
2.364338e+003,1.058018e-002
2.366267e+003,1.083394e-002
2.368195e+003,1.068242e-002
2.370124e+003,1.088304e-002
2.372052e+003,1.096911e-002
2.373980e+003,1.087466e-002
2.375909e+003,1.084232e-002
2.377838e+003,1.075126e-002
2.379766e+003,1.074143e-002
2.381695e+003,1.082323e-002
2.383623e+003,1.085333e-002
2.385552e+003,1.072458e-002
2.387480e+003,1.067578e-002
2.389408e+003,1.070511e-002
2.391337e+003,1.072199e-002
2.393266e+003,1.069387e-002
2.395194e+003,1.073438e-002
2.397123e+003,1.084245e-002
2.399051e+003,1.085657e-002
2.400979e+003,1.082873e-002
2.402908e+003,1.089997e-002
2.404836e+003,1.085074e-002
2.406765e+003,1.076592e-002
2.408694e+003,1.085753e-002
2.410622e+003,1.086202e-002
2.412551e+003,1.091876e-002
2.414479e+003,1.104079e-002
2.416407e+003,1.096048e-002
2.418336e+003,1.080607e-002
2.420264e+003,1.074870e-002
2.422193e+003,1.076330e-002
2.424122e+003,1.085166e-002
2.426050e+003,1.091920e-002
2.427979e+003,1.088967e-002
2.429907e+003,1.082744e-002
2.431835e+003,1.075172e-002
2.433764e+003,1.077574e-002
2.435692e+003,1.065021e-002
2.437621e+003,1.059955e-002
2.439550e+003,1.066159e-002
2.441478e+003,1.063167e-002
2.443406e+003,1.063239e-002
2.445335e+003,1.082621e-002
2.447263e+003,1.082849e-002
2.449192e+003,1.084265e-002
2.451121e+003,1.092120e-002
2.453049e+003,1.090231e-002
2.454978e+003,1.088601e-002
2.456906e+003,1.100765e-002
2.458834e+003,1.101000e-002
2.460763e+003,1.079302e-002
2.462691e+003,1.070006e-002
2.464620e+003,1.078525e-002
2.466549e+003,1.079911e-002
2.468477e+003,1.073185e-002
2.470406e+003,1.085468e-002
2.472334e+003,1.095855e-002
2.474262e+003,1.089083e-002
2.476191e+003,1.081188e-002
2.478119e+003,1.076993e-002
2.480048e+003,1.069667e-002
2.481977e+003,1.070346e-002
2.483905e+003,1.087928e-002
2.485833e+003,1.089847e-002
2.487762e+003,1.082981e-002
2.489690e+003,1.071946e-002
2.491619e+003,1.064305e-002
2.493547e+003,1.077380e-002
2.495476e+003,1.081544e-002
2.497405e+003,1.073508e-002
2.499333e+003,1.074615e-002
2.501261e+003,1.071243e-002
2.503190e+003,1.065269e-002
2.505118e+003,1.060376e-002
2.507047e+003,1.074792e-002
2.508975e+003,1.076195e-002
2.510904e+003,1.071463e-002
2.512833e+003,1.080620e-002
2.514761e+003,1.068393e-002
2.516689e+003,1.047181e-002
2.518618e+003,1.051478e-002
2.520546e+003,1.061633e-002
2.522475e+003,1.058753e-002
2.524403e+003,1.062142e-002
2.526332e+003,1.056187e-002
2.528260e+003,1.051190e-002
2.530189e+003,1.050035e-002
2.532117e+003,1.056828e-002
2.534046e+003,1.053461e-002
2.535974e+003,1.053131e-002
2.537903e+003,1.050110e-002
2.539831e+003,1.044523e-002
2.541760e+003,1.056027e-002
2.543688e+003,1.057294e-002
2.545617e+003,1.059524e-002
2.547545e+003,1.072873e-002
2.549474e+003,1.067592e-002
2.551402e+003,1.056217e-002
2.553331e+003,1.048413e-002
2.555259e+003,1.036015e-002
2.557188e+003,1.036205e-002
2.559116e+003,1.052809e-002
2.561045e+003,1.053165e-002
2.562973e+003,1.049649e-002
2.564902e+003,1.057124e-002
2.566830e+003,1.068978e-002
2.568759e+003,1.050782e-002
2.570687e+003,1.044992e-002
2.572616e+003,1.056801e-002
2.574544e+003,1.056886e-002
2.576473e+003,1.061473e-002
2.578401e+003,1.069979e-002
2.580330e+003,1.056879e-002
2.582258e+003,1.054754e-002
2.584187e+003,1.053824e-002
2.586115e+003,1.053580e-002
2.588044e+003,1.060899e-002
2.589972e+003,1.061785e-002
2.591901e+003,1.075074e-002
2.593829e+003,1.079184e-002
2.595758e+003,1.065364e-002
2.597686e+003,1.066108e-002
2.599615e+003,1.062193e-002
2.601543e+003,1.066393e-002
2.603472e+003,1.080685e-002
2.605400e+003,1.079221e-002
2.607329e+003,1.073617e-002
2.609257e+003,1.081279e-002
2.611186e+003,1.086542e-002
2.613114e+003,1.082896e-002
2.615043e+003,1.083080e-002
2.616971e+003,1.090313e-002
2.618900e+003,1.094149e-002
2.620828e+003,1.097112e-002
2.622757e+003,1.100463e-002
2.624685e+003,1.105860e-002
2.626614e+003,1.112889e-002
2.628542e+003,1.116663e-002
2.630471e+003,1.121776e-002
2.632399e+003,1.124772e-002
2.634328e+003,1.124204e-002
2.636256e+003,1.128057e-002
2.638185e+003,1.126744e-002
2.640113e+003,1.130995e-002
2.642042e+003,1.141250e-002
2.643970e+003,1.143365e-002
2.645899e+003,1.139501e-002
2.647827e+003,1.144821e-002
2.649756e+003,1.156110e-002
2.651684e+003,1.161171e-002
2.653613e+003,1.163822e-002
2.655541e+003,1.164377e-002
2.657470e+003,1.166266e-002
2.659398e+003,1.165210e-002
2.661327e+003,1.170704e-002
2.663255e+003,1.178132e-002
2.665184e+003,1.178864e-002
2.667112e+003,1.180420e-002
2.669041e+003,1.185888e-002
2.670969e+003,1.187925e-002
2.672898e+003,1.188544e-002
2.674826e+003,1.190397e-002
2.676755e+003,1.189556e-002
2.678683e+003,1.191674e-002
2.680612e+003,1.188395e-002
2.682540e+003,1.186065e-002
2.684469e+003,1.189934e-002
2.686397e+003,1.195124e-002
2.688326e+003,1.197975e-002
2.690254e+003,1.201514e-002
2.692183e+003,1.204525e-002
2.694111e+003,1.204713e-002
2.696040e+003,1.210388e-002
2.697968e+003,1.208685e-002
2.699897e+003,1.209887e-002
2.701825e+003,1.215254e-002
2.703754e+003,1.214906e-002
2.705682e+003,1.216923e-002
2.707611e+003,1.215192e-002
2.709539e+003,1.215772e-002
2.711468e+003,1.220140e-002
2.713396e+003,1.217131e-002
2.715325e+003,1.219949e-002
2.717253e+003,1.223432e-002
2.719182e+003,1.224578e-002
2.721110e+003,1.227941e-002
2.723039e+003,1.231244e-002
2.724967e+003,1.235686e-002
2.726896e+003,1.235512e-002
2.728824e+003,1.235144e-002
2.730753e+003,1.236733e-002
2.732681e+003,1.238154e-002
2.734610e+003,1.241277e-002
2.736538e+003,1.246163e-002
2.738467e+003,1.243800e-002
2.740395e+003,1.242812e-002
2.742324e+003,1.242491e-002
2.744252e+003,1.240251e-002
2.746181e+003,1.239726e-002
2.748109e+003,1.242539e-002
2.750038e+003,1.247408e-002
2.751966e+003,1.252155e-002
2.753895e+003,1.248393e-002
2.755823e+003,1.246208e-002
2.757752e+003,1.249785e-002
2.759680e+003,1.253342e-002
2.761609e+003,1.251456e-002
2.763537e+003,1.252731e-002
2.765466e+003,1.253461e-002
2.767394e+003,1.255883e-002
2.769323e+003,1.261504e-002
2.771251e+003,1.265873e-002
2.773180e+003,1.269230e-002
2.775108e+003,1.265734e-002
2.777037e+003,1.265399e-002
2.778965e+003,1.262865e-002
2.780894e+003,1.269169e-002
2.782822e+003,1.272298e-002
2.784750e+003,1.269626e-002
2.786679e+003,1.275539e-002
2.788608e+003,1.280603e-002
2.790536e+003,1.279115e-002
2.792465e+003,1.283231e-002
2.794393e+003,1.288022e-002
2.796322e+003,1.292675e-002
2.798250e+003,1.301192e-002
2.800178e+003,1.303012e-002
2.802107e+003,1.300609e-002
2.804036e+003,1.302940e-002
2.805964e+003,1.299448e-002
2.807893e+003,1.302165e-002
2.809821e+003,1.307564e-002
2.811750e+003,1.310162e-002
2.813678e+003,1.312775e-002
2.815606e+003,1.321033e-002
2.817535e+003,1.329778e-002
2.819464e+003,1.333530e-002
2.821392e+003,1.333660e-002
2.823321e+003,1.334866e-002
2.825249e+003,1.341293e-002
2.827177e+003,1.348197e-002
2.829106e+003,1.356031e-002
2.831034e+003,1.362999e-002
2.832963e+003,1.369492e-002
2.834892e+003,1.377973e-002
2.836820e+003,1.385341e-002
2.838749e+003,1.392064e-002
2.840677e+003,1.394770e-002
2.842605e+003,1.406641e-002
2.844534e+003,1.426588e-002
2.846462e+003,1.446158e-002
2.848391e+003,1.455881e-002
2.850320e+003,1.463978e-002
2.852248e+003,1.472382e-002
2.854177e+003,1.477314e-002
2.856105e+003,1.482292e-002
2.858033e+003,1.486811e-002
2.859962e+003,1.493323e-002
2.861890e+003,1.502027e-002
2.863819e+003,1.503204e-002
2.865748e+003,1.508775e-002
2.867676e+003,1.512964e-002
2.869604e+003,1.512981e-002
2.871533e+003,1.515640e-002
2.873461e+003,1.519956e-002
2.875390e+003,1.523330e-002
2.877319e+003,1.523086e-002
2.879247e+003,1.527798e-002
2.881176e+003,1.533622e-002
2.883104e+003,1.532775e-002
2.885032e+003,1.538342e-002
2.886961e+003,1.540484e-002
2.888889e+003,1.544268e-002
2.890818e+003,1.549322e-002
2.892747e+003,1.551966e-002
2.894675e+003,1.550884e-002
2.896604e+003,1.547952e-002
2.898532e+003,1.540708e-002
2.900460e+003,1.539729e-002
2.902389e+003,1.542826e-002
2.904317e+003,1.545542e-002
2.906246e+003,1.543471e-002
2.908175e+003,1.542428e-002
2.910103e+003,1.538514e-002
2.912031e+003,1.535881e-002
2.913960e+003,1.539084e-002
2.915888e+003,1.539626e-002
2.917817e+003,1.538047e-002
2.919745e+003,1.545133e-002
2.921674e+003,1.541593e-002
2.923603e+003,1.532291e-002
2.925531e+003,1.526332e-002
2.927459e+003,1.514779e-002
2.929388e+003,1.507032e-002
2.931316e+003,1.495645e-002
2.933245e+003,1.479669e-002
2.935173e+003,1.474518e-002
2.937102e+003,1.468512e-002
2.939031e+003,1.460446e-002
2.940959e+003,1.453734e-002
2.942887e+003,1.447085e-002
2.944816e+003,1.435761e-002
2.946744e+003,1.419195e-002
2.948673e+003,1.403007e-002
2.950601e+003,1.396325e-002
2.952530e+003,1.394656e-002
2.954458e+003,1.390444e-002
2.956387e+003,1.381123e-002
2.958315e+003,1.369793e-002
2.960244e+003,1.359893e-002
2.962172e+003,1.352096e-002
2.964101e+003,1.350281e-002
2.966029e+003,1.340604e-002
2.967958e+003,1.330253e-002
2.969886e+003,1.325308e-002
2.971815e+003,1.321164e-002
2.973743e+003,1.311023e-002
2.975672e+003,1.305793e-002
2.977600e+003,1.305310e-002
2.979529e+003,1.299853e-002
2.981457e+003,1.292883e-002
2.983386e+003,1.288551e-002
2.985314e+003,1.284829e-002
2.987243e+003,1.286466e-002
2.989171e+003,1.285917e-002
2.991100e+003,1.281965e-002
2.993028e+003,1.277451e-002
2.994957e+003,1.277339e-002
2.996885e+003,1.284446e-002
2.998814e+003,1.286531e-002
3.000742e+003,1.280327e-002
3.002671e+003,1.276968e-002
3.004599e+003,1.278556e-002
3.006528e+003,1.279406e-002
3.008456e+003,1.286853e-002
3.010385e+003,1.290578e-002
3.012313e+003,1.293440e-002
3.014242e+003,1.294317e-002
3.016170e+003,1.296575e-002
3.018099e+003,1.297683e-002
3.020027e+003,1.298032e-002
3.021956e+003,1.297770e-002
3.023884e+003,1.304861e-002
3.025813e+003,1.304558e-002
3.027741e+003,1.304471e-002
3.029670e+003,1.311996e-002
3.031598e+003,1.317114e-002
3.033527e+003,1.316721e-002
3.035455e+003,1.317738e-002
3.037384e+003,1.325452e-002
3.039312e+003,1.330288e-002
3.041241e+003,1.326439e-002
3.043169e+003,1.327871e-002
3.045098e+003,1.336624e-002
3.047026e+003,1.341529e-002
3.048955e+003,1.347455e-002
3.050883e+003,1.349870e-002
3.052812e+003,1.342340e-002
3.054740e+003,1.349089e-002
3.056669e+003,1.356448e-002
3.058597e+003,1.362542e-002
3.060526e+003,1.365191e-002
3.062454e+003,1.370897e-002
3.064383e+003,1.381183e-002
3.066311e+003,1.393266e-002
3.068240e+003,1.396392e-002
3.070168e+003,1.392446e-002
3.072097e+003,1.389522e-002
3.074025e+003,1.395524e-002
3.075954e+003,1.401717e-002
3.077882e+003,1.399990e-002
3.079811e+003,1.405617e-002
3.081739e+003,1.411748e-002
3.083668e+003,1.412108e-002
3.085596e+003,1.418841e-002
3.087525e+003,1.426055e-002
3.089453e+003,1.424576e-002
3.091382e+003,1.425265e-002
3.093310e+003,1.431978e-002
3.095239e+003,1.438511e-002
3.097167e+003,1.443283e-002
3.099096e+003,1.452924e-002
3.101024e+003,1.457295e-002
3.102953e+003,1.460849e-002
3.104881e+003,1.472172e-002
3.106810e+003,1.470400e-002
3.108738e+003,1.467247e-002
3.110667e+003,1.475787e-002
3.112595e+003,1.487520e-002
3.114524e+003,1.491966e-002
3.116452e+003,1.493754e-002
3.118381e+003,1.491479e-002
3.120309e+003,1.494107e-002
3.122238e+003,1.501643e-002
3.124166e+003,1.511915e-002
3.126095e+003,1.516273e-002
3.128023e+003,1.521276e-002
3.129952e+003,1.530532e-002
3.131880e+003,1.538864e-002
3.133809e+003,1.540397e-002
3.135737e+003,1.545353e-002
3.137666e+003,1.548310e-002
3.139594e+003,1.556193e-002
3.141523e+003,1.569325e-002
3.143451e+003,1.571194e-002
3.145380e+003,1.576916e-002
3.147308e+003,1.586465e-002
3.149237e+003,1.595343e-002
3.151165e+003,1.600501e-002
3.153094e+003,1.600492e-002
3.155022e+003,1.604101e-002
3.156951e+003,1.622205e-002
3.158879e+003,1.626893e-002
3.160808e+003,1.619392e-002
3.162736e+003,1.630436e-002
3.164665e+003,1.642089e-002
3.166593e+003,1.646978e-002
3.168522e+003,1.659408e-002
3.170450e+003,1.665732e-002
3.172379e+003,1.674351e-002
3.174307e+003,1.681407e-002
3.176236e+003,1.683376e-002
3.178164e+003,1.687280e-002
3.180093e+003,1.692731e-002
3.182021e+003,1.697990e-002
3.183950e+003,1.705972e-002
3.185878e+003,1.713007e-002
3.187807e+003,1.711971e-002
3.189735e+003,1.719255e-002
3.191664e+003,1.741820e-002
3.193592e+003,1.754628e-002
3.195521e+003,1.759016e-002
3.197449e+003,1.766106e-002
3.199378e+003,1.766676e-002
3.201306e+003,1.776532e-002
3.203235e+003,1.789353e-002
3.205163e+003,1.795466e-002
3.207092e+003,1.797707e-002
3.209020e+003,1.800552e-002
3.210948e+003,1.814535e-002
3.212877e+003,1.824195e-002
3.214806e+003,1.826318e-002
3.216734e+003,1.837076e-002
3.218663e+003,1.843090e-002
3.220591e+003,1.849696e-002
3.222520e+003,1.867451e-002
3.224448e+003,1.878830e-002
3.226376e+003,1.884628e-002
3.228305e+003,1.887179e-002
3.230234e+003,1.900983e-002
3.232162e+003,1.921204e-002
3.234091e+003,1.927561e-002
3.236019e+003,1.933094e-002
3.237948e+003,1.941968e-002
3.239876e+003,1.948823e-002
3.241804e+003,1.956281e-002
3.243733e+003,1.967453e-002
3.245662e+003,1.976283e-002
3.247590e+003,1.981804e-002
3.249519e+003,1.989073e-002
3.251447e+003,2.007641e-002
3.253375e+003,2.020047e-002
3.255304e+003,2.026549e-002
3.257232e+003,2.030709e-002
3.259161e+003,2.032220e-002
3.261090e+003,2.046034e-002
3.263018e+003,2.057152e-002
3.264947e+003,2.068545e-002
3.266875e+003,2.070848e-002
3.268803e+003,2.076424e-002
3.270732e+003,2.083318e-002
3.272660e+003,2.092757e-002
3.274589e+003,2.099103e-002
3.276518e+003,2.103074e-002
3.278446e+003,2.105235e-002
3.280375e+003,2.105288e-002
3.282303e+003,2.111271e-002
3.284231e+003,2.115793e-002
3.286160e+003,2.120530e-002
3.288088e+003,2.119272e-002
3.290017e+003,2.120651e-002
3.291946e+003,2.121774e-002
3.293874e+003,2.128334e-002
3.295802e+003,2.130211e-002
3.297731e+003,2.127689e-002
3.299659e+003,2.128709e-002
3.301588e+003,2.128849e-002
3.303516e+003,2.131267e-002
3.305445e+003,2.138531e-002
3.307374e+003,2.149358e-002
3.309302e+003,2.154802e-002
3.311230e+003,2.152582e-002
3.313159e+003,2.161099e-002
3.315087e+003,2.158814e-002
3.317016e+003,2.158337e-002
3.318944e+003,2.163661e-002
3.320873e+003,2.166513e-002
3.322802e+003,2.172381e-002
3.324730e+003,2.181967e-002
3.326658e+003,2.190329e-002
3.328587e+003,2.187407e-002
3.330515e+003,2.189592e-002
3.332444e+003,2.184916e-002
3.334372e+003,2.181463e-002
3.336301e+003,2.182406e-002
3.338229e+003,2.189093e-002
3.340158e+003,2.197148e-002
3.342086e+003,2.193035e-002
3.344015e+003,2.186499e-002
3.345943e+003,2.181719e-002
3.347872e+003,2.180985e-002
3.349800e+003,2.174173e-002
3.351729e+003,2.167892e-002
3.353657e+003,2.160474e-002
3.355586e+003,2.160554e-002
3.357514e+003,2.153976e-002
3.359443e+003,2.152006e-002
3.361371e+003,2.140958e-002
3.363300e+003,2.131023e-002
3.365229e+003,2.123114e-002
3.367157e+003,2.126022e-002
3.369085e+003,2.128821e-002
3.371014e+003,2.123181e-002
3.372942e+003,2.113702e-002
3.374871e+003,2.101246e-002
3.376799e+003,2.098505e-002
3.378728e+003,2.098579e-002
3.380656e+003,2.097084e-002
3.382585e+003,2.089274e-002
3.384513e+003,2.076101e-002
3.386442e+003,2.083320e-002
3.388370e+003,2.082421e-002
3.390299e+003,2.067173e-002
3.392227e+003,2.062191e-002
3.394156e+003,2.058515e-002
3.396084e+003,2.050414e-002
3.398013e+003,2.043691e-002
3.399941e+003,2.038695e-002
3.401870e+003,2.032296e-002
3.403798e+003,2.031091e-002
3.405727e+003,2.018237e-002
3.407655e+003,2.007089e-002
3.409584e+003,2.003077e-002
3.411512e+003,1.992093e-002
3.413441e+003,1.978389e-002
3.415369e+003,1.972782e-002
3.417298e+003,1.963581e-002
3.419226e+003,1.948708e-002
3.421155e+003,1.941005e-002
3.423083e+003,1.932649e-002
3.425012e+003,1.918940e-002
3.426940e+003,1.898315e-002
3.428869e+003,1.888001e-002
3.430797e+003,1.881980e-002
3.432726e+003,1.870407e-002
3.434654e+003,1.858990e-002
3.436583e+003,1.849529e-002
3.438511e+003,1.835836e-002
3.440440e+003,1.830050e-002
3.442368e+003,1.814981e-002
3.444297e+003,1.801817e-002
3.446225e+003,1.796615e-002
3.448154e+003,1.782663e-002
3.450082e+003,1.768048e-002
3.452011e+003,1.749044e-002
3.453939e+003,1.735693e-002
3.455868e+003,1.724900e-002
3.457796e+003,1.710774e-002
3.459725e+003,1.700284e-002
3.461653e+003,1.691805e-002
3.463582e+003,1.681933e-002
3.465510e+003,1.651452e-002
3.467439e+003,1.640652e-002
3.469367e+003,1.636847e-002
3.471296e+003,1.631115e-002
3.473224e+003,1.621525e-002
3.475153e+003,1.608027e-002
3.477081e+003,1.592842e-002
3.479010e+003,1.577330e-002
3.480938e+003,1.563969e-002
3.482867e+003,1.560696e-002
3.484795e+003,1.551945e-002
3.486724e+003,1.536327e-002
3.488652e+003,1.516614e-002
3.490581e+003,1.513742e-002
3.492509e+003,1.511162e-002
3.494438e+003,1.501520e-002
3.496366e+003,1.489040e-002
3.498295e+003,1.470514e-002
3.500223e+003,1.452297e-002
3.502152e+003,1.446411e-002
3.504080e+003,1.439948e-002
3.506009e+003,1.436707e-002
3.507937e+003,1.432913e-002
3.509866e+003,1.421110e-002
3.511794e+003,1.397381e-002
3.513723e+003,1.384903e-002
3.515651e+003,1.383894e-002
3.517580e+003,1.374605e-002
3.519508e+003,1.369502e-002
3.521437e+003,1.367957e-002
3.523365e+003,1.359491e-002
3.525294e+003,1.351321e-002
3.527222e+003,1.340220e-002
3.529151e+003,1.326434e-002
3.531079e+003,1.315425e-002
3.533008e+003,1.304873e-002
3.534936e+003,1.293214e-002
3.536865e+003,1.297754e-002
3.538793e+003,1.288715e-002
3.540722e+003,1.270404e-002
3.542650e+003,1.261200e-002
3.544579e+003,1.258304e-002
3.546507e+003,1.249580e-002
3.548436e+003,1.234875e-002
3.550364e+003,1.218948e-002
3.552293e+003,1.211271e-002
3.554221e+003,1.195860e-002
3.556150e+003,1.193476e-002
3.558078e+003,1.177846e-002
3.560007e+003,1.165633e-002
3.561935e+003,1.165244e-002
3.563864e+003,1.159854e-002
3.565792e+003,1.135920e-002
3.567721e+003,1.121399e-002
3.569649e+003,1.129720e-002
3.571578e+003,1.128023e-002
3.573506e+003,1.109670e-002
3.575435e+003,1.090065e-002
3.577363e+003,1.085662e-002
3.579292e+003,1.071331e-002
3.581220e+003,1.064050e-002
3.583149e+003,1.050830e-002
3.585077e+003,1.020975e-002
3.587006e+003,1.002820e-002
3.588934e+003,9.851880e-003
3.590863e+003,9.601440e-003
3.592791e+003,9.376469e-003
3.594720e+003,9.259914e-003
3.596648e+003,9.183187e-003
3.598577e+003,9.015566e-003
3.600505e+003,8.859472e-003
3.602434e+003,8.940066e-003
3.604362e+003,9.028928e-003
3.606291e+003,9.094260e-003
3.608219e+003,9.281002e-003
3.610148e+003,9.588873e-003
3.612076e+003,9.909301e-003
3.614005e+003,9.769356e-003
3.615933e+003,9.237270e-003
3.617862e+003,8.885750e-003
3.619790e+003,8.583480e-003
3.621719e+003,8.292261e-003
3.623647e+003,7.989998e-003
3.625576e+003,7.811906e-003
3.627504e+003,7.966846e-003
3.629433e+003,8.061349e-003
3.631361e+003,8.088320e-003
3.633290e+003,8.350860e-003
3.635218e+003,8.464434e-003
3.637146e+003,8.608353e-003
3.639075e+003,8.822377e-003
3.641004e+003,8.939153e-003
3.642932e+003,8.942467e-003
3.644861e+003,8.999768e-003
3.646789e+003,9.132867e-003
3.648718e+003,9.215744e-003
3.650646e+003,9.140007e-003
3.652574e+003,9.092466e-003
3.654503e+003,9.178517e-003
3.656432e+003,9.199296e-003
3.658360e+003,9.140616e-003
3.660289e+003,9.105560e-003
3.662217e+003,8.936852e-003
3.664146e+003,8.916661e-003
3.666074e+003,8.885276e-003
3.668002e+003,8.854637e-003
3.669931e+003,8.861265e-003
3.671860e+003,8.838709e-003
3.673788e+003,8.662771e-003
3.675717e+003,8.545393e-003
3.677645e+003,8.527315e-003
3.679573e+003,8.542487e-003
3.681502e+003,8.386361e-003
3.683430e+003,8.203615e-003
3.685359e+003,8.052067e-003
3.687288e+003,7.950581e-003
3.689216e+003,7.717828e-003
3.691145e+003,7.585431e-003
3.693073e+003,7.500808e-003
3.695001e+003,7.289725e-003
3.696930e+003,7.138462e-003
3.698858e+003,7.073896e-003
3.700787e+003,6.950752e-003
3.702716e+003,6.896819e-003
3.704644e+003,6.915200e-003
3.706573e+003,6.956712e-003
3.708501e+003,7.169081e-003
3.710429e+003,7.522013e-003
3.712358e+003,7.968500e-003
3.714286e+003,8.381058e-003
3.716215e+003,8.112626e-003
3.718144e+003,7.547534e-003
3.720072e+003,7.166251e-003
3.722000e+003,6.871201e-003
3.723929e+003,6.520378e-003
3.725857e+003,6.317773e-003
3.727786e+003,6.190171e-003
3.729714e+003,6.229934e-003
3.731643e+003,6.465825e-003
3.733572e+003,6.665303e-003
3.735500e+003,6.982840e-003
3.737428e+003,7.344652e-003
3.739357e+003,7.679312e-003
3.741285e+003,7.952133e-003
3.743214e+003,8.209998e-003
3.745142e+003,8.396968e-003
3.747071e+003,8.584561e-003
3.749000e+003,8.734604e-003
3.750928e+003,8.762666e-003
3.752856e+003,8.755397e-003
3.754785e+003,8.910540e-003
3.756713e+003,8.920888e-003
3.758642e+003,8.835463e-003
3.760570e+003,8.930596e-003
3.762499e+003,8.965130e-003
3.764427e+003,8.995540e-003
3.766356e+003,8.909220e-003
3.768284e+003,8.948725e-003
3.770213e+003,9.005113e-003
3.772141e+003,9.020606e-003
3.774070e+003,8.994085e-003
3.775998e+003,8.920584e-003
3.777927e+003,8.898736e-003
3.779855e+003,8.874893e-003
3.781784e+003,8.931982e-003
3.783712e+003,8.969493e-003
3.785641e+003,8.966381e-003
3.787569e+003,8.924305e-003
3.789498e+003,8.962559e-003
3.791426e+003,8.968952e-003
3.793355e+003,8.989383e-003
3.795283e+003,8.995675e-003
3.797212e+003,8.998550e-003
3.799140e+003,9.005113e-003
3.801069e+003,8.998246e-003
3.802997e+003,8.924406e-003
3.804926e+003,9.007751e-003
3.806854e+003,9.065264e-003
3.808783e+003,8.991175e-003
3.810711e+003,8.967396e-003
3.812640e+003,9.014652e-003
3.814568e+003,9.042156e-003
3.816497e+003,9.045607e-003
3.818425e+003,9.131582e-003
3.820354e+003,9.103259e-003
3.822282e+003,9.092771e-003
3.824211e+003,9.059309e-003
3.826139e+003,9.081030e-003
3.828068e+003,9.092771e-003
3.829996e+003,9.094022e-003
3.831925e+003,9.095172e-003
3.833853e+003,9.010999e-003
3.835782e+003,9.050276e-003
3.837710e+003,9.184338e-003
3.839639e+003,9.100045e-003
3.841567e+003,9.043544e-003
3.843496e+003,9.168094e-003
3.845424e+003,9.184507e-003
3.847353e+003,9.097339e-003
3.849281e+003,9.064655e-003
3.851210e+003,9.145962e-003
3.853138e+003,9.247763e-003
3.855067e+003,9.203324e-003
3.856995e+003,9.207419e-003
3.858924e+003,9.208637e-003
3.860852e+003,9.233005e-003
3.862781e+003,9.273217e-003
3.864709e+003,9.201632e-003
3.866638e+003,9.140582e-003
3.868566e+003,9.147587e-003
3.870495e+003,9.223664e-003
3.872423e+003,9.295558e-003
3.874352e+003,9.285741e-003
3.876280e+003,9.295659e-003
3.878209e+003,9.319931e-003
3.880137e+003,9.365228e-003
3.882066e+003,9.280900e-003
3.883994e+003,9.261979e-003
3.885923e+003,9.237304e-003
3.887851e+003,9.195236e-003
3.889780e+003,9.319017e-003
3.891708e+003,9.394143e-003
3.893637e+003,9.308015e-003
3.895565e+003,9.240621e-003
3.897494e+003,9.218385e-003
3.899422e+003,9.294000e-003
3.901351e+003,9.303953e-003
3.903279e+003,9.347996e-003
3.905208e+003,9.399492e-003
3.907136e+003,9.346337e-003
3.909065e+003,9.328970e-003
3.910993e+003,9.352803e-003
3.912922e+003,9.356358e-003
3.914850e+003,9.337061e-003
3.916779e+003,9.247797e-003
3.918707e+003,9.242043e-003
3.920636e+003,9.282153e-003
3.922564e+003,9.264112e-003
3.924493e+003,9.285436e-003
3.926421e+003,9.363298e-003
3.928350e+003,9.373658e-003
3.930278e+003,9.346066e-003
3.932207e+003,9.238794e-003
3.934135e+003,9.239098e-003
3.936064e+003,9.402302e-003
3.937992e+003,9.392957e-003
3.939921e+003,9.344712e-003
3.941849e+003,9.431490e-003
3.943778e+003,9.441988e-003
3.945706e+003,9.361944e-003
3.947635e+003,9.354970e-003
3.949563e+003,9.391739e-003
3.951492e+003,9.461018e-003
3.953420e+003,9.461052e-003
3.955349e+003,9.376672e-003
3.957277e+003,9.382258e-003
3.959206e+003,9.407517e-003
3.961134e+003,9.439075e-003
3.963063e+003,9.475343e-003
3.964991e+003,9.424989e-003
3.966920e+003,9.316105e-003
3.968848e+003,9.249354e-003
3.970777e+003,9.332592e-003
3.972705e+003,9.378974e-003
3.974634e+003,9.410023e-003
3.976562e+003,9.399492e-003
3.978491e+003,9.454043e-003
3.980419e+003,9.447947e-003
3.982348e+003,9.447507e-003
3.984276e+003,9.480186e-003
3.986205e+003,9.374505e-003
3.988133e+003,9.346269e-003
3.990062e+003,9.389876e-003
3.991990e+003,9.468841e-003
3.993919e+003,9.482150e-003
3.995847e+003,9.446288e-003
3.997776e+003,9.373422e-003
3.999704e+003,9.373422e-003
4.001633e+003,0.000000e+000
