3.991989e+002,4.118438e-002
4.011274e+002,4.251213e-002
4.030559e+002,4.251213e-002
4.049844e+002,4.184065e-002
4.069129e+002,4.132903e-002
4.088414e+002,4.042700e-002
4.107699e+002,3.909393e-002
4.126984e+002,3.998479e-002
4.146269e+002,4.089149e-002
4.165554e+002,4.210740e-002
4.184839e+002,4.177771e-002
4.204124e+002,4.154158e-002
4.223409e+002,4.127566e-002
4.242694e+002,4.039408e-002
4.261979e+002,4.122473e-002
4.281264e+002,4.184020e-002
4.300549e+002,4.185059e-002
4.319834e+002,4.223904e-002
4.339119e+002,4.195862e-002
4.358404e+002,4.113486e-002
4.377689e+002,4.110964e-002
4.396974e+002,4.204354e-002
4.416259e+002,4.181940e-002
4.435544e+002,4.077240e-002
4.454829e+002,4.061244e-002
4.474114e+002,4.137348e-002
4.493399e+002,4.079346e-002
4.512684e+002,4.105684e-002
4.531969e+002,4.102449e-002
4.551254e+002,4.087935e-002
4.570539e+002,4.062617e-002
4.589824e+002,4.065098e-002
4.609109e+002,4.091315e-002
4.628394e+002,4.074794e-002
4.647679e+002,4.062796e-002
4.666964e+002,4.048243e-002
4.686249e+002,4.011200e-002
4.705533e+002,3.970560e-002
4.724819e+002,3.927837e-002
4.744103e+002,3.937059e-002
4.763389e+002,3.854878e-002
4.782673e+002,3.861423e-002
4.801959e+002,3.885654e-002
4.821243e+002,3.831996e-002
4.840529e+002,3.873646e-002
4.859813e+002,3.897610e-002
4.879099e+002,3.827420e-002
4.898383e+002,3.792118e-002
4.917668e+002,3.788492e-002
4.936953e+002,3.802947e-002
4.956238e+002,3.827750e-002
4.975523e+002,3.822774e-002
4.994808e+002,3.794285e-002
5.014093e+002,3.778631e-002
5.033378e+002,3.774793e-002
5.052663e+002,3.772588e-002
5.071948e+002,3.794524e-002
5.091233e+002,3.791756e-002
5.110518e+002,3.802194e-002
5.129803e+002,3.853119e-002
5.149088e+002,3.875486e-002
5.168373e+002,3.879390e-002
5.187658e+002,3.862379e-002
5.206943e+002,3.875312e-002
5.226228e+002,3.901536e-002
5.245513e+002,3.937521e-002
5.264798e+002,3.892688e-002
5.284083e+002,3.902671e-002
5.303368e+002,3.900670e-002
5.322653e+002,3.895803e-002
5.341938e+002,3.900502e-002
5.361223e+002,3.849505e-002
5.380508e+002,3.816429e-002
5.399792e+002,3.833295e-002
5.419078e+002,3.796410e-002
5.438363e+002,3.805286e-002
5.457648e+002,3.820341e-002
5.476932e+002,3.836023e-002
5.496218e+002,3.840938e-002
5.515503e+002,3.838120e-002
5.534788e+002,3.847853e-002
5.554072e+002,3.857886e-002
5.573358e+002,3.833761e-002
5.592643e+002,3.890784e-002
5.611927e+002,3.902338e-002
5.631212e+002,3.856657e-002
5.650497e+002,3.802645e-002
5.669783e+002,3.775548e-002
5.689067e+002,3.760536e-002
5.708352e+002,3.756345e-002
5.727637e+002,3.725017e-002
5.746923e+002,3.712988e-002
5.766207e+002,3.705800e-002
5.785492e+002,3.721492e-002
5.804777e+002,3.726563e-002
5.824063e+002,3.709396e-002
5.843347e+002,3.679326e-002
5.862632e+002,3.700310e-002
5.881917e+002,3.717488e-002
5.901202e+002,3.707741e-002
5.920487e+002,3.708187e-002
5.939772e+002,3.708163e-002
5.959057e+002,3.668875e-002
5.978342e+002,3.660563e-002
5.997627e+002,3.629281e-002
6.016912e+002,3.619524e-002
6.036197e+002,3.609627e-002
6.055482e+002,3.605260e-002
6.074767e+002,3.607615e-002
6.094052e+002,3.604924e-002
6.113337e+002,3.566073e-002
6.132622e+002,3.542462e-002
6.151907e+002,3.519702e-002
6.171192e+002,3.505215e-002
6.190477e+002,3.461220e-002
6.209762e+002,3.433410e-002
6.229047e+002,3.385416e-002
6.248332e+002,3.326124e-002
6.267617e+002,3.274662e-002
6.286902e+002,3.252607e-002
6.306187e+002,3.218804e-002
6.325472e+002,3.195572e-002
6.344756e+002,3.168622e-002
6.364042e+002,3.147797e-002
6.383326e+002,3.125558e-002
6.402612e+002,3.104041e-002
6.421896e+002,3.078598e-002
6.441182e+002,3.052867e-002
6.460466e+002,3.030657e-002
6.479752e+002,3.019647e-002
6.499036e+002,3.004123e-002
6.518322e+002,2.979619e-002
6.537606e+002,2.977070e-002
6.556891e+002,2.985688e-002
6.576177e+002,2.984820e-002
6.595461e+002,2.990594e-002
6.614746e+002,3.018468e-002
6.634031e+002,3.043659e-002
6.653317e+002,3.040901e-002
6.672601e+002,3.010026e-002
6.691886e+002,2.982755e-002
6.711171e+002,2.951322e-002
6.730457e+002,2.883058e-002
6.749741e+002,2.807125e-002
6.769026e+002,2.746372e-002
6.788311e+002,2.694274e-002
6.807596e+002,2.643516e-002
6.826881e+002,2.609258e-002
6.846166e+002,2.556209e-002
6.865451e+002,2.533042e-002
6.884736e+002,2.535428e-002
6.904021e+002,2.533888e-002
6.923306e+002,2.515531e-002
6.942591e+002,2.514474e-002
6.961876e+002,2.504092e-002
6.981161e+002,2.491991e-002
7.000446e+002,2.484055e-002
7.019731e+002,2.484905e-002
7.039016e+002,2.449829e-002
7.058301e+002,2.436415e-002
7.077585e+002,2.417650e-002
7.096871e+002,2.395062e-002
7.116156e+002,2.386099e-002
7.135441e+002,2.393025e-002
7.154725e+002,2.363066e-002
7.174011e+002,2.340696e-002
7.193296e+002,2.341477e-002
7.212581e+002,2.318415e-002
7.231865e+002,2.290409e-002
7.251151e+002,2.272406e-002
7.270436e+002,2.244994e-002
7.289720e+002,2.229723e-002
7.309005e+002,2.211348e-002
7.328290e+002,2.180700e-002
7.347576e+002,2.162263e-002
7.366860e+002,2.161820e-002
7.386145e+002,2.137563e-002
7.405430e+002,2.124349e-002
7.424716e+002,2.113327e-002
7.444000e+002,2.088165e-002
7.463285e+002,2.062692e-002
7.482570e+002,2.057020e-002
7.501855e+002,2.044511e-002
7.521140e+002,2.026857e-002
7.540425e+002,2.007082e-002
7.559710e+002,1.996526e-002
7.578995e+002,1.984796e-002
7.598280e+002,1.967061e-002
7.617565e+002,1.959667e-002
7.636850e+002,1.959983e-002
7.656135e+002,1.953355e-002
7.675420e+002,1.935822e-002
7.694705e+002,1.924993e-002
7.713990e+002,1.932898e-002
7.733275e+002,1.916398e-002
7.752560e+002,1.913101e-002
7.771844e+002,1.902566e-002
7.791130e+002,1.902881e-002
7.810415e+002,1.911526e-002
7.829700e+002,1.906845e-002
7.848984e+002,1.885997e-002
7.868270e+002,1.873285e-002
7.887555e+002,1.873939e-002
7.906840e+002,1.861926e-002
7.926124e+002,1.840239e-002
7.945410e+002,1.840710e-002
7.964695e+002,1.843485e-002
7.983979e+002,1.827786e-002
8.003264e+002,1.819832e-002
8.022549e+002,1.831871e-002
8.041835e+002,1.821338e-002
8.061119e+002,1.815340e-002
8.080404e+002,1.808683e-002
8.099689e+002,1.805029e-002
8.118975e+002,1.806400e-002
8.138259e+002,1.798871e-002
8.157545e+002,1.781303e-002
8.176830e+002,1.780070e-002
8.196115e+002,1.779435e-002
8.215399e+002,1.772897e-002
8.234684e+002,1.764970e-002
8.253970e+002,1.768121e-002
8.273254e+002,1.770768e-002
8.292539e+002,1.776784e-002
8.311824e+002,1.774226e-002
8.331110e+002,1.768104e-002
8.350394e+002,1.768870e-002
8.369679e+002,1.766495e-002
8.388964e+002,1.750255e-002
8.408250e+002,1.739931e-002
8.427534e+002,1.737658e-002
8.446819e+002,1.726538e-002
8.466104e+002,1.713207e-002
8.485389e+002,1.715765e-002
8.504674e+002,1.705150e-002
8.523959e+002,1.706780e-002
8.543244e+002,1.715758e-002
8.562529e+002,1.712142e-002
8.581814e+002,1.702606e-002
8.601099e+002,1.697931e-002
8.620384e+002,1.706059e-002
8.639669e+002,1.726048e-002
8.658954e+002,1.724318e-002
8.678239e+002,1.727407e-002
8.697524e+002,1.731500e-002
8.716809e+002,1.737972e-002
8.736094e+002,1.737424e-002
8.755378e+002,1.744905e-002
8.774664e+002,1.762572e-002
8.793949e+002,1.783726e-002
8.813234e+002,1.802438e-002
8.832518e+002,1.830171e-002
8.851804e+002,1.860712e-002
8.871089e+002,1.887738e-002
8.890374e+002,1.922340e-002
8.909658e+002,1.977162e-002
8.928943e+002,2.009955e-002
8.948229e+002,2.039629e-002
8.967513e+002,2.054815e-002
8.986798e+002,2.056573e-002
9.006083e+002,2.035316e-002
9.025369e+002,2.000527e-002
9.044653e+002,1.963057e-002
9.063938e+002,1.936896e-002
9.083223e+002,1.918642e-002
9.102509e+002,1.904871e-002
9.121793e+002,1.888447e-002
9.141078e+002,1.876115e-002
9.160364e+002,1.877807e-002
9.179648e+002,1.880104e-002
9.198933e+002,1.879371e-002
9.218218e+002,1.889994e-002
9.237504e+002,1.897539e-002
9.256788e+002,1.914327e-002
9.276073e+002,1.939470e-002
9.295358e+002,1.955515e-002
9.314644e+002,1.960021e-002
9.333928e+002,1.975227e-002
9.353213e+002,1.997026e-002
9.372498e+002,2.014879e-002
9.391783e+002,2.042877e-002
9.411068e+002,2.095635e-002
9.430353e+002,2.143808e-002
9.449637e+002,2.190287e-002
9.468923e+002,2.231274e-002
9.488208e+002,2.277826e-002
9.507493e+002,2.340515e-002
9.526777e+002,2.402219e-002
9.546063e+002,2.453534e-002
9.565348e+002,2.504334e-002
9.584633e+002,2.564187e-002
9.603917e+002,2.634092e-002
9.623203e+002,2.697773e-002
9.642488e+002,2.753290e-002
9.661772e+002,2.810334e-002
9.681057e+002,2.866763e-002
9.700343e+002,2.917794e-002
9.719628e+002,2.973387e-002
9.738912e+002,3.039000e-002
9.758197e+002,3.120439e-002
9.777483e+002,3.212326e-002
9.796768e+002,3.317964e-002
9.816052e+002,3.432282e-002
9.835337e+002,3.553871e-002
9.854623e+002,3.668257e-002
9.873907e+002,3.772066e-002
9.893192e+002,3.849487e-002
9.912477e+002,3.902037e-002
9.931763e+002,3.931667e-002
9.951047e+002,3.950319e-002
9.970332e+002,3.972762e-002
9.989617e+002,4.012967e-002
1.000890e+003,4.073983e-002
1.002819e+003,4.139405e-002
1.004747e+003,4.199337e-002
1.006676e+003,4.263003e-002
1.008604e+003,4.323497e-002
1.010533e+003,4.386701e-002
1.012461e+003,4.457328e-002
1.014390e+003,4.538997e-002
1.016318e+003,4.628962e-002
1.018247e+003,4.720185e-002
1.020175e+003,4.818777e-002
1.022104e+003,4.911395e-002
1.024032e+003,4.996165e-002
1.025961e+003,5.091296e-002
1.027889e+003,5.198014e-002
1.029818e+003,5.303760e-002
1.031746e+003,5.393865e-002
1.033675e+003,5.455138e-002
1.035603e+003,5.463174e-002
1.037532e+003,5.429077e-002
1.039460e+003,5.370915e-002
1.041389e+003,5.304378e-002
1.043317e+003,5.253076e-002
1.045246e+003,5.220962e-002
1.047174e+003,5.200479e-002
1.049103e+003,5.190127e-002
1.051031e+003,5.174052e-002
1.052960e+003,5.152650e-002
1.054888e+003,5.111732e-002
1.056817e+003,5.046825e-002
1.058745e+003,4.969021e-002
1.060674e+003,4.877538e-002
1.062602e+003,4.771367e-002
1.064531e+003,4.657383e-002
1.066459e+003,4.544787e-002
1.068388e+003,4.425368e-002
1.070316e+003,4.314446e-002
1.072245e+003,4.216812e-002
1.074173e+003,4.116573e-002
1.076102e+003,4.020617e-002
1.078030e+003,3.928228e-002
1.079959e+003,3.830266e-002
1.081887e+003,3.732387e-002
1.083816e+003,3.660549e-002
1.085744e+003,3.613838e-002
1.087673e+003,3.582111e-002
1.089601e+003,3.555705e-002
1.091530e+003,3.535974e-002
1.093458e+003,3.519111e-002
1.095387e+003,3.509272e-002
1.097315e+003,3.507601e-002
1.099244e+003,3.507077e-002
1.101172e+003,3.513909e-002
1.103101e+003,3.519320e-002
1.105029e+003,3.508880e-002
1.106958e+003,3.476986e-002
1.108886e+003,3.419024e-002
1.110815e+003,3.342280e-002
1.112743e+003,3.252810e-002
1.114672e+003,3.148748e-002
1.116600e+003,3.040492e-002
1.118529e+003,2.947595e-002
1.120457e+003,2.869938e-002
1.122386e+003,2.802841e-002
1.124314e+003,2.722231e-002
1.126243e+003,2.630001e-002
1.128171e+003,2.541058e-002
1.130100e+003,2.454256e-002
1.132028e+003,2.369612e-002
1.133957e+003,2.299209e-002
1.135885e+003,2.231504e-002
1.137814e+003,2.179643e-002
1.139742e+003,2.157449e-002
1.141671e+003,2.161398e-002
1.143599e+003,2.177047e-002
1.145528e+003,2.200053e-002
1.147456e+003,2.231759e-002
1.149385e+003,2.269422e-002
1.151313e+003,2.310173e-002
1.153242e+003,2.358486e-002
1.155170e+003,2.395699e-002
1.157099e+003,2.426112e-002
1.159027e+003,2.444500e-002
1.160956e+003,2.448321e-002
1.162884e+003,2.421361e-002
1.164813e+003,2.367477e-002
1.166741e+003,2.284454e-002
1.168670e+003,2.182670e-002
1.170598e+003,2.073505e-002
1.172526e+003,1.963647e-002
1.174455e+003,1.863098e-002
1.176384e+003,1.777657e-002
1.178312e+003,1.705329e-002
1.180240e+003,1.645807e-002
1.182169e+003,1.591684e-002
1.184098e+003,1.549294e-002
1.186026e+003,1.522442e-002
1.187954e+003,1.506988e-002
1.189883e+003,1.499333e-002
1.191812e+003,1.496622e-002
1.193740e+003,1.510215e-002
1.195668e+003,1.534274e-002
1.197597e+003,1.556804e-002
1.199526e+003,1.574744e-002
1.201454e+003,1.590089e-002
1.203382e+003,1.594820e-002
1.205311e+003,1.592027e-002
1.207240e+003,1.581026e-002
1.209168e+003,1.569354e-002
1.211096e+003,1.567267e-002
1.213025e+003,1.576363e-002
1.214953e+003,1.589791e-002
1.216882e+003,1.603892e-002
1.218810e+003,1.624680e-002
1.220739e+003,1.645625e-002
1.222667e+003,1.670244e-002
1.224596e+003,1.699073e-002
1.226524e+003,1.729889e-002
1.228453e+003,1.756960e-002
1.230381e+003,1.785162e-002
1.232310e+003,1.809970e-002
1.234238e+003,1.827605e-002
1.236167e+003,1.840023e-002
1.238095e+003,1.850207e-002
1.240024e+003,1.856394e-002
1.241952e+003,1.858838e-002
1.243881e+003,1.859960e-002
1.245809e+003,1.854991e-002
1.247738e+003,1.843618e-002
1.249666e+003,1.832757e-002
1.251595e+003,1.818646e-002
1.253523e+003,1.801811e-002
1.255452e+003,1.780136e-002
1.257380e+003,1.760919e-002
1.259309e+003,1.740424e-002
1.261237e+003,1.711247e-002
1.263166e+003,1.682929e-002
1.265094e+003,1.654918e-002
1.267023e+003,1.624195e-002
1.268951e+003,1.597648e-002
1.270880e+003,1.574158e-002
1.272808e+003,1.548333e-002
1.274737e+003,1.522207e-002
1.276665e+003,1.504021e-002
1.278594e+003,1.484664e-002
1.280522e+003,1.473193e-002
1.282451e+003,1.463717e-002
1.284379e+003,1.447677e-002
1.286308e+003,1.433887e-002
1.288236e+003,1.423104e-002
1.290165e+003,1.415308e-002
1.292093e+003,1.417383e-002
1.294022e+003,1.422608e-002
1.295950e+003,1.433249e-002
1.297879e+003,1.446907e-002
1.299807e+003,1.463669e-002
1.301736e+003,1.482431e-002
1.303664e+003,1.504107e-002
1.305593e+003,1.530295e-002
1.307521e+003,1.558001e-002
1.309450e+003,1.583012e-002
1.311378e+003,1.609468e-002
1.313307e+003,1.634566e-002
1.315235e+003,1.650347e-002
1.317164e+003,1.658356e-002
1.319092e+003,1.660739e-002
1.321021e+003,1.653265e-002
1.322949e+003,1.636252e-002
1.324878e+003,1.616704e-002
1.326806e+003,1.600146e-002
1.328735e+003,1.589725e-002
1.330663e+003,1.591233e-002
1.332592e+003,1.588669e-002
1.334520e+003,1.578244e-002
1.336449e+003,1.565220e-002
1.338377e+003,1.552228e-002
1.340306e+003,1.535712e-002
1.342234e+003,1.521721e-002
1.344163e+003,1.510846e-002
1.346091e+003,1.505548e-002
1.348020e+003,1.508273e-002
1.349948e+003,1.516574e-002
1.351877e+003,1.523277e-002
1.353805e+003,1.533588e-002
1.355734e+003,1.549958e-002
1.357662e+003,1.563007e-002
1.359591e+003,1.575929e-002
1.361519e+003,1.591927e-002
1.363448e+003,1.605625e-002
1.365376e+003,1.620576e-002
1.367305e+003,1.633238e-002
1.369233e+003,1.635562e-002
1.371162e+003,1.632434e-002
1.373090e+003,1.621211e-002
1.375019e+003,1.602214e-002
1.376947e+003,1.582718e-002
1.378876e+003,1.564489e-002
1.380804e+003,1.537718e-002
1.382733e+003,1.503800e-002
1.384661e+003,1.469468e-002
1.386590e+003,1.441313e-002
1.388518e+003,1.419960e-002
1.390447e+003,1.408777e-002
1.392375e+003,1.397637e-002
1.394304e+003,1.387472e-002
1.396232e+003,1.381951e-002
1.398161e+003,1.376193e-002
1.400089e+003,1.375720e-002
1.402018e+003,1.377592e-002
1.403946e+003,1.381079e-002
1.405875e+003,1.386459e-002
1.407803e+003,1.393499e-002
1.409732e+003,1.399948e-002
1.411660e+003,1.408555e-002
1.413589e+003,1.419367e-002
1.415517e+003,1.430813e-002
1.417446e+003,1.442269e-002
1.419374e+003,1.453276e-002
1.421303e+003,1.459424e-002
1.423231e+003,1.461045e-002
1.425160e+003,1.460037e-002
1.427088e+003,1.453276e-002
1.429017e+003,1.442028e-002
1.430945e+003,1.433464e-002
1.432874e+003,1.422838e-002
1.434802e+003,1.407715e-002
1.436731e+003,1.391080e-002
1.438659e+003,1.377970e-002
1.440588e+003,1.367408e-002
1.442516e+003,1.358586e-002
1.444445e+003,1.350909e-002
1.446373e+003,1.350428e-002
1.448302e+003,1.354580e-002
1.450230e+003,1.347530e-002
1.452159e+003,1.340288e-002
1.454087e+003,1.337811e-002
1.456016e+003,1.328602e-002
1.457944e+003,1.317007e-002
1.459873e+003,1.308269e-002
1.461801e+003,1.300563e-002
1.463730e+003,1.288568e-002
1.465658e+003,1.270827e-002
1.467587e+003,1.243263e-002
1.469515e+003,1.207460e-002
1.471444e+003,1.171250e-002
1.473372e+003,1.138347e-002
1.475301e+003,1.111612e-002
1.477229e+003,1.095068e-002
1.479158e+003,1.076803e-002
1.481086e+003,1.064864e-002
1.483015e+003,1.060440e-002
1.484943e+003,1.059255e-002
1.486872e+003,1.063100e-002
1.488800e+003,1.068419e-002
1.490729e+003,1.072988e-002
1.492657e+003,1.081772e-002
1.494586e+003,1.092258e-002
1.496514e+003,1.105519e-002
1.498443e+003,1.117213e-002
1.500371e+003,1.126968e-002
1.502300e+003,1.136236e-002
1.504228e+003,1.144267e-002
1.506157e+003,1.155679e-002
1.508085e+003,1.164594e-002
1.510014e+003,1.169638e-002
1.511942e+003,1.175796e-002
1.513871e+003,1.182582e-002
1.515799e+003,1.178195e-002
1.517728e+003,1.165315e-002
1.519656e+003,1.153531e-002
1.521585e+003,1.139365e-002
1.523513e+003,1.128504e-002
1.525442e+003,1.125267e-002
1.527370e+003,1.124944e-002
1.529299e+003,1.124060e-002
1.531227e+003,1.121334e-002
1.533156e+003,1.120189e-002
1.535084e+003,1.124044e-002
1.537013e+003,1.127464e-002
1.538941e+003,1.132669e-002
1.540870e+003,1.134556e-002
1.542798e+003,1.132436e-002
1.544727e+003,1.130741e-002
1.546655e+003,1.130315e-002
1.548584e+003,1.125912e-002
1.550512e+003,1.128676e-002
1.552441e+003,1.132595e-002
1.554369e+003,1.131820e-002
1.556298e+003,1.127594e-002
1.558226e+003,1.128532e-002
1.560155e+003,1.128351e-002
1.562083e+003,1.129325e-002
1.564012e+003,1.132523e-002
1.565940e+003,1.136544e-002
1.567869e+003,1.141609e-002
1.569797e+003,1.150419e-002
1.571726e+003,1.160194e-002
1.573654e+003,1.173195e-002
1.575583e+003,1.187328e-002
1.577511e+003,1.198840e-002
1.579440e+003,1.212901e-002
1.581368e+003,1.230327e-002
1.583297e+003,1.253207e-002
1.585225e+003,1.279146e-002
1.587154e+003,1.298772e-002
1.589082e+003,1.316563e-002
1.591010e+003,1.329368e-002
1.592939e+003,1.340633e-002
1.594868e+003,1.352469e-002
1.596796e+003,1.362272e-002
1.598724e+003,1.374000e-002
1.600653e+003,1.384717e-002
1.602582e+003,1.394466e-002
1.604510e+003,1.402579e-002
1.606438e+003,1.405240e-002
1.608367e+003,1.403378e-002
1.610296e+003,1.404264e-002
1.612224e+003,1.412465e-002
1.614152e+003,1.423658e-002
1.616081e+003,1.437468e-002
1.618010e+003,1.452565e-002
1.619938e+003,1.468162e-002
1.621866e+003,1.481469e-002
1.623795e+003,1.488666e-002
1.625724e+003,1.495795e-002
1.627652e+003,1.498823e-002
1.629580e+003,1.494804e-002
1.631509e+003,1.485629e-002
1.633438e+003,1.473538e-002
1.635366e+003,1.469697e-002
1.637294e+003,1.461731e-002
1.639223e+003,1.450883e-002
1.641151e+003,1.446110e-002
1.643080e+003,1.445927e-002
1.645008e+003,1.439745e-002
1.646937e+003,1.431954e-002
1.648865e+003,1.423359e-002
1.650794e+003,1.411810e-002
1.652722e+003,1.399006e-002
1.654651e+003,1.387538e-002
1.656579e+003,1.375148e-002
1.658508e+003,1.356529e-002
1.660436e+003,1.336387e-002
1.662365e+003,1.318041e-002
1.664293e+003,1.294913e-002
1.666222e+003,1.274272e-002
1.668150e+003,1.254389e-002
1.670079e+003,1.230033e-002
1.672007e+003,1.214186e-002
1.673936e+003,1.197870e-002
1.675864e+003,1.176511e-002
1.677793e+003,1.160348e-002
1.679721e+003,1.151017e-002
1.681650e+003,1.133269e-002
1.683578e+003,1.120902e-002
1.685507e+003,1.110844e-002
1.687435e+003,1.100574e-002
1.689364e+003,1.089096e-002
1.691292e+003,1.080616e-002
1.693221e+003,1.072469e-002
1.695149e+003,1.068355e-002
1.697078e+003,1.061729e-002
1.699006e+003,1.049317e-002
1.700935e+003,1.041234e-002
1.702863e+003,1.036445e-002
1.704792e+003,1.036270e-002
1.706720e+003,1.039705e-002
1.708649e+003,1.045823e-002
1.710577e+003,1.055650e-002
1.712506e+003,1.063341e-002
1.714434e+003,1.070642e-002
1.716363e+003,1.079187e-002
1.718291e+003,1.087244e-002
1.720220e+003,1.091160e-002
1.722148e+003,1.099228e-002
1.724077e+003,1.111801e-002
1.726005e+003,1.121997e-002
1.727934e+003,1.125116e-002
1.729862e+003,1.124344e-002
1.731791e+003,1.123567e-002
1.733719e+003,1.115688e-002
1.735648e+003,1.101978e-002
1.737576e+003,1.083916e-002
1.739505e+003,1.062872e-002
1.741433e+003,1.042511e-002
1.743362e+003,1.021625e-002
1.745290e+003,1.001742e-002
1.747219e+003,9.800603e-003
1.749147e+003,9.602112e-003
1.751076e+003,9.433321e-003
1.753004e+003,9.198648e-003
1.754933e+003,9.029482e-003
1.756861e+003,8.928274e-003
1.758790e+003,8.751343e-003
1.760718e+003,8.649398e-003
1.762647e+003,8.614934e-003
1.764575e+003,8.545669e-003
1.766504e+003,8.510103e-003
1.768432e+003,8.444766e-003
1.770361e+003,8.369860e-003
1.772289e+003,8.346803e-003
1.774218e+003,8.353952e-003
1.776146e+003,8.374636e-003
1.778075e+003,8.315436e-003
1.780003e+003,8.305166e-003
1.781932e+003,8.280607e-003
1.783860e+003,8.264490e-003
1.785789e+003,8.287765e-003
1.787717e+003,8.269671e-003
1.789646e+003,8.316553e-003
1.791574e+003,8.288441e-003
1.793503e+003,8.278873e-003
1.795431e+003,8.315593e-003
1.797360e+003,8.322009e-003
1.799288e+003,8.316248e-003
1.801217e+003,8.326667e-003
1.803145e+003,8.275394e-003
1.805074e+003,8.248296e-003
1.807002e+003,8.307996e-003
1.808931e+003,8.315781e-003
1.810859e+003,8.309325e-003
1.812788e+003,8.328959e-003
1.814716e+003,8.393242e-003
1.816645e+003,8.465622e-003
1.818573e+003,8.491259e-003
1.820502e+003,8.496420e-003
1.822430e+003,8.413524e-003
1.824359e+003,8.364078e-003
1.826287e+003,8.334889e-003
1.828216e+003,8.383809e-003
1.830144e+003,8.469788e-003
1.832073e+003,8.524292e-003
1.834001e+003,8.423484e-003
1.835930e+003,8.411413e-003
1.837858e+003,8.464532e-003
1.839787e+003,8.527623e-003
1.841715e+003,8.569339e-003
1.843644e+003,8.600737e-003
1.845572e+003,8.641918e-003
1.847501e+003,8.677782e-003
1.849429e+003,8.714007e-003
1.851358e+003,8.687628e-003
1.853286e+003,8.696116e-003
1.855215e+003,8.635712e-003
1.857143e+003,8.601040e-003
1.859072e+003,8.764316e-003
1.861000e+003,8.876426e-003
1.862929e+003,8.852020e-003
1.864857e+003,8.910784e-003
1.866786e+003,8.911170e-003
1.868714e+003,8.856095e-003
1.870643e+003,8.883268e-003
1.872571e+003,9.036472e-003
1.874500e+003,8.973401e-003
1.876428e+003,8.783683e-003
1.878357e+003,8.869497e-003
1.880285e+003,9.048345e-003
1.882214e+003,9.238884e-003
1.884142e+003,9.309104e-003
1.886071e+003,9.202530e-003
1.887999e+003,9.308866e-003
1.889928e+003,9.320185e-003
1.891856e+003,9.164622e-003
1.893785e+003,9.246304e-003
1.895713e+003,9.136240e-003
1.897642e+003,9.032918e-003
1.899570e+003,9.202559e-003
1.901499e+003,9.251993e-003
1.903427e+003,9.286835e-003
1.905356e+003,9.255802e-003
1.907284e+003,9.337565e-003
1.909213e+003,9.502283e-003
1.911141e+003,9.544907e-003
1.913070e+003,9.517012e-003
1.914998e+003,9.439560e-003
1.916927e+003,9.238929e-003
1.918855e+003,9.162053e-003
1.920784e+003,9.502225e-003
1.922712e+003,9.783702e-003
1.924641e+003,9.731091e-003
1.926569e+003,9.665046e-003
1.928498e+003,9.688065e-003
1.930426e+003,9.731529e-003
1.932355e+003,9.813281e-003
1.934283e+003,1.004092e-002
1.936212e+003,1.008882e-002
1.938140e+003,1.000276e-002
1.940069e+003,1.010728e-002
1.941997e+003,1.032091e-002
1.943926e+003,1.046171e-002
1.945854e+003,1.048597e-002
1.947783e+003,1.065501e-002
1.949711e+003,1.105334e-002
1.951640e+003,1.083406e-002
1.953568e+003,1.098219e-002
1.955497e+003,1.143078e-002
1.957425e+003,1.152281e-002
1.959354e+003,1.219081e-002
1.961282e+003,1.290463e-002
1.963211e+003,1.343467e-002
1.965139e+003,1.274616e-002
1.967068e+003,1.240673e-002
1.968996e+003,1.261251e-002
1.970925e+003,1.295130e-002
1.972853e+003,1.288162e-002
1.974782e+003,1.220491e-002
1.976710e+003,1.267376e-002
1.978639e+003,1.355930e-002
1.980567e+003,1.306439e-002
1.982496e+003,1.255751e-002
1.984424e+003,1.188517e-002
1.986353e+003,1.173401e-002
1.988281e+003,1.172674e-002
1.990210e+003,1.142103e-002
1.992138e+003,1.152138e-002
1.994067e+003,1.121029e-002
1.995995e+003,1.106616e-002
1.997924e+003,1.133690e-002
1.999852e+003,1.100233e-002
2.001781e+003,1.133778e-002
2.003709e+003,1.197837e-002
2.005638e+003,1.214394e-002
2.007566e+003,1.149817e-002
2.009495e+003,1.130704e-002
2.011423e+003,1.149415e-002
2.013352e+003,1.178852e-002
2.015280e+003,1.155650e-002
2.017208e+003,1.204029e-002
2.019137e+003,1.162694e-002
2.021066e+003,1.147965e-002
2.022994e+003,1.185927e-002
2.024922e+003,1.138405e-002
2.026851e+003,1.163555e-002
2.028780e+003,1.193042e-002
2.030708e+003,1.164116e-002
2.032636e+003,1.109080e-002
2.034565e+003,1.173688e-002
2.036494e+003,1.168132e-002
2.038422e+003,1.150696e-002
2.040350e+003,1.129032e-002
2.042279e+003,1.045936e-002
2.044208e+003,1.029957e-002
2.046136e+003,1.006238e-002
2.048064e+003,9.516583e-003
2.049993e+003,9.882421e-003
2.051921e+003,9.771866e-003
2.053850e+003,9.652728e-003
2.055778e+003,9.936186e-003
2.057707e+003,9.791991e-003
2.059635e+003,9.435846e-003
2.061564e+003,9.829886e-003
2.063492e+003,9.929052e-003
2.065421e+003,9.473777e-003
2.067349e+003,9.286307e-003
2.069278e+003,9.165755e-003
2.071206e+003,9.248942e-003
2.073135e+003,9.336513e-003
2.075063e+003,9.318521e-003
2.076992e+003,9.223272e-003
2.078920e+003,8.987463e-003
2.080849e+003,8.957220e-003
2.082777e+003,9.233516e-003
2.084706e+003,9.346567e-003
2.086634e+003,9.627875e-003
2.088563e+003,9.267434e-003
2.090491e+003,9.099553e-003
2.092420e+003,9.384053e-003
2.094348e+003,9.485185e-003
2.096277e+003,9.367624e-003
2.098205e+003,9.202511e-003
2.100134e+003,8.800805e-003
2.102062e+003,9.031838e-003
2.103991e+003,9.030112e-003
2.105919e+003,9.119738e-003
2.107848e+003,9.362960e-003
2.109776e+003,9.290548e-003
2.111705e+003,9.271219e-003
2.113633e+003,9.220077e-003
2.115562e+003,9.236627e-003
2.117490e+003,9.130160e-003
2.119419e+003,9.159397e-003
2.121347e+003,9.110433e-003
2.123276e+003,9.365702e-003
2.125204e+003,9.413138e-003
2.127133e+003,9.387574e-003
2.129061e+003,9.722051e-003
2.130990e+003,1.013574e-002
2.132918e+003,1.024072e-002
2.134847e+003,1.011345e-002
2.136775e+003,1.006242e-002
2.138704e+003,1.028533e-002
2.140632e+003,1.061388e-002
2.142561e+003,1.106968e-002
2.144489e+003,1.160163e-002
2.146418e+003,1.161337e-002
2.148346e+003,1.195318e-002
2.150275e+003,1.239600e-002
2.152203e+003,1.261319e-002
2.154132e+003,1.312744e-002
2.156060e+003,1.380135e-002
2.157989e+003,1.483029e-002
2.159917e+003,1.490096e-002
2.161846e+003,1.425722e-002
2.163774e+003,1.352972e-002
2.165703e+003,1.343508e-002
2.167631e+003,1.316525e-002
2.169560e+003,1.194933e-002
2.171488e+003,1.150779e-002
2.173417e+003,1.249986e-002
2.175345e+003,1.246208e-002
2.177274e+003,1.222226e-002
2.179202e+003,1.239470e-002
2.181131e+003,1.280432e-002
2.183059e+003,1.274109e-002
2.184988e+003,1.243848e-002
2.186916e+003,1.205912e-002
2.188845e+003,1.249212e-002
2.190773e+003,1.245161e-002
2.192702e+003,1.173366e-002
2.194630e+003,1.119029e-002
2.196559e+003,1.155437e-002
2.198487e+003,1.167688e-002
2.200416e+003,1.152436e-002
2.202344e+003,1.134233e-002
2.204273e+003,1.113253e-002
2.206201e+003,1.060237e-002
2.208130e+003,1.049638e-002
2.210058e+003,1.040736e-002
2.211987e+003,1.085682e-002
2.213915e+003,1.076517e-002
2.215844e+003,1.019252e-002
2.217772e+003,9.649139e-003
2.219701e+003,1.002912e-002
2.221629e+003,1.006791e-002
2.223558e+003,9.892115e-003
2.225486e+003,9.504603e-003
2.227415e+003,9.616176e-003
2.229343e+003,9.945439e-003
2.231272e+003,1.005686e-002
2.233200e+003,9.978382e-003
2.235129e+003,9.772223e-003
2.237057e+003,9.929163e-003
2.238986e+003,1.004113e-002
2.240914e+003,9.739912e-003
2.242843e+003,9.531397e-003
2.244771e+003,9.554042e-003
2.246700e+003,9.463978e-003
2.248628e+003,9.543706e-003
2.250557e+003,9.623609e-003
2.252485e+003,9.557550e-003
2.254414e+003,9.664749e-003
2.256342e+003,9.835348e-003
2.258271e+003,9.914503e-003
2.260199e+003,9.663219e-003
2.262128e+003,9.573204e-003
2.264056e+003,9.459849e-003
2.265985e+003,9.638330e-003
2.267913e+003,9.787588e-003
2.269842e+003,9.781318e-003
2.271770e+003,9.609556e-003
2.273699e+003,9.507027e-003
2.275627e+003,9.330567e-003
2.277556e+003,9.095034e-003
2.279484e+003,9.495576e-003
2.281413e+003,9.693380e-003
2.283341e+003,9.484525e-003
2.285270e+003,9.325624e-003
2.287198e+003,9.259589e-003
2.289127e+003,9.373871e-003
2.291055e+003,9.489064e-003
2.292984e+003,9.490560e-003
2.294912e+003,9.520908e-003
2.296841e+003,9.411934e-003
2.298769e+003,9.181245e-003
2.300698e+003,9.121967e-003
2.302626e+003,9.222190e-003
2.304555e+003,9.391557e-003
2.306483e+003,9.344321e-003
2.308412e+003,9.242980e-003
2.310340e+003,9.172770e-003
2.312269e+003,9.121216e-003
2.314197e+003,9.121062e-003
2.316125e+003,8.906421e-003
2.318054e+003,8.642268e-003
2.319983e+003,8.760883e-003
2.321911e+003,8.823032e-003
2.323840e+003,8.747705e-003
2.325768e+003,8.764718e-003
2.327697e+003,8.713271e-003
2.329625e+003,8.673410e-003
2.331553e+003,8.713293e-003
2.333482e+003,8.480061e-003
2.335411e+003,8.469534e-003
2.337339e+003,8.621954e-003
2.339268e+003,8.833011e-003
2.341196e+003,8.862650e-003
2.343125e+003,8.724637e-003
2.345053e+003,8.646591e-003
2.346981e+003,8.721699e-003
2.348910e+003,8.791550e-003
2.350839e+003,8.870095e-003
2.352767e+003,8.921039e-003
2.354696e+003,8.875455e-003
2.356624e+003,8.935216e-003
2.358552e+003,9.215744e-003
2.360481e+003,9.081405e-003
2.362409e+003,8.984879e-003
2.364338e+003,9.472315e-003
2.366267e+003,9.667601e-003
2.368195e+003,9.302332e-003
2.370124e+003,9.271434e-003
2.372052e+003,9.526189e-003
2.373980e+003,9.598136e-003
2.375909e+003,9.466462e-003
2.377838e+003,9.245146e-003
2.379766e+003,9.383563e-003
2.381695e+003,9.398004e-003
2.383623e+003,9.322671e-003
2.385552e+003,9.207545e-003
2.387480e+003,9.099826e-003
2.389408e+003,9.151366e-003
2.391337e+003,9.125006e-003
2.393266e+003,9.025925e-003
2.395194e+003,8.919212e-003
2.397123e+003,8.868688e-003
2.399051e+003,8.972511e-003
2.400979e+003,8.940742e-003
2.402908e+003,8.935263e-003
2.404836e+003,8.892952e-003
2.406765e+003,8.833942e-003
2.408694e+003,8.822681e-003
2.410622e+003,8.724700e-003
2.412551e+003,8.698466e-003
2.414479e+003,8.960969e-003
2.416407e+003,9.017562e-003
2.418336e+003,8.873676e-003
2.420264e+003,8.812030e-003
2.422193e+003,8.865526e-003
2.424122e+003,8.937867e-003
2.426050e+003,8.888184e-003
2.427979e+003,8.824643e-003
2.429907e+003,8.831676e-003
2.431835e+003,8.840671e-003
2.433764e+003,9.011405e-003
2.435692e+003,8.991243e-003
2.437621e+003,8.830932e-003
2.439550e+003,8.871613e-003
2.441478e+003,8.970643e-003
2.443406e+003,8.918893e-003
2.445335e+003,8.852912e-003
2.447263e+003,8.792859e-003
2.449192e+003,8.880541e-003
2.451121e+003,8.827855e-003
2.453049e+003,8.939559e-003
2.454978e+003,9.116151e-003
2.456906e+003,9.139465e-003
2.458834e+003,9.174760e-003
2.460763e+003,9.052339e-003
2.462691e+003,8.928160e-003
2.464620e+003,9.001189e-003
2.466549e+003,8.910911e-003
2.468477e+003,8.864309e-003
2.470406e+003,9.042190e-003
2.472334e+003,9.160616e-003
2.474262e+003,9.048449e-003
2.476191e+003,8.969696e-003
2.478119e+003,8.930596e-003
2.480048e+003,8.972064e-003
2.481977e+003,9.018610e-003
2.483905e+003,9.000546e-003
2.485833e+003,9.017156e-003
2.487762e+003,8.951465e-003
2.489690e+003,8.832184e-003
2.491619e+003,8.940912e-003
2.493547e+003,9.004064e-003
2.495476e+003,9.044152e-003
2.497405e+003,9.041209e-003
2.499333e+003,8.942366e-003
2.501261e+003,8.777305e-003
2.503190e+003,8.729398e-003
2.505118e+003,8.781059e-003
2.507047e+003,8.794312e-003
2.508975e+003,8.713645e-003
2.510904e+003,8.730480e-003
2.512833e+003,8.807364e-003
2.514761e+003,8.792216e-003
2.516689e+003,8.746133e-003
2.518618e+003,8.680347e-003
2.520546e+003,8.786975e-003
2.522475e+003,8.821634e-003
2.524403e+003,8.741096e-003
2.526332e+003,8.530187e-003
2.528260e+003,8.512988e-003
2.530189e+003,8.689474e-003
2.532117e+003,8.835869e-003
2.534046e+003,8.728857e-003
2.535974e+003,8.625692e-003
2.537903e+003,8.731258e-003
2.539831e+003,8.769259e-003
2.541760e+003,8.783763e-003
2.543688e+003,8.727438e-003
2.545617e+003,8.630795e-003
2.547545e+003,8.692889e-003
2.549474e+003,8.688731e-003
2.551402e+003,8.716180e-003
2.553331e+003,8.579525e-003
2.555259e+003,8.648033e-003
2.557188e+003,8.655165e-003
2.559116e+003,8.570840e-003
2.561045e+003,8.492512e-003
2.562973e+003,8.557694e-003
2.564902e+003,8.643470e-003
2.566830e+003,8.683390e-003
2.568759e+003,8.611733e-003
2.570687e+003,8.532282e-003
2.572616e+003,8.554585e-003
2.574544e+003,8.539750e-003
2.576473e+003,8.628057e-003
2.578401e+003,8.593821e-003
2.580330e+003,8.506737e-003
2.582258e+003,8.459670e-003
2.584187e+003,8.412407e-003
2.586115e+003,8.377748e-003
2.588044e+003,8.417170e-003
2.589972e+003,8.429805e-003
2.591901e+003,8.559518e-003
2.593829e+003,8.616194e-003
2.595758e+003,8.570840e-003
2.597686e+003,8.475111e-003
2.599615e+003,8.448792e-003
2.601543e+003,8.496769e-003
2.603472e+003,8.550429e-003
2.605400e+003,8.544143e-003
2.607329e+003,8.505959e-003
2.609257e+003,8.514306e-003
2.611186e+003,8.554990e-003
2.613114e+003,8.580945e-003
2.615043e+003,8.591962e-003
2.616971e+003,8.666083e-003
2.618900e+003,8.722738e-003
2.620828e+003,8.634209e-003
2.622757e+003,8.650095e-003
2.624685e+003,8.704145e-003
2.626614e+003,8.744611e-003
2.628542e+003,8.791675e-003
2.630471e+003,8.859507e-003
2.632399e+003,8.907123e-003
2.634328e+003,8.937732e-003
2.636256e+003,8.966043e-003
2.638185e+003,8.956335e-003
2.640113e+003,8.954847e-003
2.642042e+003,9.078865e-003
2.643970e+003,9.057313e-003
2.645899e+003,8.981907e-003
2.647827e+003,9.015295e-003
2.649756e+003,9.123798e-003
2.651684e+003,9.153136e-003
2.653613e+003,9.157705e-003
2.655541e+003,9.138958e-003
2.657470e+003,9.129212e-003
2.659398e+003,9.157130e-003
2.661327e+003,9.184710e-003
2.663255e+003,9.199635e-003
2.665184e+003,9.166402e-003
2.667112e+003,9.252941e-003
2.669041e+003,9.283947e-003
2.670969e+003,9.236797e-003
2.672898e+003,9.220415e-003
2.674826e+003,9.239572e-003
2.676755e+003,9.262486e-003
2.678683e+003,9.234393e-003
2.680612e+003,9.229993e-003
2.682540e+003,9.245664e-003
2.684469e+003,9.292782e-003
2.686397e+003,9.319626e-003
2.688326e+003,9.285910e-003
2.690254e+003,9.310317e-003
2.692183e+003,9.383579e-003
2.694111e+003,9.406501e-003
2.696040e+003,9.378602e-003
2.697968e+003,9.349079e-003
2.699897e+003,9.355613e-003
2.701825e+003,9.417742e-003
2.703754e+003,9.458411e-003
2.705682e+003,9.433861e-003
2.707611e+003,9.459292e-003
2.709539e+003,9.451571e-003
2.711468e+003,9.497728e-003
2.713396e+003,9.515001e-003
2.715325e+003,9.541452e-003
2.717253e+003,9.548429e-003
2.719182e+003,9.539996e-003
2.721110e+003,9.511987e-003
2.723039e+003,9.537321e-003
2.724967e+003,9.544670e-003
2.726896e+003,9.521740e-003
2.728824e+003,9.530411e-003
2.730753e+003,9.535152e-003
2.732681e+003,9.591549e-003
2.734610e+003,9.644464e-003
2.736538e+003,9.680578e-003
2.738467e+003,9.652899e-003
2.740395e+003,9.622071e-003
2.742324e+003,9.652357e-003
2.744252e+003,9.691861e-003
2.746181e+003,9.706837e-003
2.748109e+003,9.739604e-003
2.750038e+003,9.766136e-003
2.751966e+003,9.793621e-003
2.753895e+003,9.748109e-003
2.755823e+003,9.675835e-003
2.757752e+003,9.672482e-003
2.759680e+003,9.737706e-003
2.761609e+003,9.750278e-003
2.763537e+003,9.720865e-003
2.765466e+003,9.741399e-003
2.767394e+003,9.761223e-003
2.769323e+003,9.764070e-003
2.771251e+003,9.796365e-003
2.773180e+003,9.808904e-003
2.775108e+003,9.826562e-003
2.777037e+003,9.888725e-003
2.778965e+003,9.885606e-003
2.780894e+003,9.882488e-003
2.782822e+003,9.866795e-003
2.784750e+003,9.849542e-003
2.786679e+003,9.859507e-003
2.788608e+003,9.901742e-003
2.790536e+003,9.916658e-003
2.792465e+003,9.950863e-003
2.794393e+003,9.936421e-003
2.796322e+003,9.962322e-003
2.798250e+003,1.001823e-002
2.800178e+003,1.000555e-002
2.802107e+003,1.000996e-002
2.804036e+003,1.005072e-002
2.805964e+003,1.003705e-002
2.807893e+003,1.003990e-002
2.809821e+003,1.009555e-002
2.811750e+003,1.016260e-002
2.813678e+003,1.012766e-002
2.815606e+003,1.011749e-002
2.817535e+003,1.015565e-002
2.819464e+003,1.016572e-002
2.821392e+003,1.018777e-002
2.823321e+003,1.023668e-002
2.825249e+003,1.028221e-002
2.827177e+003,1.032228e-002
2.829106e+003,1.035381e-002
2.831034e+003,1.036175e-002
2.832963e+003,1.043658e-002
2.834892e+003,1.048172e-002
2.836820e+003,1.050596e-002
2.838749e+003,1.057820e-002
2.840677e+003,1.060485e-002
2.842605e+003,1.065955e-002
2.844534e+003,1.077428e-002
2.846462e+003,1.090904e-002
2.848391e+003,1.095440e-002
2.850320e+003,1.098886e-002
2.852248e+003,1.105241e-002
2.854177e+003,1.107247e-002
2.856105e+003,1.109432e-002
2.858033e+003,1.110391e-002
2.859962e+003,1.112226e-002
2.861890e+003,1.119553e-002
2.863819e+003,1.121967e-002
2.865748e+003,1.125425e-002
2.867676e+003,1.124809e-002
2.869604e+003,1.122558e-002
2.871533e+003,1.122007e-002
2.873461e+003,1.119308e-002
2.875390e+003,1.128468e-002
2.877319e+003,1.133219e-002
2.879247e+003,1.135505e-002
2.881176e+003,1.137494e-002
2.883104e+003,1.134409e-002
2.885032e+003,1.135807e-002
2.886961e+003,1.139277e-002
2.888889e+003,1.149064e-002
2.890818e+003,1.151377e-002
2.892747e+003,1.153555e-002
2.894675e+003,1.153579e-002
2.896604e+003,1.150517e-002
2.898532e+003,1.146056e-002
2.900460e+003,1.141733e-002
2.902389e+003,1.141100e-002
2.904317e+003,1.140079e-002
2.906246e+003,1.137644e-002
2.908175e+003,1.138698e-002
2.910103e+003,1.140773e-002
2.912031e+003,1.144491e-002
2.913960e+003,1.147114e-002
2.915888e+003,1.149891e-002
2.917817e+003,1.143437e-002
2.919745e+003,1.146029e-002
2.921674e+003,1.143450e-002
2.923603e+003,1.139059e-002
2.925531e+003,1.135960e-002
2.927459e+003,1.128182e-002
2.929388e+003,1.118798e-002
2.931316e+003,1.106747e-002
2.933245e+003,1.098013e-002
2.935173e+003,1.099490e-002
2.937102e+003,1.099939e-002
2.939031e+003,1.098701e-002
2.940959e+003,1.095796e-002
2.942887e+003,1.088145e-002
2.944816e+003,1.078155e-002
2.946744e+003,1.067143e-002
2.948673e+003,1.061152e-002
2.950601e+003,1.056562e-002
2.952530e+003,1.057626e-002
2.954458e+003,1.053998e-002
2.956387e+003,1.048381e-002
2.958315e+003,1.039758e-002
2.960244e+003,1.033814e-002
2.962172e+003,1.029647e-002
2.964101e+003,1.020191e-002
2.966029e+003,1.015150e-002
2.967958e+003,1.007374e-002
2.969886e+003,1.011043e-002
2.971815e+003,1.017042e-002
2.973743e+003,1.006627e-002
2.975672e+003,1.001666e-002
2.977600e+003,1.004248e-002
2.979529e+003,1.000084e-002
2.981457e+003,9.879244e-003
2.983386e+003,9.843356e-003
2.985314e+003,9.853463e-003
2.987243e+003,9.859138e-003
2.989171e+003,9.855597e-003
2.991100e+003,9.843291e-003
2.993028e+003,9.824209e-003
2.994957e+003,9.827878e-003
2.996885e+003,9.823811e-003
2.998814e+003,9.820129e-003
3.000742e+003,9.849086e-003
3.002671e+003,9.875136e-003
3.004599e+003,9.874715e-003
3.006528e+003,9.849546e-003
3.008456e+003,9.874146e-003
3.010385e+003,9.897502e-003
3.012313e+003,9.908946e-003
3.014242e+003,9.939404e-003
3.016170e+003,9.943997e-003
3.018099e+003,9.937008e-003
3.020027e+003,1.001126e-002
3.021956e+003,9.951154e-003
3.023884e+003,9.911855e-003
3.025813e+003,9.938226e-003
3.027741e+003,1.000027e-002
3.029670e+003,1.004940e-002
3.031598e+003,9.997051e-003
3.033527e+003,1.005033e-002
3.035455e+003,1.009288e-002
3.037384e+003,1.006794e-002
3.039312e+003,1.008902e-002
3.041241e+003,1.014429e-002
3.043169e+003,1.015292e-002
3.045098e+003,1.016993e-002
3.047026e+003,1.022444e-002
3.048955e+003,1.023328e-002
3.050883e+003,1.024466e-002
3.052812e+003,1.023836e-002
3.054740e+003,1.026418e-002
3.056669e+003,1.034207e-002
3.058597e+003,1.034503e-002
3.060526e+003,1.032070e-002
3.062454e+003,1.036005e-002
3.064383e+003,1.043269e-002
3.066311e+003,1.054567e-002
3.068240e+003,1.057535e-002
3.070168e+003,1.051397e-002
3.072097e+003,1.050048e-002
3.074025e+003,1.046578e-002
3.075954e+003,1.043179e-002
3.077882e+003,1.053300e-002
3.079811e+003,1.064532e-002
3.081739e+003,1.061655e-002
3.083668e+003,1.064556e-002
3.085596e+003,1.073221e-002
3.087525e+003,1.069041e-002
3.089453e+003,1.069838e-002
3.091382e+003,1.066308e-002
3.093310e+003,1.061710e-002
3.095239e+003,1.076122e-002
3.097167e+003,1.088690e-002
3.099096e+003,1.087347e-002
3.101024e+003,1.087983e-002
3.102953e+003,1.091889e-002
3.104881e+003,1.094877e-002
3.106810e+003,1.097126e-002
3.108738e+003,1.100199e-002
3.110667e+003,1.099448e-002
3.112595e+003,1.106532e-002
3.114524e+003,1.110782e-002
3.116452e+003,1.116855e-002
3.118381e+003,1.113018e-002
3.120309e+003,1.116061e-002
3.122238e+003,1.118398e-002
3.124166e+003,1.126365e-002
3.126095e+003,1.131956e-002
3.128023e+003,1.133127e-002
3.129952e+003,1.133364e-002
3.131880e+003,1.142359e-002
3.133809e+003,1.149315e-002
3.135737e+003,1.150700e-002
3.137666e+003,1.148804e-002
3.139594e+003,1.145850e-002
3.141523e+003,1.158889e-002
3.143451e+003,1.173539e-002
3.145380e+003,1.168096e-002
3.147308e+003,1.172155e-002
3.149237e+003,1.180688e-002
3.151165e+003,1.178526e-002
3.153094e+003,1.177799e-002
3.155022e+003,1.182056e-002
3.156951e+003,1.190244e-002
3.158879e+003,1.201974e-002
3.160808e+003,1.204376e-002
3.162736e+003,1.202668e-002
3.164665e+003,1.207405e-002
3.166593e+003,1.203563e-002
3.168522e+003,1.202100e-002
3.170450e+003,1.211675e-002
3.172379e+003,1.217028e-002
3.174307e+003,1.228941e-002
3.176236e+003,1.230989e-002
3.178164e+003,1.233176e-002
3.180093e+003,1.235079e-002
3.182021e+003,1.238112e-002
3.183950e+003,1.244667e-002
3.185878e+003,1.247555e-002
3.187807e+003,1.246580e-002
3.189735e+003,1.257565e-002
3.191664e+003,1.268977e-002
3.193592e+003,1.274074e-002
3.195521e+003,1.274052e-002
3.197449e+003,1.276564e-002
3.199378e+003,1.286927e-002
3.201306e+003,1.292593e-002
3.203235e+003,1.289043e-002
3.205163e+003,1.296811e-002
3.207092e+003,1.304301e-002
3.209020e+003,1.301835e-002
3.210948e+003,1.312652e-002
3.212877e+003,1.317576e-002
3.214806e+003,1.322091e-002
3.216734e+003,1.324351e-002
3.218663e+003,1.317146e-002
3.220591e+003,1.328924e-002
3.222520e+003,1.344989e-002
3.224448e+003,1.352897e-002
3.226376e+003,1.350813e-002
3.228305e+003,1.357689e-002
3.230234e+003,1.369156e-002
3.232162e+003,1.376862e-002
3.234091e+003,1.373828e-002
3.236019e+003,1.373824e-002
3.237948e+003,1.385810e-002
3.239876e+003,1.390354e-002
3.241804e+003,1.391671e-002
3.243733e+003,1.392575e-002
3.245662e+003,1.401398e-002
3.247590e+003,1.408213e-002
3.249519e+003,1.421749e-002
3.251447e+003,1.430177e-002
3.253375e+003,1.429922e-002
3.255304e+003,1.434050e-002
3.257232e+003,1.439699e-002
3.259161e+003,1.441658e-002
3.261090e+003,1.449275e-002
3.263018e+003,1.455070e-002
3.264947e+003,1.459182e-002
3.266875e+003,1.467506e-002
3.268803e+003,1.472565e-002
3.270732e+003,1.476345e-002
3.272660e+003,1.482799e-002
3.274589e+003,1.492568e-002
3.276518e+003,1.493019e-002
3.278446e+003,1.485678e-002
3.280375e+003,1.489344e-002
3.282303e+003,1.496749e-002
3.284231e+003,1.499048e-002
3.286160e+003,1.505132e-002
3.288088e+003,1.505821e-002
3.290017e+003,1.506309e-002
3.291946e+003,1.501977e-002
3.293874e+003,1.505761e-002
3.295802e+003,1.516126e-002
3.297731e+003,1.516386e-002
3.299659e+003,1.515536e-002
3.301588e+003,1.508312e-002
3.303516e+003,1.508541e-002
3.305445e+003,1.517293e-002
3.307374e+003,1.520514e-002
3.309302e+003,1.523662e-002
3.311230e+003,1.519932e-002
3.313159e+003,1.519744e-002
3.315087e+003,1.525222e-002
3.317016e+003,1.526914e-002
3.318944e+003,1.531212e-002
3.320873e+003,1.537301e-002
3.322802e+003,1.534336e-002
3.324730e+003,1.536059e-002
3.326658e+003,1.547862e-002
3.328587e+003,1.549024e-002
3.330515e+003,1.545742e-002
3.332444e+003,1.543730e-002
3.334372e+003,1.541047e-002
3.336301e+003,1.543537e-002
3.338229e+003,1.545283e-002
3.340158e+003,1.551250e-002
3.342086e+003,1.544802e-002
3.344015e+003,1.537936e-002
3.345943e+003,1.539241e-002
3.347872e+003,1.540120e-002
3.349800e+003,1.530415e-002
3.351729e+003,1.526923e-002
3.353657e+003,1.522377e-002
3.355586e+003,1.521428e-002
3.357514e+003,1.510006e-002
3.359443e+003,1.510465e-002
3.361371e+003,1.510113e-002
3.363300e+003,1.510884e-002
3.365229e+003,1.502849e-002
3.367157e+003,1.501496e-002
3.369085e+003,1.501371e-002
3.371014e+003,1.499316e-002
3.372942e+003,1.497999e-002
3.374871e+003,1.491351e-002
3.376799e+003,1.487436e-002
3.378728e+003,1.486340e-002
3.380656e+003,1.486957e-002
3.382585e+003,1.484701e-002
3.384513e+003,1.476116e-002
3.386442e+003,1.476325e-002
3.388370e+003,1.469128e-002
3.390299e+003,1.461377e-002
3.392227e+003,1.462063e-002
3.394156e+003,1.462436e-002
3.396084e+003,1.453282e-002
3.398013e+003,1.446322e-002
3.399941e+003,1.447646e-002
3.401870e+003,1.447046e-002
3.403798e+003,1.438218e-002
3.405727e+003,1.430651e-002
3.407655e+003,1.424486e-002
3.409584e+003,1.420833e-002
3.411512e+003,1.419237e-002
3.413441e+003,1.414089e-002
3.415369e+003,1.409694e-002
3.417298e+003,1.398595e-002
3.419226e+003,1.389217e-002
3.421155e+003,1.383792e-002
3.423083e+003,1.379328e-002
3.425012e+003,1.372006e-002
3.426940e+003,1.365529e-002
3.428869e+003,1.356869e-002
3.430797e+003,1.347554e-002
3.432726e+003,1.340415e-002
3.434654e+003,1.334965e-002
3.436583e+003,1.329563e-002
3.438511e+003,1.316374e-002
3.440440e+003,1.308144e-002
3.442368e+003,1.302623e-002
3.444297e+003,1.294467e-002
3.446225e+003,1.292436e-002
3.448154e+003,1.284678e-002
3.450082e+003,1.272738e-002
3.452011e+003,1.263755e-002
3.453939e+003,1.260033e-002
3.455868e+003,1.257322e-002
3.457796e+003,1.242351e-002
3.459725e+003,1.233821e-002
3.461653e+003,1.227318e-002
3.463582e+003,1.215993e-002
3.465510e+003,1.210916e-002
3.467439e+003,1.213359e-002
3.469367e+003,1.200362e-002
3.471296e+003,1.185323e-002
3.473224e+003,1.183318e-002
3.475153e+003,1.178782e-002
3.477081e+003,1.174214e-002
3.479010e+003,1.167549e-002
3.480938e+003,1.147383e-002
3.482867e+003,1.140631e-002
3.484795e+003,1.140086e-002
3.486724e+003,1.125299e-002
3.488652e+003,1.114871e-002
3.490581e+003,1.113464e-002
3.492509e+003,1.110595e-002
3.494438e+003,1.102641e-002
3.496366e+003,1.096184e-002
3.498295e+003,1.096915e-002
3.500223e+003,1.085308e-002
3.502152e+003,1.077767e-002
3.504080e+003,1.078015e-002
3.506009e+003,1.077458e-002
3.507937e+003,1.065531e-002
3.509866e+003,1.055610e-002
3.511794e+003,1.045884e-002
3.513723e+003,1.038234e-002
3.515651e+003,1.039059e-002
3.517580e+003,1.024309e-002
3.519508e+003,1.017573e-002
3.521437e+003,1.026905e-002
3.523365e+003,1.014537e-002
3.525294e+003,1.006706e-002
3.527222e+003,9.975409e-003
3.529151e+003,9.847881e-003
3.531079e+003,9.894793e-003
3.533008e+003,9.882759e-003
3.534936e+003,9.806092e-003
3.536865e+003,9.823614e-003
3.538793e+003,9.800399e-003
3.540722e+003,9.699316e-003
3.542650e+003,9.599713e-003
3.544579e+003,9.595918e-003
3.546507e+003,9.572411e-003
3.548436e+003,9.458750e-003
3.550364e+003,9.365330e-003
3.552293e+003,9.276906e-003
3.554221e+003,9.217233e-003
3.556150e+003,9.236188e-003
3.558078e+003,9.093515e-003
3.560007e+003,9.021215e-003
3.561935e+003,8.955557e-003
3.563864e+003,8.857951e-003
3.565792e+003,8.778083e-003
3.567721e+003,8.810914e-003
3.569649e+003,8.739845e-003
3.571578e+003,8.683863e-003
3.573506e+003,8.627010e-003
3.575435e+003,8.504033e-003
3.577363e+003,8.477475e-003
3.579292e+003,8.417373e-003
3.581220e+003,8.271930e-003
3.583149e+003,8.179339e-003
3.585077e+003,8.062936e-003
3.587006e+003,7.965193e-003
3.588934e+003,7.790721e-003
3.590863e+003,7.573496e-003
3.592791e+003,7.392575e-003
3.594720e+003,7.373263e-003
3.596648e+003,7.302698e-003
3.598577e+003,7.143178e-003
3.600505e+003,7.134453e-003
3.602434e+003,7.171742e-003
3.604362e+003,7.230123e-003
3.606291e+003,7.417684e-003
3.608219e+003,7.585060e-003
3.610148e+003,7.846891e-003
3.612076e+003,7.859104e-003
3.614005e+003,7.650512e-003
3.615933e+003,7.342866e-003
3.617862e+003,7.164870e-003
3.619790e+003,7.068305e-003
3.621719e+003,6.890254e-003
3.623647e+003,6.732601e-003
3.625576e+003,6.588192e-003
3.627504e+003,6.654166e-003
3.629433e+003,6.702417e-003
3.631361e+003,6.793616e-003
3.633290e+003,6.901161e-003
3.635218e+003,6.945197e-003
3.637146e+003,7.158807e-003
3.639075e+003,7.304956e-003
3.641004e+003,7.379430e-003
3.642932e+003,7.409527e-003
3.644861e+003,7.393248e-003
3.646789e+003,7.438244e-003
3.648718e+003,7.528452e-003
3.650646e+003,7.517091e-003
3.652574e+003,7.449705e-003
3.654503e+003,7.473772e-003
3.656432e+003,7.507247e-003
3.658360e+003,7.407674e-003
3.660289e+003,7.381823e-003
3.662217e+003,7.416302e-003
3.664146e+003,7.410606e-003
3.666074e+003,7.376262e-003
3.668002e+003,7.173089e-003
3.669931e+003,7.163691e-003
3.671860e+003,7.149544e-003
3.673788e+003,7.050221e-003
3.675717e+003,6.969371e-003
3.677645e+003,7.104780e-003
3.679573e+003,7.127818e-003
3.681502e+003,6.905134e-003
3.683430e+003,6.733678e-003
3.685359e+003,6.693567e-003
3.687288e+003,6.617595e-003
3.689216e+003,6.477865e-003
3.691145e+003,6.473291e-003
3.693073e+003,6.335692e-003
3.695001e+003,6.166276e-003
3.696930e+003,6.112137e-003
3.698858e+003,5.941027e-003
3.700787e+003,5.764377e-003
3.702716e+003,5.659698e-003
3.704644e+003,5.777439e-003
3.706573e+003,5.856891e-003
3.708501e+003,6.004585e-003
3.710429e+003,6.255749e-003
3.712358e+003,6.621665e-003
3.714286e+003,6.901767e-003
3.716215e+003,6.701508e-003
3.718144e+003,6.326279e-003
3.720072e+003,6.065968e-003
3.722000e+003,5.787512e-003
3.723929e+003,5.542861e-003
3.725857e+003,5.393110e-003
3.727786e+003,5.295261e-003
3.729714e+003,5.304921e-003
3.731643e+003,5.409650e-003
3.733572e+003,5.653555e-003
3.735500e+003,5.922183e-003
3.737428e+003,6.158781e-003
3.739357e+003,6.382999e-003
3.741285e+003,6.650095e-003
3.743214e+003,6.868609e-003
3.745142e+003,6.908871e-003
3.747071e+003,6.972840e-003
3.749000e+003,7.073626e-003
3.750928e+003,7.166319e-003
3.752856e+003,7.125696e-003
3.754785e+003,7.149981e-003
3.756713e+003,7.262670e-003
3.758642e+003,7.236592e-003
3.760570e+003,7.245924e-003
3.762499e+003,7.259940e-003
3.764427e+003,7.304720e-003
3.766356e+003,7.311560e-003
3.768284e+003,7.224632e-003
3.770213e+003,7.109192e-003
3.772141e+003,7.137047e-003
3.774070e+003,7.221296e-003
3.775998e+003,7.245115e-003
3.777927e+003,7.229887e-003
3.779855e+003,7.209404e-003
3.781784e+003,7.202566e-003
3.783712e+003,7.157594e-003
3.785641e+003,7.279044e-003
3.787569e+003,7.288815e-003
3.789498e+003,7.292893e-003
3.791426e+003,7.253572e-003
3.793355e+003,7.264792e-003
3.795283e+003,7.235109e-003
3.797212e+003,7.217692e-003
3.799140e+003,7.216344e-003
3.801069e+003,7.238782e-003
3.802997e+003,7.230999e-003
3.804926e+003,7.336597e-003
3.806854e+003,7.324635e-003
3.808783e+003,7.174942e-003
3.810711e+003,7.211527e-003
3.812640e+003,7.281133e-003
3.814568e+003,7.294038e-003
3.816497e+003,7.337036e-003
3.818425e+003,7.320995e-003
3.820354e+003,7.257683e-003
3.822282e+003,7.270756e-003
3.824211e+003,7.302328e-003
3.826139e+003,7.253977e-003
3.828068e+003,7.275136e-003
3.829996e+003,7.375387e-003
3.831925e+003,7.391698e-003
3.833853e+003,7.374342e-003
3.835782e+003,7.350482e-003
3.837710e+003,7.277057e-003
3.839639e+003,7.267757e-003
3.841567e+003,7.337946e-003
3.843496e+003,7.355975e-003
3.845424e+003,7.336058e-003
3.847353e+003,7.281908e-003
3.849281e+003,7.296026e-003
3.851210e+003,7.395709e-003
3.853138e+003,7.379262e-003
3.855067e+003,7.303675e-003
3.856995e+003,7.384688e-003
3.858924e+003,7.451053e-003
3.860852e+003,7.431200e-003
3.862781e+003,7.449705e-003
3.864709e+003,7.473300e-003
3.866638e+003,7.436020e-003
3.868566e+003,7.454491e-003
3.870495e+003,7.489953e-003
3.872423e+003,7.525519e-003
3.874352e+003,7.556435e-003
3.876280e+003,7.498246e-003
3.878209e+003,7.451491e-003
3.880137e+003,7.493931e-003
3.882066e+003,7.465008e-003
3.883994e+003,7.416133e-003
3.885923e+003,7.441480e-003
3.887851e+003,7.441413e-003
3.889780e+003,7.502224e-003
3.891708e+003,7.625220e-003
3.893637e+003,7.598211e-003
3.895565e+003,7.530879e-003
3.897494e+003,7.540252e-003
3.899422e+003,7.504314e-003
3.901351e+003,7.494065e-003
3.903279e+003,7.482166e-003
3.905208e+003,7.527036e-003
3.907136e+003,7.491369e-003
3.909065e+003,7.442458e-003
3.910993e+003,7.443233e-003
3.912922e+003,7.508899e-003
3.914850e+003,7.567224e-003
3.916779e+003,7.492111e-003
3.918707e+003,7.501280e-003
3.920636e+003,7.534554e-003
3.922564e+003,7.550636e-003
3.924493e+003,7.582936e-003
3.926421e+003,7.587219e-003
3.928350e+003,7.605460e-003
3.930278e+003,7.608091e-003
3.932207e+003,7.577440e-003
3.934135e+003,7.501954e-003
3.936064e+003,7.495482e-003
3.937992e+003,7.556570e-003
3.939921e+003,7.489043e-003
3.941849e+003,7.457457e-003
3.943778e+003,7.486043e-003
3.945706e+003,7.535060e-003
3.947635e+003,7.522417e-003
3.949563e+003,7.504415e-003
3.951492e+003,7.562470e-003
3.953420e+003,7.569247e-003
3.955349e+003,7.531216e-003
3.957277e+003,7.579632e-003
3.959206e+003,7.584521e-003
3.961134e+003,7.554547e-003
3.963063e+003,7.556098e-003
3.964991e+003,7.518169e-003
3.966920e+003,7.450783e-003
3.968848e+003,7.487694e-003
3.970777e+003,7.564662e-003
3.972705e+003,7.608967e-003
3.974634e+003,7.600402e-003
3.976562e+003,7.487290e-003
3.978491e+003,7.484930e-003
3.980419e+003,7.491739e-003
3.982348e+003,7.505494e-003
3.984276e+003,7.591635e-003
3.986205e+003,7.595716e-003
3.988133e+003,7.518709e-003
3.990062e+003,7.454019e-003
3.991990e+003,7.456952e-003
3.993919e+003,7.565370e-003
3.995847e+003,7.558289e-003
3.997776e+003,7.481964e-003
3.999704e+003,7.481964e-003
4.001633e+003,0.000000e+000
