3.991989e+002,5.783786e-002
4.011274e+002,5.749855e-002
4.030559e+002,5.749855e-002
4.049844e+002,5.759255e-002
4.069129e+002,5.766028e-002
4.088414e+002,5.749480e-002
4.107699e+002,5.702471e-002
4.126984e+002,5.737031e-002
4.146269e+002,5.690417e-002
4.165554e+002,5.765583e-002
4.184839e+002,5.857281e-002
4.204124e+002,5.980733e-002
4.223409e+002,6.021917e-002
4.242694e+002,6.028637e-002
4.261979e+002,6.124111e-002
4.281264e+002,6.168680e-002
4.300549e+002,6.255526e-002
4.319834e+002,6.313717e-002
4.339119e+002,6.299312e-002
4.358404e+002,6.306730e-002
4.377689e+002,6.295273e-002
4.396974e+002,6.354407e-002
4.416259e+002,6.339603e-002
4.435544e+002,6.322192e-002
4.454829e+002,6.368396e-002
4.474114e+002,6.461842e-002
4.493399e+002,6.483285e-002
4.512684e+002,6.480517e-002
4.531969e+002,6.447307e-002
4.551254e+002,6.492389e-002
4.570539e+002,6.518330e-002
4.589824e+002,6.491566e-002
4.609109e+002,6.462059e-002
4.628394e+002,6.444912e-002
4.647679e+002,6.470072e-002
4.666964e+002,6.404217e-002
4.686249e+002,6.306072e-002
4.705533e+002,6.213203e-002
4.724819e+002,6.137801e-002
4.744103e+002,6.103098e-002
4.763389e+002,6.023448e-002
4.782673e+002,5.939516e-002
4.801959e+002,5.837742e-002
4.821243e+002,5.754004e-002
4.840529e+002,5.665189e-002
4.859813e+002,5.572486e-002
4.879099e+002,5.456044e-002
4.898383e+002,5.351210e-002
4.917668e+002,5.240613e-002
4.936953e+002,5.180488e-002
4.956238e+002,5.128330e-002
4.975523e+002,5.060298e-002
4.994808e+002,5.001243e-002
5.014093e+002,4.974402e-002
5.033378e+002,4.970451e-002
5.052663e+002,4.961868e-002
5.071948e+002,4.928590e-002
5.091233e+002,4.885744e-002
5.110518e+002,4.913750e-002
5.129803e+002,4.951906e-002
5.149088e+002,4.953003e-002
5.168373e+002,4.924010e-002
5.187658e+002,4.907924e-002
5.206943e+002,4.964120e-002
5.226228e+002,4.980042e-002
5.245513e+002,5.019478e-002
5.264798e+002,4.994158e-002
5.284083e+002,5.005684e-002
5.303368e+002,4.986383e-002
5.322653e+002,4.963659e-002
5.341938e+002,4.918735e-002
5.361223e+002,4.909539e-002
5.380508e+002,4.928940e-002
5.399792e+002,4.922649e-002
5.419078e+002,4.881646e-002
5.438363e+002,4.914621e-002
5.457648e+002,4.872444e-002
5.476932e+002,4.890673e-002
5.496218e+002,4.901471e-002
5.515503e+002,4.923502e-002
5.534788e+002,4.925642e-002
5.554072e+002,4.982460e-002
5.573358e+002,5.013028e-002
5.592643e+002,5.003529e-002
5.611927e+002,4.982824e-002
5.631212e+002,4.930396e-002
5.650497e+002,4.861809e-002
5.669783e+002,4.826860e-002
5.689067e+002,4.804443e-002
5.708352e+002,4.811160e-002
5.727637e+002,4.809904e-002
5.746923e+002,4.770891e-002
5.766207e+002,4.714468e-002
5.785492e+002,4.726186e-002
5.804777e+002,4.722250e-002
5.824063e+002,4.714955e-002
5.843347e+002,4.693418e-002
5.862632e+002,4.694199e-002
5.881917e+002,4.679265e-002
5.901202e+002,4.677141e-002
5.920487e+002,4.677920e-002
5.939772e+002,4.669658e-002
5.959057e+002,4.625582e-002
5.978342e+002,4.627156e-002
5.997627e+002,4.602857e-002
6.016912e+002,4.604704e-002
6.036197e+002,4.581397e-002
6.055482e+002,4.556673e-002
6.074767e+002,4.530507e-002
6.094052e+002,4.509215e-002
6.113337e+002,4.466234e-002
6.132622e+002,4.444665e-002
6.151907e+002,4.415768e-002
6.171192e+002,4.411163e-002
6.190477e+002,4.366334e-002
6.209762e+002,4.316837e-002
6.229047e+002,4.252316e-002
6.248332e+002,4.184511e-002
6.267617e+002,4.089807e-002
6.286902e+002,4.051489e-002
6.306187e+002,4.041557e-002
6.325472e+002,4.023718e-002
6.344756e+002,3.999111e-002
6.364042e+002,3.968606e-002
6.383326e+002,3.939649e-002
6.402612e+002,3.940570e-002
6.421896e+002,3.917469e-002
6.441182e+002,3.883879e-002
6.460466e+002,3.846173e-002
6.479752e+002,3.834104e-002
6.499036e+002,3.812457e-002
6.518322e+002,3.801020e-002
6.537606e+002,3.794556e-002
6.556891e+002,3.796678e-002
6.576177e+002,3.788209e-002
6.595461e+002,3.806704e-002
6.614746e+002,3.814779e-002
6.634031e+002,3.813058e-002
6.653317e+002,3.794470e-002
6.672601e+002,3.765679e-002
6.691886e+002,3.732632e-002
6.711171e+002,3.707282e-002
6.730457e+002,3.640055e-002
6.749741e+002,3.563005e-002
6.769026e+002,3.501317e-002
6.788311e+002,3.430748e-002
6.807596e+002,3.346420e-002
6.826881e+002,3.294859e-002
6.846166e+002,3.242917e-002
6.865451e+002,3.223806e-002
6.884736e+002,3.199988e-002
6.904021e+002,3.186727e-002
6.923306e+002,3.171869e-002
6.942591e+002,3.159669e-002
6.961876e+002,3.149095e-002
6.981161e+002,3.158099e-002
7.000446e+002,3.127877e-002
7.019731e+002,3.119596e-002
7.039016e+002,3.091316e-002
7.058301e+002,3.067274e-002
7.077585e+002,3.052929e-002
7.096871e+002,3.036424e-002
7.116156e+002,3.010715e-002
7.135441e+002,3.014555e-002
7.154725e+002,2.984941e-002
7.174011e+002,2.973382e-002
7.193296e+002,2.978987e-002
7.212581e+002,2.952863e-002
7.231865e+002,2.925026e-002
7.251151e+002,2.912816e-002
7.270436e+002,2.881368e-002
7.289720e+002,2.851376e-002
7.309005e+002,2.839742e-002
7.328290e+002,2.822867e-002
7.347576e+002,2.790135e-002
7.366860e+002,2.775777e-002
7.386145e+002,2.742700e-002
7.405430e+002,2.722396e-002
7.424716e+002,2.700298e-002
7.444000e+002,2.683542e-002
7.463285e+002,2.659575e-002
7.482570e+002,2.649911e-002
7.501855e+002,2.617514e-002
7.521140e+002,2.604410e-002
7.540425e+002,2.597539e-002
7.559710e+002,2.592818e-002
7.578995e+002,2.573584e-002
7.598280e+002,2.554539e-002
7.617565e+002,2.534053e-002
7.636850e+002,2.523500e-002
7.656135e+002,2.518914e-002
7.675420e+002,2.523363e-002
7.694705e+002,2.513099e-002
7.713990e+002,2.515754e-002
7.733275e+002,2.522502e-002
7.752560e+002,2.542920e-002
7.771844e+002,2.543998e-002
7.791130e+002,2.557600e-002
7.810415e+002,2.569270e-002
7.829700e+002,2.566827e-002
7.848984e+002,2.553475e-002
7.868270e+002,2.560475e-002
7.887555e+002,2.558795e-002
7.906840e+002,2.545133e-002
7.926124e+002,2.522418e-002
7.945410e+002,2.515954e-002
7.964695e+002,2.518605e-002
7.983979e+002,2.504320e-002
8.003264e+002,2.492920e-002
8.022549e+002,2.498185e-002
8.041835e+002,2.488022e-002
8.061119e+002,2.483643e-002
8.080404e+002,2.472376e-002
8.099689e+002,2.452132e-002
8.118975e+002,2.433807e-002
8.138259e+002,2.424724e-002
8.157545e+002,2.408316e-002
8.176830e+002,2.391400e-002
8.196115e+002,2.374672e-002
8.215399e+002,2.364307e-002
8.234684e+002,2.342257e-002
8.253970e+002,2.326603e-002
8.273254e+002,2.311833e-002
8.292539e+002,2.308003e-002
8.311824e+002,2.293920e-002
8.331110e+002,2.276520e-002
8.350394e+002,2.271042e-002
8.369679e+002,2.260207e-002
8.388964e+002,2.242029e-002
8.408250e+002,2.234281e-002
8.427534e+002,2.230419e-002
8.446819e+002,2.218597e-002
8.466104e+002,2.199600e-002
8.485389e+002,2.197522e-002
8.504674e+002,2.186050e-002
8.523959e+002,2.185127e-002
8.543244e+002,2.186935e-002
8.562529e+002,2.185928e-002
8.581814e+002,2.174581e-002
8.601099e+002,2.165806e-002
8.620384e+002,2.181176e-002
8.639669e+002,2.203406e-002
8.658954e+002,2.211358e-002
8.678239e+002,2.222300e-002
8.697524e+002,2.223817e-002
8.716809e+002,2.230646e-002
8.736094e+002,2.251161e-002
8.755378e+002,2.267865e-002
8.774664e+002,2.277952e-002
8.793949e+002,2.305557e-002
8.813234e+002,2.330022e-002
8.832518e+002,2.371393e-002
8.851804e+002,2.421886e-002
8.871089e+002,2.474431e-002
8.890374e+002,2.534106e-002
8.909658e+002,2.612122e-002
8.928943e+002,2.677892e-002
8.948229e+002,2.731249e-002
8.967513e+002,2.749647e-002
8.986798e+002,2.754596e-002
9.006083e+002,2.731640e-002
9.025369e+002,2.697205e-002
9.044653e+002,2.650434e-002
9.063938e+002,2.607583e-002
9.083223e+002,2.572444e-002
9.102509e+002,2.558658e-002
9.121793e+002,2.543619e-002
9.141078e+002,2.538377e-002
9.160364e+002,2.549781e-002
9.179648e+002,2.559691e-002
9.198933e+002,2.569948e-002
9.218218e+002,2.585162e-002
9.237504e+002,2.605644e-002
9.256788e+002,2.638003e-002
9.276073e+002,2.665052e-002
9.295358e+002,2.691134e-002
9.314644e+002,2.713942e-002
9.333928e+002,2.751274e-002
9.353213e+002,2.787932e-002
9.372498e+002,2.830236e-002
9.391783e+002,2.876087e-002
9.411068e+002,2.936870e-002
9.430353e+002,2.999112e-002
9.449637e+002,3.067509e-002
9.468923e+002,3.137054e-002
9.488208e+002,3.212101e-002
9.507493e+002,3.293479e-002
9.526777e+002,3.371050e-002
9.546063e+002,3.445577e-002
9.565348e+002,3.530949e-002
9.584633e+002,3.619586e-002
9.603917e+002,3.710818e-002
9.623203e+002,3.798218e-002
9.642488e+002,3.890070e-002
9.661772e+002,3.965694e-002
9.681057e+002,4.040799e-002
9.700343e+002,4.122045e-002
9.719628e+002,4.208382e-002
9.738912e+002,4.299906e-002
9.758197e+002,4.402759e-002
9.777483e+002,4.517722e-002
9.796768e+002,4.642355e-002
9.816052e+002,4.786702e-002
9.835337e+002,4.936367e-002
9.854623e+002,5.069418e-002
9.873907e+002,5.193738e-002
9.893192e+002,5.285801e-002
9.912477e+002,5.345928e-002
9.931763e+002,5.382387e-002
9.951047e+002,5.403729e-002
9.970332e+002,5.433590e-002
9.989617e+002,5.501669e-002
1.000890e+003,5.595918e-002
1.002819e+003,5.695505e-002
1.004747e+003,5.791410e-002
1.006676e+003,5.894566e-002
1.008604e+003,5.991730e-002
1.010533e+003,6.084785e-002
1.012461e+003,6.189245e-002
1.014390e+003,6.318684e-002
1.016318e+003,6.464415e-002
1.018247e+003,6.613653e-002
1.020175e+003,6.771982e-002
1.022104e+003,6.933768e-002
1.024032e+003,7.100423e-002
1.025961e+003,7.268620e-002
1.027889e+003,7.435962e-002
1.029818e+003,7.604440e-002
1.031746e+003,7.744030e-002
1.033675e+003,7.841048e-002
1.035603e+003,7.882242e-002
1.037532e+003,7.864451e-002
1.039460e+003,7.815979e-002
1.041389e+003,7.749503e-002
1.043317e+003,7.687820e-002
1.045246e+003,7.642210e-002
1.047174e+003,7.600936e-002
1.049103e+003,7.559837e-002
1.051031e+003,7.516619e-002
1.052960e+003,7.464987e-002
1.054888e+003,7.396505e-002
1.056817e+003,7.300647e-002
1.058745e+003,7.198628e-002
1.060674e+003,7.092393e-002
1.062602e+003,6.977818e-002
1.064531e+003,6.857541e-002
1.066459e+003,6.737047e-002
1.068388e+003,6.615648e-002
1.070316e+003,6.504080e-002
1.072245e+003,6.408929e-002
1.074173e+003,6.308641e-002
1.076102e+003,6.204306e-002
1.078030e+003,6.104641e-002
1.079959e+003,5.997451e-002
1.081887e+003,5.890293e-002
1.083816e+003,5.809136e-002
1.085744e+003,5.752416e-002
1.087673e+003,5.707833e-002
1.089601e+003,5.667314e-002
1.091530e+003,5.631554e-002
1.093458e+003,5.595040e-002
1.095387e+003,5.561836e-002
1.097315e+003,5.539185e-002
1.099244e+003,5.519055e-002
1.101172e+003,5.499303e-002
1.103101e+003,5.469822e-002
1.105029e+003,5.421028e-002
1.106958e+003,5.350789e-002
1.108886e+003,5.249845e-002
1.110815e+003,5.134761e-002
1.112743e+003,5.001648e-002
1.114672e+003,4.848268e-002
1.116600e+003,4.699364e-002
1.118529e+003,4.566524e-002
1.120457e+003,4.448711e-002
1.122386e+003,4.339931e-002
1.124314e+003,4.222870e-002
1.126243e+003,4.098206e-002
1.128171e+003,3.974538e-002
1.130100e+003,3.855769e-002
1.132028e+003,3.737587e-002
1.133957e+003,3.637766e-002
1.135885e+003,3.550983e-002
1.137814e+003,3.480949e-002
1.139742e+003,3.434649e-002
1.141671e+003,3.415471e-002
1.143599e+003,3.417134e-002
1.145528e+003,3.431138e-002
1.147456e+003,3.455199e-002
1.149385e+003,3.483311e-002
1.151313e+003,3.517042e-002
1.153242e+003,3.558787e-002
1.155170e+003,3.599019e-002
1.157099e+003,3.630110e-002
1.159027e+003,3.647203e-002
1.160956e+003,3.645639e-002
1.162884e+003,3.616885e-002
1.164813e+003,3.559685e-002
1.166741e+003,3.470962e-002
1.168670e+003,3.358737e-002
1.170598e+003,3.232156e-002
1.172526e+003,3.099637e-002
1.174455e+003,2.969253e-002
1.176384e+003,2.852823e-002
1.178312e+003,2.754218e-002
1.180240e+003,2.666483e-002
1.182169e+003,2.587726e-002
1.184098e+003,2.523865e-002
1.186026e+003,2.477989e-002
1.187954e+003,2.443761e-002
1.189883e+003,2.421048e-002
1.191812e+003,2.414739e-002
1.193740e+003,2.421010e-002
1.195668e+003,2.437069e-002
1.197597e+003,2.445678e-002
1.199526e+003,2.454012e-002
1.201454e+003,2.461349e-002
1.203382e+003,2.454529e-002
1.205311e+003,2.436298e-002
1.207240e+003,2.414678e-002
1.209168e+003,2.395492e-002
1.211096e+003,2.384116e-002
1.213025e+003,2.386315e-002
1.214953e+003,2.397737e-002
1.216882e+003,2.406456e-002
1.218810e+003,2.419421e-002
1.220739e+003,2.438127e-002
1.222667e+003,2.456658e-002
1.224596e+003,2.480354e-002
1.226524e+003,2.513752e-002
1.228453e+003,2.545748e-002
1.230381e+003,2.573012e-002
1.232310e+003,2.591594e-002
1.234238e+003,2.607385e-002
1.236167e+003,2.618228e-002
1.238095e+003,2.621016e-002
1.240024e+003,2.616349e-002
1.241952e+003,2.604502e-002
1.243881e+003,2.589063e-002
1.245809e+003,2.568921e-002
1.247738e+003,2.538103e-002
1.249666e+003,2.504572e-002
1.251595e+003,2.461312e-002
1.253523e+003,2.417069e-002
1.255452e+003,2.371835e-002
1.257380e+003,2.323205e-002
1.259309e+003,2.278962e-002
1.261237e+003,2.231599e-002
1.263166e+003,2.179600e-002
1.265094e+003,2.126407e-002
1.267023e+003,2.071144e-002
1.268951e+003,2.019495e-002
1.270880e+003,1.974254e-002
1.272808e+003,1.931824e-002
1.274737e+003,1.891846e-002
1.276665e+003,1.856311e-002
1.278594e+003,1.828444e-002
1.280522e+003,1.809589e-002
1.282451e+003,1.791125e-002
1.284379e+003,1.770121e-002
1.286308e+003,1.751387e-002
1.288236e+003,1.733621e-002
1.290165e+003,1.724317e-002
1.292093e+003,1.730416e-002
1.294022e+003,1.734543e-002
1.295950e+003,1.746782e-002
1.297879e+003,1.767499e-002
1.299807e+003,1.782615e-002
1.301736e+003,1.804686e-002
1.303664e+003,1.833348e-002
1.305593e+003,1.864665e-002
1.307521e+003,1.901131e-002
1.309450e+003,1.933909e-002
1.311378e+003,1.964775e-002
1.313307e+003,1.997337e-002
1.315235e+003,2.014733e-002
1.317164e+003,2.021878e-002
1.319092e+003,2.023897e-002
1.321021e+003,2.012854e-002
1.322949e+003,1.988465e-002
1.324878e+003,1.966162e-002
1.326806e+003,1.945355e-002
1.328735e+003,1.933929e-002
1.330663e+003,1.931263e-002
1.332592e+003,1.925274e-002
1.334520e+003,1.918486e-002
1.336449e+003,1.904154e-002
1.338377e+003,1.886889e-002
1.340306e+003,1.871944e-002
1.342234e+003,1.861067e-002
1.344163e+003,1.853918e-002
1.346091e+003,1.853786e-002
1.348020e+003,1.860728e-002
1.349948e+003,1.875214e-002
1.351877e+003,1.887370e-002
1.353805e+003,1.905585e-002
1.355734e+003,1.931162e-002
1.357662e+003,1.948606e-002
1.359591e+003,1.966600e-002
1.361519e+003,1.995108e-002
1.363448e+003,2.017187e-002
1.365376e+003,2.030618e-002
1.367305e+003,2.044503e-002
1.369233e+003,2.046681e-002
1.371162e+003,2.041664e-002
1.373090e+003,2.034157e-002
1.375019e+003,2.014145e-002
1.376947e+003,1.985570e-002
1.378876e+003,1.954861e-002
1.380804e+003,1.915593e-002
1.382733e+003,1.871184e-002
1.384661e+003,1.825178e-002
1.386590e+003,1.784258e-002
1.388518e+003,1.752810e-002
1.390447e+003,1.727771e-002
1.392375e+003,1.703852e-002
1.394304e+003,1.689876e-002
1.396232e+003,1.683694e-002
1.398161e+003,1.677719e-002
1.400089e+003,1.679037e-002
1.402018e+003,1.679647e-002
1.403946e+003,1.679777e-002
1.405875e+003,1.680146e-002
1.407803e+003,1.686178e-002
1.409732e+003,1.697086e-002
1.411660e+003,1.713485e-002
1.413589e+003,1.729845e-002
1.415517e+003,1.748899e-002
1.417446e+003,1.767720e-002
1.419374e+003,1.784118e-002
1.421303e+003,1.789042e-002
1.423231e+003,1.792676e-002
1.425160e+003,1.793518e-002
1.427088e+003,1.786355e-002
1.429017e+003,1.775615e-002
1.430945e+003,1.763161e-002
1.432874e+003,1.748986e-002
1.434802e+003,1.730302e-002
1.436731e+003,1.711820e-002
1.438659e+003,1.691550e-002
1.440588e+003,1.675106e-002
1.442516e+003,1.659693e-002
1.444445e+003,1.648797e-002
1.446373e+003,1.649665e-002
1.448302e+003,1.649714e-002
1.450230e+003,1.643690e-002
1.452159e+003,1.640767e-002
1.454087e+003,1.638677e-002
1.456016e+003,1.630438e-002
1.457944e+003,1.623786e-002
1.459873e+003,1.611730e-002
1.461801e+003,1.602568e-002
1.463730e+003,1.593793e-002
1.465658e+003,1.570665e-002
1.467587e+003,1.526670e-002
1.469515e+003,1.474096e-002
1.471444e+003,1.421095e-002
1.473372e+003,1.370524e-002
1.475301e+003,1.329222e-002
1.477229e+003,1.305513e-002
1.479158e+003,1.284802e-002
1.481086e+003,1.267958e-002
1.483015e+003,1.254779e-002
1.484943e+003,1.250862e-002
1.486872e+003,1.256704e-002
1.488800e+003,1.264542e-002
1.490729e+003,1.270541e-002
1.492657e+003,1.280054e-002
1.494586e+003,1.291966e-002
1.496514e+003,1.308727e-002
1.498443e+003,1.318962e-002
1.500371e+003,1.324861e-002
1.502300e+003,1.331600e-002
1.504228e+003,1.334939e-002
1.506157e+003,1.341200e-002
1.508085e+003,1.352329e-002
1.510014e+003,1.361285e-002
1.511942e+003,1.369635e-002
1.513871e+003,1.374810e-002
1.515799e+003,1.374710e-002
1.517728e+003,1.364159e-002
1.519656e+003,1.347092e-002
1.521585e+003,1.332320e-002
1.523513e+003,1.319170e-002
1.525442e+003,1.313762e-002
1.527370e+003,1.311873e-002
1.529299e+003,1.309989e-002
1.531227e+003,1.309424e-002
1.533156e+003,1.309984e-002
1.535084e+003,1.312213e-002
1.537013e+003,1.316335e-002
1.538941e+003,1.322361e-002
1.540870e+003,1.327281e-002
1.542798e+003,1.328074e-002
1.544727e+003,1.327721e-002
1.546655e+003,1.328454e-002
1.548584e+003,1.330762e-002
1.550512e+003,1.333984e-002
1.552441e+003,1.336178e-002
1.554369e+003,1.338674e-002
1.556298e+003,1.337729e-002
1.558226e+003,1.341687e-002
1.560155e+003,1.344499e-002
1.562083e+003,1.345634e-002
1.564012e+003,1.350428e-002
1.565940e+003,1.356254e-002
1.567869e+003,1.368845e-002
1.569797e+003,1.381284e-002
1.571726e+003,1.390579e-002
1.573654e+003,1.405142e-002
1.575583e+003,1.424305e-002
1.577511e+003,1.446536e-002
1.579440e+003,1.466707e-002
1.581368e+003,1.492111e-002
1.583297e+003,1.514704e-002
1.585225e+003,1.543250e-002
1.587154e+003,1.572961e-002
1.589082e+003,1.598899e-002
1.591010e+003,1.617470e-002
1.592939e+003,1.639056e-002
1.594868e+003,1.659550e-002
1.596796e+003,1.672921e-002
1.598724e+003,1.684735e-002
1.600653e+003,1.695875e-002
1.602582e+003,1.706409e-002
1.604510e+003,1.718146e-002
1.606438e+003,1.725424e-002
1.608367e+003,1.725859e-002
1.610296e+003,1.726414e-002
1.612224e+003,1.738840e-002
1.614152e+003,1.750820e-002
1.616081e+003,1.766166e-002
1.618010e+003,1.783225e-002
1.619938e+003,1.792328e-002
1.621866e+003,1.798993e-002
1.623795e+003,1.809385e-002
1.625724e+003,1.812199e-002
1.627652e+003,1.811908e-002
1.629580e+003,1.808831e-002
1.631509e+003,1.802680e-002
1.633438e+003,1.795719e-002
1.635366e+003,1.790276e-002
1.637294e+003,1.779331e-002
1.639223e+003,1.769101e-002
1.641151e+003,1.763350e-002
1.643080e+003,1.760033e-002
1.645008e+003,1.755008e-002
1.646937e+003,1.752871e-002
1.648865e+003,1.750003e-002
1.650794e+003,1.740492e-002
1.652722e+003,1.723963e-002
1.654651e+003,1.707358e-002
1.656579e+003,1.686373e-002
1.658508e+003,1.660387e-002
1.660436e+003,1.634743e-002
1.662365e+003,1.604151e-002
1.664293e+003,1.572522e-002
1.666222e+003,1.541829e-002
1.668150e+003,1.512809e-002
1.670079e+003,1.486033e-002
1.672007e+003,1.463908e-002
1.673936e+003,1.441564e-002
1.675864e+003,1.417622e-002
1.677793e+003,1.397396e-002
1.679721e+003,1.380302e-002
1.681650e+003,1.361490e-002
1.683578e+003,1.346208e-002
1.685507e+003,1.330320e-002
1.687435e+003,1.319921e-002
1.689364e+003,1.309478e-002
1.691292e+003,1.302343e-002
1.693221e+003,1.295194e-002
1.695149e+003,1.290034e-002
1.697078e+003,1.286603e-002
1.699006e+003,1.282570e-002
1.700935e+003,1.286074e-002
1.702863e+003,1.291434e-002
1.704792e+003,1.297285e-002
1.706720e+003,1.306550e-002
1.708649e+003,1.319575e-002
1.710577e+003,1.341936e-002
1.712506e+003,1.364998e-002
1.714434e+003,1.384875e-002
1.716363e+003,1.402248e-002
1.718291e+003,1.426910e-002
1.720220e+003,1.450135e-002
1.722148e+003,1.472949e-002
1.724077e+003,1.499100e-002
1.726005e+003,1.523285e-002
1.727934e+003,1.539103e-002
1.729862e+003,1.550519e-002
1.731791e+003,1.548832e-002
1.733719e+003,1.533699e-002
1.735648e+003,1.509556e-002
1.737576e+003,1.473216e-002
1.739505e+003,1.425659e-002
1.741433e+003,1.371791e-002
1.743362e+003,1.322596e-002
1.745290e+003,1.274136e-002
1.747219e+003,1.226777e-002
1.749147e+003,1.187083e-002
1.751076e+003,1.151906e-002
1.753004e+003,1.116380e-002
1.754933e+003,1.085874e-002
1.756861e+003,1.061918e-002
1.758790e+003,1.043175e-002
1.760718e+003,1.026044e-002
1.762647e+003,1.011023e-002
1.764575e+003,9.994425e-003
1.766504e+003,9.948435e-003
1.768432e+003,9.841930e-003
1.770361e+003,9.740599e-003
1.772289e+003,9.654832e-003
1.774218e+003,9.588596e-003
1.776146e+003,9.590739e-003
1.778075e+003,9.559756e-003
1.780003e+003,9.505683e-003
1.781932e+003,9.495660e-003
1.783860e+003,9.498381e-003
1.785789e+003,9.494376e-003
1.787717e+003,9.505340e-003
1.789646e+003,9.498696e-003
1.791574e+003,9.485372e-003
1.793503e+003,9.474083e-003
1.795431e+003,9.455710e-003
1.797360e+003,9.527762e-003
1.799288e+003,9.515495e-003
1.801217e+003,9.416503e-003
1.803145e+003,9.391398e-003
1.805074e+003,9.437540e-003
1.807002e+003,9.501119e-003
1.808931e+003,9.495384e-003
1.810859e+003,9.508467e-003
1.812788e+003,9.533867e-003
1.814716e+003,9.525312e-003
1.816645e+003,9.584671e-003
1.818573e+003,9.602352e-003
1.820502e+003,9.582788e-003
1.822430e+003,9.515762e-003
1.824359e+003,9.528427e-003
1.826287e+003,9.578190e-003
1.828216e+003,9.605639e-003
1.830144e+003,9.643353e-003
1.832073e+003,9.665322e-003
1.834001e+003,9.679798e-003
1.835930e+003,9.682718e-003
1.837858e+003,9.647150e-003
1.839787e+003,9.680318e-003
1.841715e+003,9.708186e-003
1.843644e+003,9.743552e-003
1.845572e+003,9.787973e-003
1.847501e+003,9.852453e-003
1.849429e+003,9.921513e-003
1.851358e+003,9.878891e-003
1.853286e+003,9.796620e-003
1.855215e+003,9.741100e-003
1.857143e+003,9.750901e-003
1.859072e+003,9.944371e-003
1.861000e+003,1.002225e-002
1.862929e+003,1.003508e-002
1.864857e+003,1.002918e-002
1.866786e+003,9.936853e-003
1.868714e+003,1.000634e-002
1.870643e+003,1.009401e-002
1.872571e+003,1.016956e-002
1.874500e+003,1.016853e-002
1.876428e+003,1.011630e-002
1.878357e+003,1.027114e-002
1.880285e+003,1.036780e-002
1.882214e+003,1.025717e-002
1.884142e+003,1.020573e-002
1.886071e+003,1.027202e-002
1.887999e+003,1.057033e-002
1.889928e+003,1.076190e-002
1.891856e+003,1.062179e-002
1.893785e+003,1.035088e-002
1.895713e+003,1.029983e-002
1.897642e+003,1.048835e-002
1.899570e+003,1.061200e-002
1.901499e+003,1.059026e-002
1.903427e+003,1.052764e-002
1.905356e+003,1.047803e-002
1.907284e+003,1.062540e-002
1.909213e+003,1.065692e-002
1.911141e+003,1.061094e-002
1.913070e+003,1.078591e-002
1.914998e+003,1.072832e-002
1.916927e+003,1.066318e-002
1.918855e+003,1.074581e-002
1.920784e+003,1.065440e-002
1.922712e+003,1.076457e-002
1.924641e+003,1.095225e-002
1.926569e+003,1.089952e-002
1.928498e+003,1.093623e-002
1.930426e+003,1.133677e-002
1.932355e+003,1.124505e-002
1.934283e+003,1.102245e-002
1.936212e+003,1.140690e-002
1.938140e+003,1.153129e-002
1.940069e+003,1.122612e-002
1.941997e+003,1.099778e-002
1.943926e+003,1.102992e-002
1.945854e+003,1.163323e-002
1.947783e+003,1.145537e-002
1.949711e+003,1.138530e-002
1.951640e+003,1.170951e-002
1.953568e+003,1.198658e-002
1.955497e+003,1.204383e-002
1.957425e+003,1.226628e-002
1.959354e+003,1.260500e-002
1.961282e+003,1.306408e-002
1.963211e+003,1.341388e-002
1.965139e+003,1.336307e-002
1.967068e+003,1.346901e-002
1.968996e+003,1.345450e-002
1.970925e+003,1.380773e-002
1.972853e+003,1.400421e-002
1.974782e+003,1.319236e-002
1.976710e+003,1.394385e-002
1.978639e+003,1.399040e-002
1.980567e+003,1.343773e-002
1.982496e+003,1.276651e-002
1.984424e+003,1.286236e-002
1.986353e+003,1.250002e-002
1.988281e+003,1.260166e-002
1.990210e+003,1.205643e-002
1.992138e+003,1.183476e-002
1.994067e+003,1.239695e-002
1.995995e+003,1.220380e-002
1.997924e+003,1.187324e-002
1.999852e+003,1.179956e-002
2.001781e+003,1.239324e-002
2.003709e+003,1.301766e-002
2.005638e+003,1.347340e-002
2.007566e+003,1.316667e-002
2.009495e+003,1.240850e-002
2.011423e+003,1.243098e-002
2.013352e+003,1.160552e-002
2.015280e+003,1.139615e-002
2.017208e+003,1.171786e-002
2.019137e+003,1.160978e-002
2.021066e+003,1.257770e-002
2.022994e+003,1.246795e-002
2.024922e+003,1.095213e-002
2.026851e+003,1.090560e-002
2.028780e+003,1.159581e-002
2.030708e+003,1.136995e-002
2.032636e+003,1.101084e-002
2.034565e+003,1.132235e-002
2.036494e+003,1.094539e-002
2.038422e+003,1.061720e-002
2.040350e+003,1.063654e-002
2.042279e+003,1.035055e-002
2.044208e+003,9.963594e-003
2.046136e+003,9.717641e-003
2.048064e+003,9.659657e-003
2.049993e+003,1.019545e-002
2.051921e+003,9.842047e-003
2.053850e+003,1.010861e-002
2.055778e+003,1.030454e-002
2.057707e+003,9.769327e-003
2.059635e+003,9.705768e-003
2.061564e+003,9.695661e-003
2.063492e+003,9.241166e-003
2.065421e+003,9.121900e-003
2.067349e+003,9.243838e-003
2.069278e+003,9.243438e-003
2.071206e+003,9.362325e-003
2.073135e+003,9.289734e-003
2.075063e+003,9.195693e-003
2.076992e+003,9.147350e-003
2.078920e+003,9.249425e-003
2.080849e+003,9.381120e-003
2.082777e+003,9.523980e-003
2.084706e+003,9.502768e-003
2.086634e+003,9.914533e-003
2.088563e+003,9.817855e-003
2.090491e+003,9.539368e-003
2.092420e+003,9.745730e-003
2.094348e+003,9.954403e-003
2.096277e+003,1.001735e-002
2.098205e+003,9.761765e-003
2.100134e+003,9.374742e-003
2.102062e+003,9.514831e-003
2.103991e+003,9.565637e-003
2.105919e+003,9.538505e-003
2.107848e+003,9.432675e-003
2.109776e+003,9.376198e-003
2.111705e+003,9.592599e-003
2.113633e+003,9.492784e-003
2.115562e+003,9.344881e-003
2.117490e+003,9.423905e-003
2.119419e+003,9.479271e-003
2.121347e+003,9.675090e-003
2.123276e+003,9.629896e-003
2.125204e+003,9.550292e-003
2.127133e+003,9.627897e-003
2.129061e+003,9.851305e-003
2.130990e+003,1.007123e-002
2.132918e+003,9.779454e-003
2.134847e+003,9.804634e-003
2.136775e+003,9.946252e-003
2.138704e+003,1.021670e-002
2.140632e+003,1.043437e-002
2.142561e+003,1.047269e-002
2.144489e+003,1.018746e-002
2.146418e+003,1.029456e-002
2.148346e+003,1.040973e-002
2.150275e+003,9.954898e-003
2.152203e+003,1.022369e-002
2.154132e+003,1.124221e-002
2.156060e+003,1.062909e-002
2.157989e+003,9.353582e-003
2.159917e+003,9.541994e-003
2.161846e+003,1.099195e-002
2.163774e+003,1.041133e-002
2.165703e+003,9.467385e-003
2.167631e+003,9.720865e-003
2.169560e+003,1.087585e-002
2.171488e+003,1.020089e-002
2.173417e+003,1.044649e-002
2.175345e+003,1.118471e-002
2.177274e+003,1.120634e-002
2.179202e+003,1.115198e-002
2.181131e+003,1.112937e-002
2.183059e+003,1.160545e-002
2.184988e+003,1.114337e-002
2.186916e+003,1.083240e-002
2.188845e+003,1.117927e-002
2.190773e+003,1.041163e-002
2.192702e+003,9.461933e-003
2.194630e+003,1.016260e-002
2.196559e+003,1.110170e-002
2.198487e+003,1.123714e-002
2.200416e+003,1.082920e-002
2.202344e+003,1.011474e-002
2.204273e+003,1.036181e-002
2.206201e+003,1.057246e-002
2.208130e+003,1.058485e-002
2.210058e+003,1.008707e-002
2.211987e+003,9.849339e-003
2.213915e+003,9.667027e-003
2.215844e+003,9.475918e-003
2.217772e+003,9.876048e-003
2.219701e+003,1.067286e-002
2.221629e+003,1.053736e-002
2.223558e+003,9.887132e-003
2.225486e+003,9.315666e-003
2.227415e+003,9.897335e-003
2.229343e+003,1.062176e-002
2.231272e+003,1.051042e-002
2.233200e+003,1.063494e-002
2.235129e+003,1.065096e-002
2.237057e+003,1.053657e-002
2.238986e+003,1.056961e-002
2.240914e+003,1.018124e-002
2.242843e+003,1.002872e-002
2.244771e+003,1.014598e-002
2.246700e+003,9.978555e-003
2.248628e+003,9.942317e-003
2.250557e+003,1.042233e-002
2.252485e+003,1.024462e-002
2.254414e+003,1.033411e-002
2.256342e+003,1.051015e-002
2.258271e+003,1.043821e-002
2.260199e+003,1.005012e-002
2.262128e+003,1.015892e-002
2.264056e+003,1.022497e-002
2.265985e+003,1.024285e-002
2.267913e+003,1.039673e-002
2.269842e+003,1.046672e-002
2.271770e+003,1.046496e-002
2.273699e+003,1.028406e-002
2.275627e+003,1.006348e-002
2.277556e+003,1.004758e-002
2.279484e+003,1.034858e-002
2.281413e+003,1.038762e-002
2.283341e+003,1.027699e-002
2.285270e+003,1.033358e-002
2.287198e+003,1.037303e-002
2.289127e+003,1.048150e-002
2.291055e+003,1.060568e-002
2.292984e+003,1.052391e-002
2.294912e+003,1.037632e-002
2.296841e+003,1.051368e-002
2.298769e+003,1.045329e-002
2.300698e+003,1.027037e-002
2.302626e+003,1.034964e-002
2.304555e+003,1.051656e-002
2.306483e+003,1.047089e-002
2.308412e+003,1.051142e-002
2.310340e+003,1.044571e-002
2.312269e+003,1.033613e-002
2.314197e+003,1.024779e-002
2.316125e+003,1.016830e-002
2.318054e+003,1.010378e-002
2.319983e+003,1.006450e-002
2.321911e+003,1.019362e-002
2.323840e+003,1.007787e-002
2.325768e+003,9.936898e-003
2.327697e+003,9.871452e-003
2.329625e+003,9.721640e-003
2.331553e+003,9.835388e-003
2.333482e+003,9.709227e-003
2.335411e+003,9.677310e-003
2.337339e+003,9.751599e-003
2.339268e+003,9.949007e-003
2.341196e+003,9.956935e-003
2.343125e+003,9.782637e-003
2.345053e+003,9.824542e-003
2.346981e+003,1.002754e-002
2.348910e+003,1.001030e-002
2.350839e+003,1.018286e-002
2.352767e+003,1.026019e-002
2.354696e+003,1.005706e-002
2.356624e+003,1.007582e-002
2.358552e+003,1.041716e-002
2.360481e+003,1.044317e-002
2.362409e+003,1.053819e-002
2.364338e+003,1.043432e-002
2.366267e+003,1.058742e-002
2.368195e+003,1.067860e-002
2.370124e+003,1.065070e-002
2.372052e+003,1.039794e-002
2.373980e+003,1.039846e-002
2.375909e+003,1.037905e-002
2.377838e+003,1.025809e-002
2.379766e+003,1.033335e-002
2.381695e+003,1.034260e-002
2.383623e+003,1.038667e-002
2.385552e+003,1.035256e-002
2.387480e+003,1.026170e-002
2.389408e+003,1.022033e-002
2.391337e+003,1.020151e-002
2.393266e+003,1.020538e-002
2.395194e+003,1.021252e-002
2.397123e+003,1.014679e-002
2.399051e+003,1.017879e-002
2.400979e+003,1.024791e-002
2.402908e+003,1.022064e-002
2.404836e+003,1.021172e-002
2.406765e+003,1.017081e-002
2.408694e+003,1.007506e-002
2.410622e+003,9.880489e-003
2.412551e+003,1.002274e-002
2.414479e+003,1.023685e-002
2.416407e+003,1.020127e-002
2.418336e+003,1.001572e-002
2.420264e+003,1.003485e-002
2.422193e+003,1.009188e-002
2.424122e+003,1.016450e-002
2.426050e+003,1.018427e-002
2.427979e+003,1.008195e-002
2.429907e+003,9.983071e-003
2.431835e+003,9.927132e-003
2.433764e+003,9.962593e-003
2.435692e+003,1.000474e-002
2.437621e+003,1.002952e-002
2.439550e+003,9.954321e-003
2.441478e+003,9.976053e-003
2.443406e+003,1.017908e-002
2.445335e+003,1.012319e-002
2.447263e+003,1.001338e-002
2.449192e+003,1.009514e-002
2.451121e+003,1.016304e-002
2.453049e+003,1.026304e-002
2.454978e+003,1.023271e-002
2.456906e+003,1.019954e-002
2.458834e+003,1.029558e-002
2.460763e+003,1.026046e-002
2.462691e+003,1.007133e-002
2.464620e+003,1.012661e-002
2.466549e+003,1.017369e-002
2.468477e+003,1.018573e-002
2.470406e+003,1.020018e-002
2.472334e+003,1.020999e-002
2.474262e+003,1.020228e-002
2.476191e+003,1.015782e-002
2.478119e+003,1.010928e-002
2.480048e+003,1.012549e-002
2.481977e+003,1.023438e-002
2.483905e+003,1.020056e-002
2.485833e+003,1.010430e-002
2.487762e+003,9.999990e-003
2.489690e+003,9.981614e-003
2.491619e+003,1.014842e-002
2.493547e+003,1.023695e-002
2.495476e+003,1.026745e-002
2.497405e+003,1.013306e-002
2.499333e+003,1.013502e-002
2.501261e+003,1.011824e-002
2.503190e+003,1.015995e-002
2.505118e+003,1.013424e-002
2.507047e+003,1.026067e-002
2.508975e+003,1.039707e-002
2.510904e+003,1.040994e-002
2.512833e+003,1.022271e-002
2.514761e+003,1.015605e-002
2.516689e+003,1.020463e-002
2.518618e+003,1.006747e-002
2.520546e+003,1.009667e-002
2.522475e+003,1.019462e-002
2.524403e+003,1.024700e-002
2.526332e+003,1.008893e-002
2.528260e+003,1.010850e-002
2.530189e+003,1.025120e-002
2.532117e+003,1.037305e-002
2.534046e+003,1.034644e-002
2.535974e+003,1.034128e-002
2.537903e+003,1.039734e-002
2.539831e+003,1.032883e-002
2.541760e+003,1.040396e-002
2.543688e+003,1.043396e-002
2.545617e+003,1.032357e-002
2.547545e+003,1.034376e-002
2.549474e+003,1.052096e-002
2.551402e+003,1.062923e-002
2.553331e+003,1.042500e-002
2.555259e+003,1.031241e-002
2.557188e+003,1.041085e-002
2.559116e+003,1.045911e-002
2.561045e+003,1.042646e-002
2.562973e+003,1.035065e-002
2.564902e+003,1.037658e-002
2.566830e+003,1.050884e-002
2.568759e+003,1.039572e-002
2.570687e+003,1.031302e-002
2.572616e+003,1.047843e-002
2.574544e+003,1.053016e-002
2.576473e+003,1.048617e-002
2.578401e+003,1.049798e-002
2.580330e+003,1.044550e-002
2.582258e+003,1.052188e-002
2.584187e+003,1.051186e-002
2.586115e+003,1.036806e-002
2.588044e+003,1.040888e-002
2.589972e+003,1.044034e-002
2.591901e+003,1.046587e-002
2.593829e+003,1.053607e-002
2.595758e+003,1.053430e-002
2.597686e+003,1.050463e-002
2.599615e+003,1.058020e-002
2.601543e+003,1.055185e-002
2.603472e+003,1.051071e-002
2.605400e+003,1.047985e-002
2.607329e+003,1.052514e-002
2.609257e+003,1.048372e-002
2.611186e+003,1.046634e-002
2.613114e+003,1.046818e-002
2.615043e+003,1.039578e-002
2.616971e+003,1.043088e-002
2.618900e+003,1.049628e-002
2.620828e+003,1.058166e-002
2.622757e+003,1.067347e-002
2.624685e+003,1.066094e-002
2.626614e+003,1.068709e-002
2.628542e+003,1.075104e-002
2.630471e+003,1.074761e-002
2.632399e+003,1.075644e-002
2.634328e+003,1.082448e-002
2.636256e+003,1.088427e-002
2.638185e+003,1.084812e-002
2.640113e+003,1.083939e-002
2.642042e+003,1.093847e-002
2.643970e+003,1.094890e-002
2.645899e+003,1.095695e-002
2.647827e+003,1.097989e-002
2.649756e+003,1.100201e-002
2.651684e+003,1.100820e-002
2.653613e+003,1.107875e-002
2.655541e+003,1.112529e-002
2.657470e+003,1.111574e-002
2.659398e+003,1.110880e-002
2.661327e+003,1.115191e-002
2.663255e+003,1.117887e-002
2.665184e+003,1.115694e-002
2.667112e+003,1.116551e-002
2.669041e+003,1.122215e-002
2.670969e+003,1.125761e-002
2.672898e+003,1.117761e-002
2.674826e+003,1.117288e-002
2.676755e+003,1.121154e-002
2.678683e+003,1.116313e-002
2.680612e+003,1.121256e-002
2.682540e+003,1.128478e-002
2.684469e+003,1.129604e-002
2.686397e+003,1.131712e-002
2.688326e+003,1.133954e-002
2.690254e+003,1.139307e-002
2.692183e+003,1.140896e-002
2.694111e+003,1.135579e-002
2.696040e+003,1.135358e-002
2.697968e+003,1.137532e-002
2.699897e+003,1.138743e-002
2.701825e+003,1.142573e-002
2.703754e+003,1.145543e-002
2.705682e+003,1.143015e-002
2.707611e+003,1.142876e-002
2.709539e+003,1.145349e-002
2.711468e+003,1.146073e-002
2.713396e+003,1.147978e-002
2.715325e+003,1.149846e-002
2.717253e+003,1.150102e-002
2.719182e+003,1.151547e-002
2.721110e+003,1.154297e-002
2.723039e+003,1.156005e-002
2.724967e+003,1.159643e-002
2.726896e+003,1.158969e-002
2.728824e+003,1.159490e-002
2.730753e+003,1.161708e-002
2.732681e+003,1.163658e-002
2.734610e+003,1.165180e-002
2.736538e+003,1.166143e-002
2.738467e+003,1.163658e-002
2.740395e+003,1.162699e-002
2.742324e+003,1.167535e-002
2.744252e+003,1.167947e-002
2.746181e+003,1.170108e-002
2.748109e+003,1.173723e-002
2.750038e+003,1.171181e-002
2.751966e+003,1.172968e-002
2.753895e+003,1.168260e-002
2.755823e+003,1.168692e-002
2.757752e+003,1.175855e-002
2.759680e+003,1.179981e-002
2.761609e+003,1.178227e-002
2.763537e+003,1.178735e-002
2.765466e+003,1.182344e-002
2.767394e+003,1.185234e-002
2.769323e+003,1.187254e-002
2.771251e+003,1.189695e-002
2.773180e+003,1.190281e-002
2.775108e+003,1.190087e-002
2.777037e+003,1.194174e-002
2.778965e+003,1.196388e-002
2.780894e+003,1.202059e-002
2.782822e+003,1.201231e-002
2.784750e+003,1.202011e-002
2.786679e+003,1.207080e-002
2.788608e+003,1.209969e-002
2.790536e+003,1.209237e-002
2.792465e+003,1.211588e-002
2.794393e+003,1.218055e-002
2.796322e+003,1.223862e-002
2.798250e+003,1.230702e-002
2.800178e+003,1.232090e-002
2.802107e+003,1.229901e-002
2.804036e+003,1.230474e-002
2.805964e+003,1.233985e-002
2.807893e+003,1.235318e-002
2.809821e+003,1.240926e-002
2.811750e+003,1.246405e-002
2.813678e+003,1.245819e-002
2.815606e+003,1.250971e-002
2.817535e+003,1.259495e-002
2.819464e+003,1.261234e-002
2.821392e+003,1.260937e-002
2.823321e+003,1.268176e-002
2.825249e+003,1.277880e-002
2.827177e+003,1.284896e-002
2.829106e+003,1.294450e-002
2.831034e+003,1.298615e-002
2.832963e+003,1.304422e-002
2.834892e+003,1.316064e-002
2.836820e+003,1.327800e-002
2.838749e+003,1.335788e-002
2.840677e+003,1.341967e-002
2.842605e+003,1.356445e-002
2.844534e+003,1.382676e-002
2.846462e+003,1.414558e-002
2.848391e+003,1.435029e-002
2.850320e+003,1.444753e-002
2.852248e+003,1.447877e-002
2.854177e+003,1.453794e-002
2.856105e+003,1.459287e-002
2.858033e+003,1.455007e-002
2.859962e+003,1.451437e-002
2.861890e+003,1.454119e-002
2.863819e+003,1.448748e-002
2.865748e+003,1.448816e-002
2.867676e+003,1.451403e-002
2.869604e+003,1.449457e-002
2.871533e+003,1.447980e-002
2.873461e+003,1.448443e-002
2.875390e+003,1.452948e-002
2.877319e+003,1.459544e-002
2.879247e+003,1.460321e-002
2.881176e+003,1.460911e-002
2.883104e+003,1.460476e-002
2.885032e+003,1.466929e-002
2.886961e+003,1.473873e-002
2.888889e+003,1.479632e-002
2.890818e+003,1.489379e-002
2.892747e+003,1.493662e-002
2.894675e+003,1.487133e-002
2.896604e+003,1.491005e-002
2.898532e+003,1.495943e-002
2.900460e+003,1.499067e-002
2.902389e+003,1.501012e-002
2.904317e+003,1.505725e-002
2.906246e+003,1.502556e-002
2.908175e+003,1.507207e-002
2.910103e+003,1.513938e-002
2.912031e+003,1.525927e-002
2.913960e+003,1.533087e-002
2.915888e+003,1.540687e-002
2.917817e+003,1.540272e-002
2.919745e+003,1.549600e-002
2.921674e+003,1.546077e-002
2.923603e+003,1.541113e-002
2.925531e+003,1.532692e-002
2.927459e+003,1.519376e-002
2.929388e+003,1.507368e-002
2.931316e+003,1.493172e-002
2.933245e+003,1.474089e-002
2.935173e+003,1.461624e-002
2.937102e+003,1.452686e-002
2.939031e+003,1.441847e-002
2.940959e+003,1.431418e-002
2.942887e+003,1.413851e-002
2.944816e+003,1.393601e-002
2.946744e+003,1.385523e-002
2.948673e+003,1.371339e-002
2.950601e+003,1.357348e-002
2.952530e+003,1.354102e-002
2.954458e+003,1.348651e-002
2.956387e+003,1.332094e-002
2.958315e+003,1.319038e-002
2.960244e+003,1.315147e-002
2.962172e+003,1.304770e-002
2.964101e+003,1.299506e-002
2.966029e+003,1.289129e-002
2.967958e+003,1.279086e-002
2.969886e+003,1.274981e-002
2.971815e+003,1.270760e-002
2.973743e+003,1.259607e-002
2.975672e+003,1.254149e-002
2.977600e+003,1.255911e-002
2.979529e+003,1.252185e-002
2.981457e+003,1.246756e-002
2.983386e+003,1.244456e-002
2.985314e+003,1.234679e-002
2.987243e+003,1.229901e-002
2.989171e+003,1.233057e-002
2.991100e+003,1.231355e-002
2.993028e+003,1.233135e-002
2.994957e+003,1.230258e-002
2.996885e+003,1.234594e-002
2.998814e+003,1.233721e-002
3.000742e+003,1.224261e-002
3.002671e+003,1.222631e-002
3.004599e+003,1.224111e-002
3.006528e+003,1.224865e-002
3.008456e+003,1.230295e-002
3.010385e+003,1.237600e-002
3.012313e+003,1.239880e-002
3.014242e+003,1.236532e-002
3.016170e+003,1.241071e-002
3.018099e+003,1.246746e-002
3.020027e+003,1.244178e-002
3.021956e+003,1.235942e-002
3.023884e+003,1.240713e-002
3.025813e+003,1.247555e-002
3.027741e+003,1.242859e-002
3.029670e+003,1.252594e-002
3.031598e+003,1.262486e-002
3.033527e+003,1.263990e-002
3.035455e+003,1.267542e-002
3.037384e+003,1.266450e-002
3.039312e+003,1.269983e-002
3.041241e+003,1.265415e-002
3.043169e+003,1.264457e-002
3.045098e+003,1.274653e-002
3.047026e+003,1.279494e-002
3.048955e+003,1.281570e-002
3.050883e+003,1.285446e-002
3.052812e+003,1.283243e-002
3.054740e+003,1.288565e-002
3.056669e+003,1.295609e-002
3.058597e+003,1.302620e-002
3.060526e+003,1.302492e-002
3.062454e+003,1.306141e-002
3.064383e+003,1.308718e-002
3.066311e+003,1.321399e-002
3.068240e+003,1.325365e-002
3.070168e+003,1.319622e-002
3.072097e+003,1.320821e-002
3.074025e+003,1.331069e-002
3.075954e+003,1.336319e-002
3.077882e+003,1.335851e-002
3.079811e+003,1.341524e-002
3.081739e+003,1.341186e-002
3.083668e+003,1.345938e-002
3.085596e+003,1.349895e-002
3.087525e+003,1.358176e-002
3.089453e+003,1.359602e-002
3.091382e+003,1.358713e-002
3.093310e+003,1.362859e-002
3.095239e+003,1.369066e-002
3.097167e+003,1.377221e-002
3.099096e+003,1.385044e-002
3.101024e+003,1.386798e-002
3.102953e+003,1.388233e-002
3.104881e+003,1.388728e-002
3.106810e+003,1.393565e-002
3.108738e+003,1.397891e-002
3.110667e+003,1.400678e-002
3.112595e+003,1.404012e-002
3.114524e+003,1.414179e-002
3.116452e+003,1.418581e-002
3.118381e+003,1.420676e-002
3.120309e+003,1.423259e-002
3.122238e+003,1.421324e-002
3.124166e+003,1.431273e-002
3.126095e+003,1.439265e-002
3.128023e+003,1.449211e-002
3.129952e+003,1.453656e-002
3.131880e+003,1.457785e-002
3.133809e+003,1.463703e-002
3.135737e+003,1.473322e-002
3.137666e+003,1.474010e-002
3.139594e+003,1.474369e-002
3.141523e+003,1.486781e-002
3.143451e+003,1.494509e-002
3.145380e+003,1.498234e-002
3.147308e+003,1.502615e-002
3.149237e+003,1.502790e-002
3.151165e+003,1.505117e-002
3.153094e+003,1.514002e-002
3.155022e+003,1.520629e-002
3.156951e+003,1.522718e-002
3.158879e+003,1.529463e-002
3.160808e+003,1.531908e-002
3.162736e+003,1.536484e-002
3.164665e+003,1.543675e-002
3.166593e+003,1.551448e-002
3.168522e+003,1.564656e-002
3.170450e+003,1.565243e-002
3.172379e+003,1.564243e-002
3.174307e+003,1.578464e-002
3.176236e+003,1.586685e-002
3.178164e+003,1.590234e-002
3.180093e+003,1.586930e-002
3.182021e+003,1.594728e-002
3.183950e+003,1.603617e-002
3.185878e+003,1.613437e-002
3.187807e+003,1.627188e-002
3.189735e+003,1.634860e-002
3.191664e+003,1.645131e-002
3.193592e+003,1.651406e-002
3.195521e+003,1.654253e-002
3.197449e+003,1.657023e-002
3.199378e+003,1.660330e-002
3.201306e+003,1.669229e-002
3.203235e+003,1.677887e-002
3.205163e+003,1.690689e-002
3.207092e+003,1.695265e-002
3.209020e+003,1.698198e-002
3.210948e+003,1.701973e-002
3.212877e+003,1.711164e-002
3.214806e+003,1.720279e-002
3.216734e+003,1.725275e-002
3.218663e+003,1.726002e-002
3.220591e+003,1.735224e-002
3.222520e+003,1.748739e-002
3.224448e+003,1.755571e-002
3.226376e+003,1.760028e-002
3.228305e+003,1.768028e-002
3.230234e+003,1.780365e-002
3.232162e+003,1.789510e-002
3.234091e+003,1.796162e-002
3.236019e+003,1.803622e-002
3.237948e+003,1.809926e-002
3.239876e+003,1.811590e-002
3.241804e+003,1.819712e-002
3.243733e+003,1.828622e-002
3.245662e+003,1.829510e-002
3.247590e+003,1.833705e-002
3.249519e+003,1.851250e-002
3.251447e+003,1.875027e-002
3.253375e+003,1.882012e-002
3.255304e+003,1.880356e-002
3.257232e+003,1.884699e-002
3.259161e+003,1.885557e-002
3.261090e+003,1.886695e-002
3.263018e+003,1.898246e-002
3.264947e+003,1.911455e-002
3.266875e+003,1.920004e-002
3.268803e+003,1.926517e-002
3.270732e+003,1.925343e-002
3.272660e+003,1.927588e-002
3.274589e+003,1.930683e-002
3.276518e+003,1.939963e-002
3.278446e+003,1.946056e-002
3.280375e+003,1.946018e-002
3.282303e+003,1.950869e-002
3.284231e+003,1.954804e-002
3.286160e+003,1.961288e-002
3.288088e+003,1.960048e-002
3.290017e+003,1.960955e-002
3.291946e+003,1.962350e-002
3.293874e+003,1.970712e-002
3.295802e+003,1.974507e-002
3.297731e+003,1.975479e-002
3.299659e+003,1.969237e-002
3.301588e+003,1.960099e-002
3.303516e+003,1.960171e-002
3.305445e+003,1.971573e-002
3.307374e+003,1.978910e-002
3.309302e+003,1.968250e-002
3.311230e+003,1.969202e-002
3.313159e+003,1.978466e-002
3.315087e+003,1.981259e-002
3.317016e+003,1.982972e-002
3.318944e+003,1.993206e-002
3.320873e+003,1.995392e-002
3.322802e+003,1.999142e-002
3.324730e+003,2.007828e-002
3.326658e+003,2.006813e-002
3.328587e+003,2.003644e-002
3.330515e+003,2.004304e-002
3.332444e+003,2.007589e-002
3.334372e+003,2.001941e-002
3.336301e+003,2.004246e-002
3.338229e+003,2.010376e-002
3.340158e+003,2.015059e-002
3.342086e+003,2.006993e-002
3.344015e+003,2.001839e-002
3.345943e+003,2.000390e-002
3.347872e+003,1.997866e-002
3.349800e+003,1.993841e-002
3.351729e+003,1.994395e-002
3.353657e+003,1.992081e-002
3.355586e+003,1.990677e-002
3.357514e+003,1.982170e-002
3.359443e+003,1.967787e-002
3.361371e+003,1.957797e-002
3.363300e+003,1.965584e-002
3.365229e+003,1.962595e-002
3.367157e+003,1.953447e-002
3.369085e+003,1.951167e-002
3.371014e+003,1.950681e-002
3.372942e+003,1.945811e-002
3.374871e+003,1.942085e-002
3.376799e+003,1.939457e-002
3.378728e+003,1.937019e-002
3.380656e+003,1.928497e-002
3.382585e+003,1.920307e-002
3.384513e+003,1.917040e-002
3.386442e+003,1.920652e-002
3.388370e+003,1.912757e-002
3.390299e+003,1.907640e-002
3.392227e+003,1.905553e-002
3.394156e+003,1.901979e-002
3.396084e+003,1.892886e-002
3.398013e+003,1.885662e-002
3.399941e+003,1.881180e-002
3.401870e+003,1.870008e-002
3.403798e+003,1.866307e-002
3.405727e+003,1.861088e-002
3.407655e+003,1.852187e-002
3.409584e+003,1.849667e-002
3.411512e+003,1.842352e-002
3.413441e+003,1.840555e-002
3.415369e+003,1.834626e-002
3.417298e+003,1.817316e-002
3.419226e+003,1.799690e-002
3.421155e+003,1.800456e-002
3.423083e+003,1.796356e-002
3.425012e+003,1.783171e-002
3.426940e+003,1.770593e-002
3.428869e+003,1.765189e-002
3.430797e+003,1.761450e-002
3.432726e+003,1.748598e-002
3.434654e+003,1.735291e-002
3.436583e+003,1.726139e-002
3.438511e+003,1.714717e-002
3.440440e+003,1.706211e-002
3.442368e+003,1.697230e-002
3.444297e+003,1.687769e-002
3.446225e+003,1.676087e-002
3.448154e+003,1.660364e-002
3.450082e+003,1.647976e-002
3.452011e+003,1.640919e-002
3.453939e+003,1.635936e-002
3.455868e+003,1.623766e-002
3.457796e+003,1.611222e-002
3.459725e+003,1.600601e-002
3.461653e+003,1.584650e-002
3.463582e+003,1.575639e-002
3.465510e+003,1.560488e-002
3.467439e+003,1.552183e-002
3.469367e+003,1.541008e-002
3.471296e+003,1.530814e-002
3.473224e+003,1.525140e-002
3.475153e+003,1.517395e-002
3.477081e+003,1.506382e-002
3.479010e+003,1.497027e-002
3.480938e+003,1.480367e-002
3.482867e+003,1.465382e-002
3.484795e+003,1.459951e-002
3.486724e+003,1.451248e-002
3.488652e+003,1.437452e-002
3.490581e+003,1.432348e-002
3.492509e+003,1.425906e-002
3.494438e+003,1.425332e-002
3.496366e+003,1.414871e-002
3.498295e+003,1.409925e-002
3.500223e+003,1.406602e-002
3.502152e+003,1.393497e-002
3.504080e+003,1.380999e-002
3.506009e+003,1.371204e-002
3.507937e+003,1.367269e-002
3.509866e+003,1.354682e-002
3.511794e+003,1.338087e-002
3.513723e+003,1.330846e-002
3.515651e+003,1.332349e-002
3.517580e+003,1.321014e-002
3.519508e+003,1.305445e-002
3.521437e+003,1.304618e-002
3.523365e+003,1.289657e-002
3.525294e+003,1.282217e-002
3.527222e+003,1.273418e-002
3.529151e+003,1.260652e-002
3.531079e+003,1.255868e-002
3.533008e+003,1.260172e-002
3.534936e+003,1.257585e-002
3.536865e+003,1.248162e-002
3.538793e+003,1.228576e-002
3.540722e+003,1.215966e-002
3.542650e+003,1.210510e-002
3.544579e+003,1.197986e-002
3.546507e+003,1.188672e-002
3.548436e+003,1.186741e-002
3.550364e+003,1.181167e-002
3.552293e+003,1.181758e-002
3.554221e+003,1.179178e-002
3.556150e+003,1.171894e-002
3.558078e+003,1.144888e-002
3.560007e+003,1.133838e-002
3.561935e+003,1.127179e-002
3.563864e+003,1.123885e-002
3.565792e+003,1.111228e-002
3.567721e+003,1.117905e-002
3.569649e+003,1.114675e-002
3.571578e+003,1.102117e-002
3.573506e+003,1.087811e-002
3.575435e+003,1.067062e-002
3.577363e+003,1.053919e-002
3.579292e+003,1.054938e-002
3.581220e+003,1.053807e-002
3.583149e+003,1.039189e-002
3.585077e+003,1.025598e-002
3.587006e+003,1.020559e-002
3.588934e+003,1.009249e-002
3.590863e+003,9.824936e-003
3.592791e+003,9.693230e-003
3.594720e+003,9.645330e-003
3.596648e+003,9.516856e-003
3.598577e+003,9.402817e-003
3.600505e+003,9.419393e-003
3.602434e+003,9.412762e-003
3.604362e+003,9.415316e-003
3.606291e+003,9.538413e-003
3.608219e+003,9.535195e-003
3.610148e+003,9.717305e-003
3.612076e+003,9.877753e-003
3.614005e+003,9.731715e-003
3.615933e+003,9.428305e-003
3.617862e+003,9.202482e-003
3.619790e+003,9.077065e-003
3.621719e+003,8.985911e-003
3.623647e+003,8.851516e-003
3.625576e+003,8.797152e-003
3.627504e+003,8.800274e-003
3.629433e+003,8.711149e-003
3.631361e+003,8.591801e-003
3.633290e+003,8.750468e-003
3.635218e+003,8.876066e-003
3.637146e+003,8.897940e-003
3.639075e+003,8.938677e-003
3.641004e+003,9.039465e-003
3.642932e+003,9.102827e-003
3.644861e+003,9.102621e-003
3.646789e+003,9.107983e-003
3.648718e+003,9.122468e-003
3.650646e+003,9.084429e-003
3.652574e+003,8.975937e-003
3.654503e+003,8.987400e-003
3.656432e+003,9.077492e-003
3.658360e+003,9.016807e-003
3.660289e+003,8.978612e-003
3.662217e+003,8.874508e-003
3.664146e+003,8.844298e-003
3.666074e+003,8.872758e-003
3.668002e+003,8.823923e-003
3.669931e+003,8.834398e-003
3.671860e+003,8.848809e-003
3.673788e+003,8.754401e-003
3.675717e+003,8.673063e-003
3.677645e+003,8.687175e-003
3.679573e+003,8.666098e-003
3.681502e+003,8.483396e-003
3.683430e+003,8.381060e-003
3.685359e+003,8.340387e-003
3.687288e+003,8.328340e-003
3.689216e+003,8.263173e-003
3.691145e+003,8.234043e-003
3.693073e+003,8.210337e-003
3.695001e+003,8.118795e-003
3.696930e+003,7.999619e-003
3.698858e+003,7.878583e-003
3.700787e+003,7.735742e-003
3.702716e+003,7.711026e-003
3.704644e+003,7.712020e-003
3.706573e+003,7.764002e-003
3.708501e+003,8.001947e-003
3.710429e+003,8.066212e-003
3.712358e+003,8.191076e-003
3.714286e+003,8.368658e-003
3.716215e+003,8.334463e-003
3.718144e+003,8.089681e-003
3.720072e+003,7.958343e-003
3.722000e+003,7.830869e-003
3.723929e+003,7.663726e-003
3.725857e+003,7.567775e-003
3.727786e+003,7.502486e-003
3.729714e+003,7.476438e-003
3.731643e+003,7.569188e-003
3.733572e+003,7.696346e-003
3.735500e+003,7.731197e-003
3.737428e+003,7.914660e-003
3.739357e+003,8.178662e-003
3.741285e+003,8.304683e-003
3.743214e+003,8.357141e-003
3.745142e+003,8.384132e-003
3.747071e+003,8.543146e-003
3.749000e+003,8.626586e-003
3.750928e+003,8.659516e-003
3.752856e+003,8.662015e-003
3.754785e+003,8.676651e-003
3.756713e+003,8.595322e-003
3.758642e+003,8.501762e-003
3.760570e+003,8.673428e-003
3.762499e+003,8.786094e-003
3.764427e+003,8.736658e-003
3.766356e+003,8.674620e-003
3.768284e+003,8.725137e-003
3.770213e+003,8.708293e-003
3.772141e+003,8.674268e-003
3.774070e+003,8.748134e-003
3.775998e+003,8.749500e-003
3.777927e+003,8.649317e-003
3.779855e+003,8.607245e-003
3.781784e+003,8.585035e-003
3.783712e+003,8.667709e-003
3.785641e+003,8.730649e-003
3.787569e+003,8.696956e-003
3.789498e+003,8.714303e-003
3.791426e+003,8.625995e-003
3.793355e+003,8.609341e-003
3.795283e+003,8.655120e-003
3.797212e+003,8.692471e-003
3.799140e+003,8.751282e-003
3.801069e+003,8.772450e-003
3.802997e+003,8.616608e-003
3.804926e+003,8.647013e-003
3.806854e+003,8.725073e-003
3.808783e+003,8.674718e-003
3.810711e+003,8.701414e-003
3.812640e+003,8.700243e-003
3.814568e+003,8.706292e-003
3.816497e+003,8.658499e-003
3.818425e+003,8.688711e-003
3.820354e+003,8.689810e-003
3.822282e+003,8.723877e-003
3.824211e+003,8.720622e-003
3.826139e+003,8.681140e-003
3.828068e+003,8.708075e-003
3.829996e+003,8.782627e-003
3.831925e+003,8.745825e-003
3.833853e+003,8.706694e-003
3.835782e+003,8.764650e-003
3.837710e+003,8.815425e-003
3.839639e+003,8.741959e-003
3.841567e+003,8.721281e-003
3.843496e+003,8.784828e-003
3.845424e+003,8.849690e-003
3.847353e+003,8.710264e-003
3.849281e+003,8.643170e-003
3.851210e+003,8.744271e-003
3.853138e+003,8.764514e-003
3.855067e+003,8.782701e-003
3.856995e+003,8.814918e-003
3.858924e+003,8.875844e-003
3.860852e+003,8.908741e-003
3.862781e+003,8.902174e-003
3.864709e+003,8.864478e-003
3.866638e+003,8.785912e-003
3.868566e+003,8.734141e-003
3.870495e+003,8.780673e-003
3.872423e+003,8.891267e-003
3.874352e+003,8.943539e-003
3.876280e+003,8.915467e-003
3.878209e+003,8.868275e-003
3.880137e+003,8.885232e-003
3.882066e+003,8.880392e-003
3.883994e+003,8.837455e-003
3.885923e+003,8.710615e-003
3.887851e+003,8.768177e-003
3.889780e+003,8.934765e-003
3.891708e+003,8.962388e-003
3.893637e+003,8.869203e-003
3.895565e+003,8.858650e-003
3.897494e+003,8.982792e-003
3.899422e+003,8.974720e-003
3.901351e+003,8.825376e-003
3.903279e+003,8.846230e-003
3.905208e+003,8.917123e-003
3.907136e+003,8.907437e-003
3.909065e+003,8.857270e-003
3.910993e+003,8.863867e-003
3.912922e+003,8.884076e-003
3.914850e+003,8.877353e-003
3.916779e+003,8.824084e-003
3.918707e+003,8.834708e-003
3.920636e+003,8.858903e-003
3.922564e+003,8.918285e-003
3.924493e+003,8.984098e-003
3.926421e+003,8.928300e-003
3.928350e+003,8.971040e-003
3.930278e+003,9.045705e-003
3.932207e+003,8.983084e-003
3.934135e+003,8.946294e-003
3.936064e+003,8.908784e-003
3.937992e+003,8.888559e-003
3.939921e+003,8.886830e-003
3.941849e+003,8.934371e-003
3.943778e+003,8.945821e-003
3.945706e+003,8.932687e-003
3.947635e+003,8.956067e-003
3.949563e+003,8.988279e-003
3.951492e+003,9.023054e-003
3.953420e+003,9.004074e-003
3.955349e+003,8.961570e-003
3.957277e+003,8.972763e-003
3.959206e+003,8.974931e-003
3.961134e+003,9.033401e-003
3.963063e+003,9.039672e-003
3.964991e+003,8.967524e-003
3.966920e+003,8.939781e-003
3.968848e+003,8.910671e-003
3.970777e+003,8.909118e-003
3.972705e+003,8.940336e-003
3.974634e+003,9.041649e-003
3.976562e+003,9.008361e-003
3.978491e+003,9.006634e-003
3.980419e+003,8.942338e-003
3.982348e+003,8.945546e-003
3.984276e+003,9.021644e-003
3.986205e+003,8.967952e-003
3.988133e+003,8.919941e-003
3.990062e+003,8.958450e-003
3.991990e+003,8.935718e-003
3.993919e+003,8.887798e-003
3.995847e+003,8.939205e-003
3.997776e+003,8.985864e-003
3.999704e+003,8.985933e-003
4.001633e+003,0.000000e+000
