3.991989e+002,4.125455e-002
4.011274e+002,4.875099e-002
4.030559e+002,4.875099e-002
4.049844e+002,4.853781e-002
4.069129e+002,4.778120e-002
4.088414e+002,4.905325e-002
4.107699e+002,5.124744e-002
4.126984e+002,5.137247e-002
4.146269e+002,5.170068e-002
4.165554e+002,5.053792e-002
4.184839e+002,5.144708e-002
4.204124e+002,5.269450e-002
4.223409e+002,5.375660e-002
4.242694e+002,5.519437e-002
4.261979e+002,5.428541e-002
4.281264e+002,5.397326e-002
4.300549e+002,5.474352e-002
4.319834e+002,5.593087e-002
4.339119e+002,5.678413e-002
4.358404e+002,5.679312e-002
4.377689e+002,5.718756e-002
4.396974e+002,5.760396e-002
4.416259e+002,5.768939e-002
4.435544e+002,5.782235e-002
4.454829e+002,5.756511e-002
4.474114e+002,5.746057e-002
4.493399e+002,5.760514e-002
4.512684e+002,5.690079e-002
4.531969e+002,5.730920e-002
4.551254e+002,5.757918e-002
4.570539e+002,5.778056e-002
4.589824e+002,5.902555e-002
4.609109e+002,5.890101e-002
4.628394e+002,5.799616e-002
4.647679e+002,5.750503e-002
4.666964e+002,5.725389e-002
4.686249e+002,5.747915e-002
4.705533e+002,5.747738e-002
4.724819e+002,5.671221e-002
4.744103e+002,5.581639e-002
4.763389e+002,5.538832e-002
4.782673e+002,5.514746e-002
4.801959e+002,5.520813e-002
4.821243e+002,5.479171e-002
4.840529e+002,5.365197e-002
4.859813e+002,5.306211e-002
4.879099e+002,5.240789e-002
4.898383e+002,5.246757e-002
4.917668e+002,5.248513e-002
4.936953e+002,5.209402e-002
4.956238e+002,5.163080e-002
4.975523e+002,5.083373e-002
4.994808e+002,5.040178e-002
5.014093e+002,5.020406e-002
5.033378e+002,5.102361e-002
5.052663e+002,5.099126e-002
5.071948e+002,5.123561e-002
5.091233e+002,5.153112e-002
5.110518e+002,5.168353e-002
5.129803e+002,5.187672e-002
5.149088e+002,5.221175e-002
5.168373e+002,5.236759e-002
5.187658e+002,5.288203e-002
5.206943e+002,5.310291e-002
5.226228e+002,5.319460e-002
5.245513e+002,5.307028e-002
5.264798e+002,5.285637e-002
5.284083e+002,5.240304e-002
5.303368e+002,5.269825e-002
5.322653e+002,5.260457e-002
5.341938e+002,5.235299e-002
5.361223e+002,5.200429e-002
5.380508e+002,5.204697e-002
5.399792e+002,5.165277e-002
5.419078e+002,5.126235e-002
5.438363e+002,5.098885e-002
5.457648e+002,5.147219e-002
5.476932e+002,5.209992e-002
5.496218e+002,5.187611e-002
5.515503e+002,5.210764e-002
5.534788e+002,5.253271e-002
5.554072e+002,5.263028e-002
5.573358e+002,5.347470e-002
5.592643e+002,5.330473e-002
5.611927e+002,5.317322e-002
5.631212e+002,5.268087e-002
5.650497e+002,5.222633e-002
5.669783e+002,5.205936e-002
5.689067e+002,5.138351e-002
5.708352e+002,5.104668e-002
5.727637e+002,5.089457e-002
5.746923e+002,5.092771e-002
5.766207e+002,5.095774e-002
5.785492e+002,5.061920e-002
5.804777e+002,5.050422e-002
5.824063e+002,5.026421e-002
5.843347e+002,5.008898e-002
5.862632e+002,5.000191e-002
5.881917e+002,5.004907e-002
5.901202e+002,5.021284e-002
5.920487e+002,5.048418e-002
5.939772e+002,5.019827e-002
5.959057e+002,4.979729e-002
5.978342e+002,4.925767e-002
5.997627e+002,4.885332e-002
6.016912e+002,4.912508e-002
6.036197e+002,4.919982e-002
6.055482e+002,4.902110e-002
6.074767e+002,4.880981e-002
6.094052e+002,4.872810e-002
6.113337e+002,4.871345e-002
6.132622e+002,4.813076e-002
6.151907e+002,4.756988e-002
6.171192e+002,4.756849e-002
6.190477e+002,4.716013e-002
6.209762e+002,4.658154e-002
6.229047e+002,4.585371e-002
6.248332e+002,4.519981e-002
6.267617e+002,4.469396e-002
6.286902e+002,4.407409e-002
6.306187e+002,4.371335e-002
6.325472e+002,4.339772e-002
6.344756e+002,4.295856e-002
6.364042e+002,4.263800e-002
6.383326e+002,4.248917e-002
6.402612e+002,4.217248e-002
6.421896e+002,4.173225e-002
6.441182e+002,4.139152e-002
6.460466e+002,4.105913e-002
6.479752e+002,4.074265e-002
6.499036e+002,4.060084e-002
6.518322e+002,4.043743e-002
6.537606e+002,4.040563e-002
6.556891e+002,4.025629e-002
6.576177e+002,4.017540e-002
6.595461e+002,4.027995e-002
6.614746e+002,4.063009e-002
6.634031e+002,4.102713e-002
6.653317e+002,4.124949e-002
6.672601e+002,4.073040e-002
6.691886e+002,4.037020e-002
6.711171e+002,3.986564e-002
6.730457e+002,3.892507e-002
6.749741e+002,3.772245e-002
6.769026e+002,3.695708e-002
6.788311e+002,3.623476e-002
6.807596e+002,3.531833e-002
6.826881e+002,3.467329e-002
6.846166e+002,3.409542e-002
6.865451e+002,3.395115e-002
6.884736e+002,3.393650e-002
6.904021e+002,3.379880e-002
6.923306e+002,3.366005e-002
6.942591e+002,3.361073e-002
6.961876e+002,3.359728e-002
6.981161e+002,3.344554e-002
7.000446e+002,3.329011e-002
7.019731e+002,3.315926e-002
7.039016e+002,3.288327e-002
7.058301e+002,3.267932e-002
7.077585e+002,3.242527e-002
7.096871e+002,3.218319e-002
7.116156e+002,3.192696e-002
7.135441e+002,3.166366e-002
7.154725e+002,3.148826e-002
7.174011e+002,3.140444e-002
7.193296e+002,3.142577e-002
7.212581e+002,3.103394e-002
7.231865e+002,3.044146e-002
7.251151e+002,3.021299e-002
7.270436e+002,3.001348e-002
7.289720e+002,2.979067e-002
7.309005e+002,2.947620e-002
7.328290e+002,2.902265e-002
7.347576e+002,2.878619e-002
7.366860e+002,2.874088e-002
7.386145e+002,2.865375e-002
7.405430e+002,2.849286e-002
7.424716e+002,2.825002e-002
7.444000e+002,2.796091e-002
7.463285e+002,2.778131e-002
7.482570e+002,2.756237e-002
7.501855e+002,2.732163e-002
7.521140e+002,2.709872e-002
7.540425e+002,2.702055e-002
7.559710e+002,2.685490e-002
7.578995e+002,2.676963e-002
7.598280e+002,2.672466e-002
7.617565e+002,2.657017e-002
7.636850e+002,2.645591e-002
7.656135e+002,2.638993e-002
7.675420e+002,2.626270e-002
7.694705e+002,2.611031e-002
7.713990e+002,2.604944e-002
7.733275e+002,2.615257e-002
7.752560e+002,2.623387e-002
7.771844e+002,2.636391e-002
7.791130e+002,2.638947e-002
7.810415e+002,2.632951e-002
7.829700e+002,2.614873e-002
7.848984e+002,2.600191e-002
7.868270e+002,2.577792e-002
7.887555e+002,2.553907e-002
7.906840e+002,2.537858e-002
7.926124e+002,2.523601e-002
7.945410e+002,2.518935e-002
7.964695e+002,2.511520e-002
7.983979e+002,2.484664e-002
8.003264e+002,2.468465e-002
8.022549e+002,2.456605e-002
8.041835e+002,2.445846e-002
8.061119e+002,2.430299e-002
8.080404e+002,2.428862e-002
8.099689e+002,2.424630e-002
8.118975e+002,2.404324e-002
8.138259e+002,2.383803e-002
8.157545e+002,2.383768e-002
8.176830e+002,2.360333e-002
8.196115e+002,2.335144e-002
8.215399e+002,2.329977e-002
8.234684e+002,2.319238e-002
8.253970e+002,2.308604e-002
8.273254e+002,2.302744e-002
8.292539e+002,2.295865e-002
8.311824e+002,2.281779e-002
8.331110e+002,2.267268e-002
8.350394e+002,2.263778e-002
8.369679e+002,2.262203e-002
8.388964e+002,2.260427e-002
8.408250e+002,2.244262e-002
8.427534e+002,2.231316e-002
8.446819e+002,2.231661e-002
8.466104e+002,2.229212e-002
8.485389e+002,2.229690e-002
8.504674e+002,2.228759e-002
8.523959e+002,2.218820e-002
8.543244e+002,2.211815e-002
8.562529e+002,2.217634e-002
8.581814e+002,2.222310e-002
8.601099e+002,2.224201e-002
8.620384e+002,2.226562e-002
8.639669e+002,2.227953e-002
8.658954e+002,2.242608e-002
8.678239e+002,2.265918e-002
8.697524e+002,2.275833e-002
8.716809e+002,2.283819e-002
8.736094e+002,2.295597e-002
8.755378e+002,2.309453e-002
8.774664e+002,2.337256e-002
8.793949e+002,2.363586e-002
8.813234e+002,2.384444e-002
8.832518e+002,2.427527e-002
8.851804e+002,2.477556e-002
8.871089e+002,2.526969e-002
8.890374e+002,2.589037e-002
8.909658e+002,2.658419e-002
8.928943e+002,2.716478e-002
8.948229e+002,2.739496e-002
8.967513e+002,2.760372e-002
8.986798e+002,2.772951e-002
9.006083e+002,2.752591e-002
9.025369e+002,2.714252e-002
9.044653e+002,2.666243e-002
9.063938e+002,2.628934e-002
9.083223e+002,2.601426e-002
9.102509e+002,2.581262e-002
9.121793e+002,2.570233e-002
9.141078e+002,2.563210e-002
9.160364e+002,2.569361e-002
9.179648e+002,2.576670e-002
9.198933e+002,2.595439e-002
9.218218e+002,2.610169e-002
9.237504e+002,2.618312e-002
9.256788e+002,2.637063e-002
9.276073e+002,2.676388e-002
9.295358e+002,2.710298e-002
9.314644e+002,2.735226e-002
9.333928e+002,2.768080e-002
9.353213e+002,2.797225e-002
9.372498e+002,2.833313e-002
9.391783e+002,2.885445e-002
9.411068e+002,2.943535e-002
9.430353e+002,3.004679e-002
9.449637e+002,3.080582e-002
9.468923e+002,3.164594e-002
9.488208e+002,3.235223e-002
9.507493e+002,3.319073e-002
9.526777e+002,3.404009e-002
9.546063e+002,3.493397e-002
9.565348e+002,3.585764e-002
9.584633e+002,3.676474e-002
9.603917e+002,3.766111e-002
9.623203e+002,3.862761e-002
9.642488e+002,3.956401e-002
9.661772e+002,4.044446e-002
9.681057e+002,4.130968e-002
9.700343e+002,4.219064e-002
9.719628e+002,4.303118e-002
9.738912e+002,4.405370e-002
9.758197e+002,4.519182e-002
9.777483e+002,4.644192e-002
9.796768e+002,4.791260e-002
9.816052e+002,4.963130e-002
9.835337e+002,5.138073e-002
9.854623e+002,5.304845e-002
9.873907e+002,5.456870e-002
9.893192e+002,5.579024e-002
9.912477e+002,5.657993e-002
9.931763e+002,5.705513e-002
9.951047e+002,5.732516e-002
9.970332e+002,5.765279e-002
9.989617e+002,5.829969e-002
1.000890e+003,5.932583e-002
1.002819e+003,6.042031e-002
1.004747e+003,6.143732e-002
1.006676e+003,6.241012e-002
1.008604e+003,6.330547e-002
1.010533e+003,6.402801e-002
1.012461e+003,6.470698e-002
1.014390e+003,6.546298e-002
1.016318e+003,6.666789e-002
1.018247e+003,6.828244e-002
1.020175e+003,7.000874e-002
1.022104e+003,7.170112e-002
1.024032e+003,7.339036e-002
1.025961e+003,7.504814e-002
1.027889e+003,7.671678e-002
1.029818e+003,7.820889e-002
1.031746e+003,7.939146e-002
1.033675e+003,8.027607e-002
1.035603e+003,8.050773e-002
1.037532e+003,8.001024e-002
1.039460e+003,7.926486e-002
1.041389e+003,7.842072e-002
1.043317e+003,7.765476e-002
1.045246e+003,7.705526e-002
1.047174e+003,7.657278e-002
1.049103e+003,7.621785e-002
1.051031e+003,7.599273e-002
1.052960e+003,7.567050e-002
1.054888e+003,7.505582e-002
1.056817e+003,7.408312e-002
1.058745e+003,7.295625e-002
1.060674e+003,7.165653e-002
1.062602e+003,7.023782e-002
1.064531e+003,6.873833e-002
1.066459e+003,6.718818e-002
1.068388e+003,6.560747e-002
1.070316e+003,6.417878e-002
1.072245e+003,6.283235e-002
1.074173e+003,6.165039e-002
1.076102e+003,6.039815e-002
1.078030e+003,5.903467e-002
1.079959e+003,5.780591e-002
1.081887e+003,5.656408e-002
1.083816e+003,5.548118e-002
1.085744e+003,5.477471e-002
1.087673e+003,5.424241e-002
1.089601e+003,5.380575e-002
1.091530e+003,5.343515e-002
1.093458e+003,5.311072e-002
1.095387e+003,5.276458e-002
1.097315e+003,5.249591e-002
1.099244e+003,5.236581e-002
1.101172e+003,5.232424e-002
1.103101e+003,5.209855e-002
1.105029e+003,5.164829e-002
1.106958e+003,5.099001e-002
1.108886e+003,5.002871e-002
1.110815e+003,4.880437e-002
1.112743e+003,4.737313e-002
1.114672e+003,4.575384e-002
1.116600e+003,4.414374e-002
1.118529e+003,4.275604e-002
1.120457e+003,4.156290e-002
1.122386e+003,4.042344e-002
1.124314e+003,3.926574e-002
1.126243e+003,3.798496e-002
1.128171e+003,3.672627e-002
1.130100e+003,3.552109e-002
1.132028e+003,3.443472e-002
1.133957e+003,3.343125e-002
1.135885e+003,3.258106e-002
1.137814e+003,3.192094e-002
1.139742e+003,3.152917e-002
1.141671e+003,3.142770e-002
1.143599e+003,3.150633e-002
1.145528e+003,3.174363e-002
1.147456e+003,3.216529e-002
1.149385e+003,3.257921e-002
1.151313e+003,3.307844e-002
1.153242e+003,3.358243e-002
1.155170e+003,3.404002e-002
1.157099e+003,3.444641e-002
1.159027e+003,3.472660e-002
1.160956e+003,3.474677e-002
1.162884e+003,3.437077e-002
1.164813e+003,3.366330e-002
1.166741e+003,3.263446e-002
1.168670e+003,3.128596e-002
1.170598e+003,2.981924e-002
1.172526e+003,2.836599e-002
1.174455e+003,2.697463e-002
1.176384e+003,2.571312e-002
1.178312e+003,2.461328e-002
1.180240e+003,2.364849e-002
1.182169e+003,2.285534e-002
1.184098e+003,2.225477e-002
1.186026e+003,2.181325e-002
1.187954e+003,2.159637e-002
1.189883e+003,2.147476e-002
1.191812e+003,2.144826e-002
1.193740e+003,2.156478e-002
1.195668e+003,2.179373e-002
1.197597e+003,2.205603e-002
1.199526e+003,2.227760e-002
1.201454e+003,2.235923e-002
1.203382e+003,2.231596e-002
1.205311e+003,2.218702e-002
1.207240e+003,2.203212e-002
1.209168e+003,2.185004e-002
1.211096e+003,2.171805e-002
1.213025e+003,2.176200e-002
1.214953e+003,2.189265e-002
1.216882e+003,2.206830e-002
1.218810e+003,2.232543e-002
1.220739e+003,2.256809e-002
1.222667e+003,2.285296e-002
1.224596e+003,2.321421e-002
1.226524e+003,2.358441e-002
1.228453e+003,2.389629e-002
1.230381e+003,2.418442e-002
1.232310e+003,2.443235e-002
1.234238e+003,2.460232e-002
1.236167e+003,2.470776e-002
1.238095e+003,2.474790e-002
1.240024e+003,2.478389e-002
1.241952e+003,2.475856e-002
1.243881e+003,2.464560e-002
1.245809e+003,2.452355e-002
1.247738e+003,2.431565e-002
1.249666e+003,2.403823e-002
1.251595e+003,2.377196e-002
1.253523e+003,2.352647e-002
1.255452e+003,2.326081e-002
1.257380e+003,2.292185e-002
1.259309e+003,2.259301e-002
1.261237e+003,2.222768e-002
1.263166e+003,2.188262e-002
1.265094e+003,2.151506e-002
1.267023e+003,2.115093e-002
1.268951e+003,2.077672e-002
1.270880e+003,2.040031e-002
1.272808e+003,2.005052e-002
1.274737e+003,1.973107e-002
1.276665e+003,1.947417e-002
1.278594e+003,1.929647e-002
1.280522e+003,1.914965e-002
1.282451e+003,1.898902e-002
1.284379e+003,1.884583e-002
1.286308e+003,1.872583e-002
1.288236e+003,1.859563e-002
1.290165e+003,1.856927e-002
1.292093e+003,1.863923e-002
1.294022e+003,1.873055e-002
1.295950e+003,1.893481e-002
1.297879e+003,1.919030e-002
1.299807e+003,1.941067e-002
1.301736e+003,1.971233e-002
1.303664e+003,2.010868e-002
1.305593e+003,2.052821e-002
1.307521e+003,2.099231e-002
1.309450e+003,2.149242e-002
1.311378e+003,2.196786e-002
1.313307e+003,2.241692e-002
1.315235e+003,2.279397e-002
1.317164e+003,2.299894e-002
1.319092e+003,2.308095e-002
1.321021e+003,2.305969e-002
1.322949e+003,2.299872e-002
1.324878e+003,2.293793e-002
1.326806e+003,2.281713e-002
1.328735e+003,2.265529e-002
1.330663e+003,2.245400e-002
1.332592e+003,2.214479e-002
1.334520e+003,2.175900e-002
1.336449e+003,2.137673e-002
1.338377e+003,2.098354e-002
1.340306e+003,2.058471e-002
1.342234e+003,2.029310e-002
1.344163e+003,2.012053e-002
1.346091e+003,2.003554e-002
1.348020e+003,2.007218e-002
1.349948e+003,2.014909e-002
1.351877e+003,2.027181e-002
1.353805e+003,2.046229e-002
1.355734e+003,2.066100e-002
1.357662e+003,2.086520e-002
1.359591e+003,2.106442e-002
1.361519e+003,2.124698e-002
1.363448e+003,2.143143e-002
1.365376e+003,2.158752e-002
1.367305e+003,2.169491e-002
1.369233e+003,2.166206e-002
1.371162e+003,2.148592e-002
1.373090e+003,2.125324e-002
1.375019e+003,2.101647e-002
1.376947e+003,2.071081e-002
1.378876e+003,2.033450e-002
1.380804e+003,1.990716e-002
1.382733e+003,1.947683e-002
1.384661e+003,1.907674e-002
1.386590e+003,1.872929e-002
1.388518e+003,1.846022e-002
1.390447e+003,1.824237e-002
1.392375e+003,1.803535e-002
1.394304e+003,1.789835e-002
1.396232e+003,1.782464e-002
1.398161e+003,1.783154e-002
1.400089e+003,1.783523e-002
1.402018e+003,1.783214e-002
1.403946e+003,1.784780e-002
1.405875e+003,1.794097e-002
1.407803e+003,1.801768e-002
1.409732e+003,1.810650e-002
1.411660e+003,1.824532e-002
1.413589e+003,1.838045e-002
1.415517e+003,1.852815e-002
1.417446e+003,1.866011e-002
1.419374e+003,1.878626e-002
1.421303e+003,1.890316e-002
1.423231e+003,1.894402e-002
1.425160e+003,1.894072e-002
1.427088e+003,1.890042e-002
1.429017e+003,1.882789e-002
1.430945e+003,1.862726e-002
1.432874e+003,1.841640e-002
1.434802e+003,1.819964e-002
1.436731e+003,1.801787e-002
1.438659e+003,1.782012e-002
1.440588e+003,1.760297e-002
1.442516e+003,1.743081e-002
1.444445e+003,1.732500e-002
1.446373e+003,1.727605e-002
1.448302e+003,1.720973e-002
1.450230e+003,1.712010e-002
1.452159e+003,1.704844e-002
1.454087e+003,1.695092e-002
1.456016e+003,1.684387e-002
1.457944e+003,1.665489e-002
1.459873e+003,1.653145e-002
1.461801e+003,1.645934e-002
1.463730e+003,1.627067e-002
1.465658e+003,1.599998e-002
1.467587e+003,1.562153e-002
1.469515e+003,1.517901e-002
1.471444e+003,1.474100e-002
1.473372e+003,1.434858e-002
1.475301e+003,1.397323e-002
1.477229e+003,1.367480e-002
1.479158e+003,1.345490e-002
1.481086e+003,1.332907e-002
1.483015e+003,1.325771e-002
1.484943e+003,1.326746e-002
1.486872e+003,1.332032e-002
1.488800e+003,1.340173e-002
1.490729e+003,1.355712e-002
1.492657e+003,1.373639e-002
1.494586e+003,1.388702e-002
1.496514e+003,1.399435e-002
1.498443e+003,1.413174e-002
1.500371e+003,1.431070e-002
1.502300e+003,1.446570e-002
1.504228e+003,1.461863e-002
1.506157e+003,1.475069e-002
1.508085e+003,1.484120e-002
1.510014e+003,1.491561e-002
1.511942e+003,1.501762e-002
1.513871e+003,1.513075e-002
1.515799e+003,1.516556e-002
1.517728e+003,1.509290e-002
1.519656e+003,1.494236e-002
1.521585e+003,1.480026e-002
1.523513e+003,1.468750e-002
1.525442e+003,1.459069e-002
1.527370e+003,1.453519e-002
1.529299e+003,1.455764e-002
1.531227e+003,1.454356e-002
1.533156e+003,1.451247e-002
1.535084e+003,1.454404e-002
1.537013e+003,1.458395e-002
1.538941e+003,1.460916e-002
1.540870e+003,1.459673e-002
1.542798e+003,1.458341e-002
1.544727e+003,1.455816e-002
1.546655e+003,1.455598e-002
1.548584e+003,1.454620e-002
1.550512e+003,1.451629e-002
1.552441e+003,1.449129e-002
1.554369e+003,1.444794e-002
1.556298e+003,1.442192e-002
1.558226e+003,1.444195e-002
1.560155e+003,1.454148e-002
1.562083e+003,1.456948e-002
1.564012e+003,1.461552e-002
1.565940e+003,1.472429e-002
1.567869e+003,1.480514e-002
1.569797e+003,1.489600e-002
1.571726e+003,1.502415e-002
1.573654e+003,1.518541e-002
1.575583e+003,1.536174e-002
1.577511e+003,1.559283e-002
1.579440e+003,1.582245e-002
1.581368e+003,1.608030e-002
1.583297e+003,1.632817e-002
1.585225e+003,1.663041e-002
1.587154e+003,1.698519e-002
1.589082e+003,1.728892e-002
1.591010e+003,1.754989e-002
1.592939e+003,1.782110e-002
1.594868e+003,1.808147e-002
1.596796e+003,1.841988e-002
1.598724e+003,1.872128e-002
1.600653e+003,1.895249e-002
1.602582e+003,1.913194e-002
1.604510e+003,1.939533e-002
1.606438e+003,1.961194e-002
1.608367e+003,1.978730e-002
1.610296e+003,2.008272e-002
1.612224e+003,2.044384e-002
1.614152e+003,2.073420e-002
1.616081e+003,2.108874e-002
1.618010e+003,2.139635e-002
1.619938e+003,2.155278e-002
1.621866e+003,2.177016e-002
1.623795e+003,2.193291e-002
1.625724e+003,2.196135e-002
1.627652e+003,2.190666e-002
1.629580e+003,2.186263e-002
1.631509e+003,2.177707e-002
1.633438e+003,2.173817e-002
1.635366e+003,2.166014e-002
1.637294e+003,2.159346e-002
1.639223e+003,2.150741e-002
1.641151e+003,2.143048e-002
1.643080e+003,2.135418e-002
1.645008e+003,2.131456e-002
1.646937e+003,2.122219e-002
1.648865e+003,2.110844e-002
1.650794e+003,2.090568e-002
1.652722e+003,2.066672e-002
1.654651e+003,2.043042e-002
1.656579e+003,2.006701e-002
1.658508e+003,1.963899e-002
1.660436e+003,1.917983e-002
1.662365e+003,1.866521e-002
1.664293e+003,1.817673e-002
1.666222e+003,1.772137e-002
1.668150e+003,1.716860e-002
1.670079e+003,1.666038e-002
1.672007e+003,1.625305e-002
1.673936e+003,1.581054e-002
1.675864e+003,1.544820e-002
1.677793e+003,1.511030e-002
1.679721e+003,1.474442e-002
1.681650e+003,1.433768e-002
1.683578e+003,1.404254e-002
1.685507e+003,1.383389e-002
1.687435e+003,1.353823e-002
1.689364e+003,1.329512e-002
1.691292e+003,1.311137e-002
1.693221e+003,1.294364e-002
1.695149e+003,1.282069e-002
1.697078e+003,1.264884e-002
1.699006e+003,1.238761e-002
1.700935e+003,1.220085e-002
1.702863e+003,1.207366e-002
1.704792e+003,1.200119e-002
1.706720e+003,1.196425e-002
1.708649e+003,1.196363e-002
1.710577e+003,1.197080e-002
1.712506e+003,1.202910e-002
1.714434e+003,1.207200e-002
1.716363e+003,1.213063e-002
1.718291e+003,1.223390e-002
1.720220e+003,1.232281e-002
1.722148e+003,1.240349e-002
1.724077e+003,1.258629e-002
1.726005e+003,1.266197e-002
1.727934e+003,1.268002e-002
1.729862e+003,1.272782e-002
1.731791e+003,1.267627e-002
1.733719e+003,1.253798e-002
1.735648e+003,1.231600e-002
1.737576e+003,1.198133e-002
1.739505e+003,1.159775e-002
1.741433e+003,1.117041e-002
1.743362e+003,1.075476e-002
1.745290e+003,1.042195e-002
1.747219e+003,1.010702e-002
1.749147e+003,9.807880e-003
1.751076e+003,9.654834e-003
1.753004e+003,9.478427e-003
1.754933e+003,9.300264e-003
1.756861e+003,9.198190e-003
1.758790e+003,9.053668e-003
1.760718e+003,8.912422e-003
1.762647e+003,8.836179e-003
1.764575e+003,8.724706e-003
1.766504e+003,8.576191e-003
1.768432e+003,8.495860e-003
1.770361e+003,8.470316e-003
1.772289e+003,8.412615e-003
1.774218e+003,8.373041e-003
1.776146e+003,8.290732e-003
1.778075e+003,8.211937e-003
1.780003e+003,8.237771e-003
1.781932e+003,8.310168e-003
1.783860e+003,8.306994e-003
1.785789e+003,8.291162e-003
1.787717e+003,8.257478e-003
1.789646e+003,8.211704e-003
1.791574e+003,8.161251e-003
1.793503e+003,8.220114e-003
1.795431e+003,8.255203e-003
1.797360e+003,8.227597e-003
1.799288e+003,8.177857e-003
1.801217e+003,8.178513e-003
1.803145e+003,8.199988e-003
1.805074e+003,8.219901e-003
1.807002e+003,8.122001e-003
1.808931e+003,8.112442e-003
1.810859e+003,8.088971e-003
1.812788e+003,8.021949e-003
1.814716e+003,7.929798e-003
1.816645e+003,7.946918e-003
1.818573e+003,7.896704e-003
1.820502e+003,7.875783e-003
1.822430e+003,7.857367e-003
1.824359e+003,7.791915e-003
1.826287e+003,7.827085e-003
1.828216e+003,7.917681e-003
1.830144e+003,7.885406e-003
1.832073e+003,7.803829e-003
1.834001e+003,7.733642e-003
1.835930e+003,7.682853e-003
1.837858e+003,7.713862e-003
1.839787e+003,7.675055e-003
1.841715e+003,7.641071e-003
1.843644e+003,7.556936e-003
1.845572e+003,7.485724e-003
1.847501e+003,7.490728e-003
1.849429e+003,7.560431e-003
1.851358e+003,7.652783e-003
1.853286e+003,7.493942e-003
1.855215e+003,7.500372e-003
1.857143e+003,7.553047e-003
1.859072e+003,7.488803e-003
1.861000e+003,7.415131e-003
1.862929e+003,7.334255e-003
1.864857e+003,7.361427e-003
1.866786e+003,7.407215e-003
1.868714e+003,7.345757e-003
1.870643e+003,7.272287e-003
1.872571e+003,7.250067e-003
1.874500e+003,7.308318e-003
1.876428e+003,7.370132e-003
1.878357e+003,7.284850e-003
1.880285e+003,7.267853e-003
1.882214e+003,7.176292e-003
1.884142e+003,7.102972e-003
1.886071e+003,7.045757e-003
1.887999e+003,6.981784e-003
1.889928e+003,6.832478e-003
1.891856e+003,6.849580e-003
1.893785e+003,7.081777e-003
1.895713e+003,7.073998e-003
1.897642e+003,6.876056e-003
1.899570e+003,6.800112e-003
1.901499e+003,6.662642e-003
1.903427e+003,6.564081e-003
1.905356e+003,6.698722e-003
1.907284e+003,6.818345e-003
1.909213e+003,6.676779e-003
1.911141e+003,6.622612e-003
1.913070e+003,6.642969e-003
1.914998e+003,6.475116e-003
1.916927e+003,6.452305e-003
1.918855e+003,6.334157e-003
1.920784e+003,6.323348e-003
1.922712e+003,6.180183e-003
1.924641e+003,5.867401e-003
1.926569e+003,5.875029e-003
1.928498e+003,5.955596e-003
1.930426e+003,5.677149e-003
1.932355e+003,5.279100e-003
1.934283e+003,5.341239e-003
1.936212e+003,5.172103e-003
1.938140e+003,4.885588e-003
1.940069e+003,4.692110e-003
1.941997e+003,4.593506e-003
1.943926e+003,4.756727e-003
1.945854e+003,4.620784e-003
1.947783e+003,4.239984e-003
1.949711e+003,3.876660e-003
1.951640e+003,3.794336e-003
1.953568e+003,3.045599e-003
1.955497e+003,2.515871e-003
1.957425e+003,2.605333e-003
1.959354e+003,2.346489e-003
1.961282e+003,1.460382e-003
1.963211e+003,5.741206e-004
1.965139e+003,5.165474e-004
1.967068e+003,3.483217e-004
1.968996e+003,-9.630348e-005
1.970925e+003,2.933441e-004
1.972853e+003,-3.257192e-004
1.974782e+003,-2.811184e-003
1.976710e+003,-3.295087e-003
1.978639e+003,-2.189106e-003
1.980567e+003,-4.689481e-004
1.982496e+003,4.380564e-004
1.984424e+003,9.693449e-004
1.986353e+003,1.381591e-003
1.988281e+003,1.025028e-003
1.990210e+003,5.736672e-004
1.992138e+003,1.478792e-003
1.994067e+003,2.233821e-003
1.995995e+003,1.794266e-003
1.997924e+003,1.245611e-003
1.999852e+003,1.007689e-003
2.001781e+003,2.087116e-004
2.003709e+003,-1.056225e-004
2.005638e+003,-6.786693e-004
2.007566e+003,-1.501782e-004
2.009495e+003,2.985366e-004
2.011423e+003,-6.720865e-004
2.013352e+003,-9.795362e-004
2.015280e+003,-1.010428e-003
2.017208e+003,-1.064897e-003
2.019137e+003,-1.006346e-003
2.021066e+003,-1.469104e-003
2.022994e+003,-1.583062e-003
2.024922e+003,-1.461650e-003
2.026851e+003,-1.983447e-003
2.028780e+003,-1.765074e-003
2.030708e+003,-1.589221e-003
2.032636e+003,-2.491925e-003
2.034565e+003,-2.467382e-003
2.036494e+003,-1.551017e-004
2.038422e+003,-2.400505e-004
2.040350e+003,-6.848386e-004
2.042279e+003,2.994775e-004
2.044208e+003,1.135072e-003
2.046136e+003,1.486086e-003
2.048064e+003,1.597495e-003
2.049993e+003,1.700814e-003
2.051921e+003,2.606949e-003
2.053850e+003,3.467032e-003
2.055778e+003,3.792141e-003
2.057707e+003,3.791782e-003
2.059635e+003,3.675740e-003
2.061564e+003,3.925941e-003
2.063492e+003,4.514966e-003
2.065421e+003,4.131107e-003
2.067349e+003,4.263487e-003
2.069278e+003,4.457002e-003
2.071206e+003,4.052017e-003
2.073135e+003,4.348059e-003
2.075063e+003,4.865749e-003
2.076992e+003,5.074176e-003
2.078920e+003,5.320749e-003
2.080849e+003,5.377596e-003
2.082777e+003,5.724318e-003
2.084706e+003,5.783707e-003
2.086634e+003,5.780736e-003
2.088563e+003,6.012492e-003
2.090491e+003,5.923395e-003
2.092420e+003,5.586738e-003
2.094348e+003,5.594934e-003
2.096277e+003,5.871780e-003
2.098205e+003,5.653018e-003
2.100134e+003,5.735099e-003
2.102062e+003,5.838488e-003
2.103991e+003,5.698236e-003
2.105919e+003,5.624721e-003
2.107848e+003,5.733253e-003
2.109776e+003,5.942808e-003
2.111705e+003,5.715224e-003
2.113633e+003,5.787445e-003
2.115562e+003,5.700049e-003
2.117490e+003,5.649963e-003
2.119419e+003,5.683801e-003
2.121347e+003,5.304753e-003
2.123276e+003,5.082164e-003
2.125204e+003,5.301164e-003
2.127133e+003,5.109487e-003
2.129061e+003,4.748392e-003
2.130990e+003,4.690444e-003
2.132918e+003,4.277394e-003
2.134847e+003,3.501735e-003
2.136775e+003,3.252392e-003
2.138704e+003,3.034889e-003
2.140632e+003,2.760504e-003
2.142561e+003,2.962823e-003
2.144489e+003,2.603176e-003
2.146418e+003,1.155296e-003
2.148346e+003,4.503925e-004
2.150275e+003,7.901368e-004
2.152203e+003,1.184704e-004
2.154132e+003,-1.948444e-003
2.156060e+003,-3.536175e-003
2.157989e+003,-5.373138e-003
2.159917e+003,-5.566248e-003
2.161846e+003,-3.246337e-003
2.163774e+003,-2.360108e-003
2.165703e+003,-2.746229e-003
2.167631e+003,-2.048280e-003
2.169560e+003,1.721986e-004
2.171488e+003,1.116627e-003
2.173417e+003,1.191377e-003
2.175345e+003,1.358132e-003
2.177274e+003,6.062789e-004
2.179202e+003,-4.144085e-004
2.181131e+003,-1.342053e-004
2.183059e+003,4.423990e-004
2.184988e+003,1.512915e-003
2.186916e+003,2.141456e-003
2.188845e+003,2.908982e-003
2.190773e+003,2.730961e-003
2.192702e+003,2.436141e-003
2.194630e+003,2.634310e-003
2.196559e+003,2.575143e-003
2.198487e+003,2.864954e-003
2.200416e+003,3.447861e-003
2.202344e+003,3.260905e-003
2.204273e+003,3.503806e-003
2.206201e+003,3.678436e-003
2.208130e+003,3.639375e-003
2.210058e+003,3.750152e-003
2.211987e+003,3.804432e-003
2.213915e+003,4.029545e-003
2.215844e+003,4.412166e-003
2.217772e+003,4.832917e-003
2.219701e+003,5.047032e-003
2.221629e+003,5.190426e-003
2.223558e+003,4.715398e-003
2.225486e+003,4.701497e-003
2.227415e+003,4.802496e-003
2.229343e+003,4.863005e-003
2.231272e+003,5.119934e-003
2.233200e+003,5.147842e-003
2.235129e+003,5.177534e-003
2.237057e+003,5.342091e-003
2.238986e+003,5.709485e-003
2.240914e+003,6.279307e-003
2.242843e+003,6.438942e-003
2.244771e+003,6.492754e-003
2.246700e+003,6.513692e-003
2.248628e+003,6.434931e-003
2.250557e+003,6.225534e-003
2.252485e+003,6.517984e-003
2.254414e+003,6.748479e-003
2.256342e+003,6.671210e-003
2.258271e+003,6.882505e-003
2.260199e+003,7.112246e-003
2.262128e+003,7.074313e-003
2.264056e+003,6.995445e-003
2.265985e+003,6.976597e-003
2.267913e+003,6.987417e-003
2.269842e+003,7.298041e-003
2.271770e+003,7.354651e-003
2.273699e+003,7.199600e-003
2.275627e+003,7.526531e-003
2.277556e+003,7.901184e-003
2.279484e+003,7.779737e-003
2.281413e+003,7.632628e-003
2.283341e+003,7.744905e-003
2.285270e+003,7.877996e-003
2.287198e+003,7.929333e-003
2.289127e+003,7.994778e-003
2.291055e+003,8.093596e-003
2.292984e+003,8.136891e-003
2.294912e+003,8.177885e-003
2.296841e+003,8.385177e-003
2.298769e+003,8.436836e-003
2.300698e+003,8.554875e-003
2.302626e+003,8.741587e-003
2.304555e+003,8.681661e-003
2.306483e+003,8.842156e-003
2.308412e+003,9.005746e-003
2.310340e+003,8.861540e-003
2.312269e+003,8.780713e-003
2.314197e+003,8.880995e-003
2.316125e+003,8.969815e-003
2.318054e+003,9.070585e-003
2.319983e+003,9.013556e-003
2.321911e+003,8.956559e-003
2.323840e+003,8.880930e-003
2.325768e+003,9.339416e-003
2.327697e+003,9.506941e-003
2.329625e+003,9.270011e-003
2.331553e+003,9.328512e-003
2.333482e+003,9.300669e-003
2.335411e+003,9.180558e-003
2.337339e+003,9.190706e-003
2.339268e+003,9.463952e-003
2.341196e+003,9.093281e-003
2.343125e+003,9.020541e-003
2.345053e+003,8.975770e-003
2.346981e+003,8.873132e-003
2.348910e+003,8.627225e-003
2.350839e+003,8.694330e-003
2.352767e+003,8.642745e-003
2.354696e+003,8.359151e-003
2.356624e+003,8.423924e-003
2.358552e+003,8.312080e-003
2.360481e+003,8.380295e-003
2.362409e+003,8.436223e-003
2.364338e+003,8.378789e-003
2.366267e+003,8.371681e-003
2.368195e+003,8.169689e-003
2.370124e+003,8.064725e-003
2.372052e+003,8.351546e-003
2.373980e+003,8.505837e-003
2.375909e+003,8.655548e-003
2.377838e+003,8.598443e-003
2.379766e+003,8.596268e-003
2.381695e+003,8.541804e-003
2.383623e+003,8.617851e-003
2.385552e+003,8.500760e-003
2.387480e+003,8.408035e-003
2.389408e+003,8.337447e-003
2.391337e+003,8.369164e-003
2.393266e+003,8.490765e-003
2.395194e+003,8.619207e-003
2.397123e+003,8.583448e-003
2.399051e+003,8.545410e-003
2.400979e+003,8.595780e-003
2.402908e+003,8.637690e-003
2.404836e+003,8.512210e-003
2.406765e+003,8.493221e-003
2.408694e+003,8.507243e-003
2.410622e+003,8.464468e-003
2.412551e+003,8.332857e-003
2.414479e+003,8.337552e-003
2.416407e+003,8.292159e-003
2.418336e+003,8.383895e-003
2.420264e+003,8.416326e-003
2.422193e+003,8.323096e-003
2.424122e+003,8.251262e-003
2.426050e+003,8.069923e-003
2.427979e+003,8.100810e-003
2.429907e+003,8.167150e-003
2.431835e+003,8.174173e-003
2.433764e+003,8.250587e-003
2.435692e+003,8.194668e-003
2.437621e+003,8.083628e-003
2.439550e+003,8.054430e-003
2.441478e+003,8.104322e-003
2.443406e+003,8.148716e-003
2.445335e+003,8.228266e-003
2.447263e+003,8.192743e-003
2.449192e+003,8.102871e-003
2.451121e+003,8.058076e-003
2.453049e+003,8.073771e-003
2.454978e+003,8.029723e-003
2.456906e+003,8.072826e-003
2.458834e+003,7.977106e-003
2.460763e+003,7.975756e-003
2.462691e+003,8.034920e-003
2.464620e+003,8.063577e-003
2.466549e+003,8.179137e-003
2.468477e+003,8.254200e-003
2.470406e+003,8.127379e-003
2.472334e+003,7.969276e-003
2.474262e+003,7.972820e-003
2.476191e+003,8.100102e-003
2.478119e+003,8.107934e-003
2.480048e+003,7.958342e-003
2.481977e+003,7.835926e-003
2.483905e+003,7.868787e-003
2.485833e+003,7.910762e-003
2.487762e+003,7.957296e-003
2.489690e+003,7.939884e-003
2.491619e+003,7.936138e-003
2.493547e+003,7.964113e-003
2.495476e+003,8.036642e-003
2.497405e+003,8.035190e-003
2.499333e+003,7.953921e-003
2.501261e+003,7.931480e-003
2.503190e+003,7.994791e-003
2.505118e+003,7.987838e-003
2.507047e+003,7.897940e-003
2.508975e+003,7.958646e-003
2.510904e+003,7.954056e-003
2.512833e+003,7.975992e-003
2.514761e+003,7.997861e-003
2.516689e+003,7.921728e-003
2.518618e+003,7.908602e-003
2.520546e+003,7.984632e-003
2.522475e+003,8.007311e-003
2.524403e+003,8.004341e-003
2.526332e+003,7.977139e-003
2.528260e+003,7.930603e-003
2.530189e+003,7.975655e-003
2.532117e+003,8.024153e-003
2.534046e+003,8.113639e-003
2.535974e+003,8.120425e-003
2.537903e+003,8.099596e-003
2.539831e+003,8.047713e-003
2.541760e+003,8.101722e-003
2.543688e+003,8.205000e-003
2.545617e+003,8.196559e-003
2.547545e+003,8.248325e-003
2.549474e+003,8.313335e-003
2.551402e+003,8.346806e-003
2.553331e+003,8.382342e-003
2.555259e+003,8.371093e-003
2.557188e+003,8.376261e-003
2.559116e+003,8.520895e-003
2.561045e+003,8.602946e-003
2.562973e+003,8.488896e-003
2.564902e+003,8.502445e-003
2.566830e+003,8.627483e-003
2.568759e+003,8.681260e-003
2.570687e+003,8.655706e-003
2.572616e+003,8.584696e-003
2.574544e+003,8.730548e-003
2.576473e+003,8.837594e-003
2.578401e+003,8.819097e-003
2.580330e+003,8.957891e-003
2.582258e+003,8.942569e-003
2.584187e+003,8.929412e-003
2.586115e+003,8.995472e-003
2.588044e+003,9.067428e-003
2.589972e+003,9.080827e-003
2.591901e+003,8.969357e-003
2.593829e+003,8.954881e-003
2.595758e+003,9.115406e-003
2.597686e+003,9.144642e-003
2.599615e+003,9.029605e-003
2.601543e+003,9.072571e-003
2.603472e+003,9.128773e-003
2.605400e+003,9.137604e-003
2.607329e+003,9.189008e-003
2.609257e+003,9.228809e-003
2.611186e+003,9.248203e-003
2.613114e+003,9.283642e-003
2.615043e+003,9.305543e-003
2.616971e+003,9.303310e-003
2.618900e+003,9.294914e-003
2.620828e+003,9.374945e-003
2.622757e+003,9.418724e-003
2.624685e+003,9.438635e-003
2.626614e+003,9.380904e-003
2.628542e+003,9.369731e-003
2.630471e+003,9.432642e-003
2.632399e+003,9.463795e-003
2.634328e+003,9.473548e-003
2.636256e+003,9.480795e-003
2.638185e+003,9.467250e-003
2.640113e+003,9.489973e-003
2.642042e+003,9.496983e-003
2.643970e+003,9.510700e-003
2.645899e+003,9.495967e-003
2.647827e+003,9.532816e-003
2.649756e+003,9.550598e-003
2.651684e+003,9.576204e-003
2.653613e+003,9.574342e-003
2.655541e+003,9.592091e-003
2.657470e+003,9.677631e-003
2.659398e+003,9.752344e-003
2.661327e+003,9.763528e-003
2.663255e+003,9.788062e-003
2.665184e+003,9.805211e-003
2.667112e+003,9.800263e-003
2.669041e+003,9.808261e-003
2.670969e+003,9.857541e-003
2.672898e+003,9.866896e-003
2.674826e+003,9.837577e-003
2.676755e+003,9.839882e-003
2.678683e+003,9.862592e-003
2.680612e+003,9.866388e-003
2.682540e+003,9.875641e-003
2.684469e+003,9.939201e-003
2.686397e+003,9.934082e-003
2.688326e+003,9.907945e-003
2.690254e+003,9.849271e-003
2.692183e+003,9.896013e-003
2.694111e+003,9.905911e-003
2.696040e+003,9.835408e-003
2.697968e+003,9.854049e-003
2.699897e+003,9.900996e-003
2.701825e+003,9.922996e-003
2.703754e+003,9.882793e-003
2.705682e+003,9.834053e-003
2.707611e+003,9.866591e-003
2.709539e+003,9.853203e-003
2.711468e+003,9.796738e-003
2.713396e+003,9.875404e-003
2.715325e+003,9.904352e-003
2.717253e+003,9.874353e-003
2.719182e+003,9.838086e-003
2.721110e+003,9.819954e-003
2.723039e+003,9.822766e-003
2.724967e+003,9.794027e-003
2.726896e+003,9.803618e-003
2.728824e+003,9.820970e-003
2.730753e+003,9.814396e-003
2.732681e+003,9.842492e-003
2.734610e+003,9.874624e-003
2.736538e+003,9.879404e-003
2.738467e+003,9.817547e-003
2.740395e+003,9.789791e-003
2.742324e+003,9.851169e-003
2.744252e+003,9.872997e-003
2.746181e+003,9.819615e-003
2.748109e+003,9.799924e-003
2.750038e+003,9.799957e-003
2.751966e+003,9.793214e-003
2.753895e+003,9.842661e-003
2.755823e+003,9.881031e-003
2.757752e+003,9.836289e-003
2.759680e+003,9.850423e-003
2.761609e+003,9.913844e-003
2.763537e+003,9.900149e-003
2.765466e+003,9.919370e-003
2.767394e+003,9.948660e-003
2.769323e+003,9.906149e-003
2.771251e+003,9.885641e-003
2.773180e+003,9.964730e-003
2.775108e+003,9.970188e-003
2.777037e+003,9.933099e-003
2.778965e+003,9.933065e-003
2.780894e+003,9.968256e-003
2.782822e+003,9.997922e-003
2.784750e+003,9.969951e-003
2.786679e+003,9.957576e-003
2.788608e+003,9.997956e-003
2.790536e+003,9.947676e-003
2.792465e+003,9.955644e-003
2.794393e+003,1.002596e-002
2.796322e+003,1.002634e-002
2.798250e+003,1.006255e-002
2.800178e+003,1.012075e-002
2.802107e+003,1.012566e-002
2.804036e+003,1.015388e-002
2.805964e+003,1.013835e-002
2.807893e+003,1.016552e-002
2.809821e+003,1.022376e-002
2.811750e+003,1.023729e-002
2.813678e+003,1.024666e-002
2.815606e+003,1.028153e-002
2.817535e+003,1.028594e-002
2.819464e+003,1.032252e-002
2.821392e+003,1.038842e-002
2.823321e+003,1.044615e-002
2.825249e+003,1.043865e-002
2.827177e+003,1.051105e-002
2.829106e+003,1.057209e-002
2.831034e+003,1.058855e-002
2.832963e+003,1.065785e-002
2.834892e+003,1.075077e-002
2.836820e+003,1.081690e-002
2.838749e+003,1.084272e-002
2.840677e+003,1.092508e-002
2.842605e+003,1.109565e-002
2.844534e+003,1.121317e-002
2.846462e+003,1.136164e-002
2.848391e+003,1.146104e-002
2.850320e+003,1.143770e-002
2.852248e+003,1.134971e-002
2.854177e+003,1.129431e-002
2.856105e+003,1.128757e-002
2.858033e+003,1.133920e-002
2.859962e+003,1.139195e-002
2.861890e+003,1.140171e-002
2.863819e+003,1.145247e-002
2.865748e+003,1.150564e-002
2.867676e+003,1.156594e-002
2.869604e+003,1.158683e-002
2.871533e+003,1.160286e-002
2.873461e+003,1.168937e-002
2.875390e+003,1.172631e-002
2.877319e+003,1.172825e-002
2.879247e+003,1.177737e-002
2.881176e+003,1.176522e-002
2.883104e+003,1.178646e-002
2.885032e+003,1.184625e-002
2.886961e+003,1.190536e-002
2.888889e+003,1.190182e-002
2.890818e+003,1.190039e-002
2.892747e+003,1.188238e-002
2.894675e+003,1.190451e-002
2.896604e+003,1.186988e-002
2.898532e+003,1.184506e-002
2.900460e+003,1.186678e-002
2.902389e+003,1.186467e-002
2.904317e+003,1.183202e-002
2.906246e+003,1.179729e-002
2.908175e+003,1.175722e-002
2.910103e+003,1.177679e-002
2.912031e+003,1.176964e-002
2.913960e+003,1.180662e-002
2.915888e+003,1.185585e-002
2.917817e+003,1.180199e-002
2.919745e+003,1.164731e-002
2.921674e+003,1.148363e-002
2.923603e+003,1.133236e-002
2.925531e+003,1.113202e-002
2.927459e+003,1.097968e-002
2.929388e+003,1.095495e-002
2.931316e+003,1.096487e-002
2.933245e+003,1.092297e-002
2.935173e+003,1.083127e-002
2.937102e+003,1.073634e-002
2.939031e+003,1.067446e-002
2.940959e+003,1.060478e-002
2.942887e+003,1.058295e-002
2.944816e+003,1.053647e-002
2.946744e+003,1.043970e-002
2.948673e+003,1.028035e-002
2.950601e+003,1.020727e-002
2.952530e+003,1.012916e-002
2.954458e+003,9.984902e-003
2.956387e+003,9.875404e-003
2.958315e+003,9.878319e-003
2.960244e+003,9.806905e-003
2.962172e+003,9.771558e-003
2.964101e+003,9.721644e-003
2.966029e+003,9.666925e-003
2.967958e+003,9.646191e-003
2.969886e+003,9.667366e-003
2.971815e+003,9.640398e-003
2.973743e+003,9.574036e-003
2.975672e+003,9.520284e-003
2.977600e+003,9.516728e-003
2.979529e+003,9.511817e-003
2.981457e+003,9.469417e-003
2.983386e+003,9.453331e-003
2.985314e+003,9.413443e-003
2.987243e+003,9.333337e-003
2.989171e+003,9.380735e-003
2.991100e+003,9.418420e-003
2.993028e+003,9.441649e-003
2.994957e+003,9.404978e-003
2.996885e+003,9.364720e-003
2.998814e+003,9.416185e-003
3.000742e+003,9.421061e-003
3.002671e+003,9.436942e-003
3.004599e+003,9.445441e-003
3.006528e+003,9.477375e-003
3.008456e+003,9.484791e-003
3.010385e+003,9.502165e-003
3.012313e+003,9.478560e-003
3.014242e+003,9.519607e-003
3.016170e+003,9.516321e-003
3.018099e+003,9.543857e-003
3.020027e+003,9.585655e-003
3.021956e+003,9.610891e-003
3.023884e+003,9.635418e-003
3.025813e+003,9.619903e-003
3.027741e+003,9.629387e-003
3.029670e+003,9.643041e-003
3.031598e+003,9.681290e-003
3.033527e+003,9.757834e-003
3.035455e+003,9.795315e-003
3.037384e+003,9.841916e-003
3.039312e+003,9.860185e-003
3.041241e+003,9.847135e-003
3.043169e+003,9.853372e-003
3.045098e+003,9.887369e-003
3.047026e+003,9.915437e-003
3.048955e+003,9.890216e-003
3.050883e+003,9.937845e-003
3.052812e+003,1.000375e-002
3.054740e+003,1.006055e-002
3.056669e+003,1.006459e-002
3.058597e+003,1.012339e-002
3.060526e+003,1.016280e-002
3.062454e+003,1.017668e-002
3.064383e+003,1.021412e-002
3.066311e+003,1.020564e-002
3.068240e+003,1.021440e-002
3.070168e+003,1.029460e-002
3.072097e+003,1.034339e-002
3.074025e+003,1.035513e-002
3.075954e+003,1.038452e-002
3.077882e+003,1.038872e-002
3.079811e+003,1.040417e-002
3.081739e+003,1.043573e-002
3.083668e+003,1.050657e-002
3.085596e+003,1.044316e-002
3.087525e+003,1.039826e-002
3.089453e+003,1.047849e-002
3.091382e+003,1.057429e-002
3.093310e+003,1.061707e-002
3.095239e+003,1.059249e-002
3.097167e+003,1.068702e-002
3.099096e+003,1.070648e-002
3.101024e+003,1.064991e-002
3.102953e+003,1.069942e-002
3.104881e+003,1.077462e-002
3.106810e+003,1.081690e-002
3.108738e+003,1.078005e-002
3.110667e+003,1.080305e-002
3.112595e+003,1.092345e-002
3.114524e+003,1.094475e-002
3.116452e+003,1.092107e-002
3.118381e+003,1.093235e-002
3.120309e+003,1.099977e-002
3.122238e+003,1.105996e-002
3.124166e+003,1.113297e-002
3.126095e+003,1.117968e-002
3.128023e+003,1.118883e-002
3.129952e+003,1.127778e-002
3.131880e+003,1.134943e-002
3.133809e+003,1.129910e-002
3.135737e+003,1.131036e-002
3.137666e+003,1.140665e-002
3.139594e+003,1.149244e-002
3.141523e+003,1.147672e-002
3.143451e+003,1.147101e-002
3.145380e+003,1.154270e-002
3.147308e+003,1.163526e-002
3.149237e+003,1.171821e-002
3.151165e+003,1.180553e-002
3.153094e+003,1.184169e-002
3.155022e+003,1.188728e-002
3.156951e+003,1.191722e-002
3.158879e+003,1.193441e-002
3.160808e+003,1.200826e-002
3.162736e+003,1.209754e-002
3.164665e+003,1.211094e-002
3.166593e+003,1.209795e-002
3.168522e+003,1.217332e-002
3.170450e+003,1.221173e-002
3.172379e+003,1.223051e-002
3.174307e+003,1.232342e-002
3.176236e+003,1.246392e-002
3.178164e+003,1.249703e-002
3.180093e+003,1.250804e-002
3.182021e+003,1.256868e-002
3.183950e+003,1.269026e-002
3.185878e+003,1.273256e-002
3.187807e+003,1.276283e-002
3.189735e+003,1.285661e-002
3.191664e+003,1.291951e-002
3.193592e+003,1.297621e-002
3.195521e+003,1.306167e-002
3.197449e+003,1.312652e-002
3.199378e+003,1.322164e-002
3.201306e+003,1.325887e-002
3.203235e+003,1.329789e-002
3.205163e+003,1.330219e-002
3.207092e+003,1.337025e-002
3.209020e+003,1.349759e-002
3.210948e+003,1.357536e-002
3.212877e+003,1.364859e-002
3.214806e+003,1.376410e-002
3.216734e+003,1.377324e-002
3.218663e+003,1.380238e-002
3.220591e+003,1.393524e-002
3.222520e+003,1.401644e-002
3.224448e+003,1.405426e-002
3.226376e+003,1.411385e-002
3.228305e+003,1.411029e-002
3.230234e+003,1.423209e-002
3.232162e+003,1.439893e-002
3.234091e+003,1.445836e-002
3.236019e+003,1.449535e-002
3.237948e+003,1.457584e-002
3.239876e+003,1.457011e-002
3.241804e+003,1.460133e-002
3.243733e+003,1.473712e-002
3.245662e+003,1.491066e-002
3.247590e+003,1.497750e-002
3.249519e+003,1.497932e-002
3.251447e+003,1.508823e-002
3.253375e+003,1.511715e-002
3.255304e+003,1.521305e-002
3.257232e+003,1.527606e-002
3.259161e+003,1.537010e-002
3.261090e+003,1.542431e-002
3.263018e+003,1.548464e-002
3.264947e+003,1.546829e-002
3.266875e+003,1.556396e-002
3.268803e+003,1.563616e-002
3.270732e+003,1.564807e-002
3.272660e+003,1.572207e-002
3.274589e+003,1.578065e-002
3.276518e+003,1.582903e-002
3.278446e+003,1.587357e-002
3.280375e+003,1.591835e-002
3.282303e+003,1.587312e-002
3.284231e+003,1.581405e-002
3.286160e+003,1.594382e-002
3.288088e+003,1.605249e-002
3.290017e+003,1.608918e-002
3.291946e+003,1.598631e-002
3.293874e+003,1.590230e-002
3.295802e+003,1.594537e-002
3.297731e+003,1.596503e-002
3.299659e+003,1.599092e-002
3.301588e+003,1.597700e-002
3.303516e+003,1.596266e-002
3.305445e+003,1.603681e-002
3.307374e+003,1.594076e-002
3.309302e+003,1.584831e-002
3.311230e+003,1.598555e-002
3.313159e+003,1.607965e-002
3.315087e+003,1.610926e-002
3.317016e+003,1.613704e-002
3.318944e+003,1.608550e-002
3.320873e+003,1.610623e-002
3.322802e+003,1.614358e-002
3.324730e+003,1.624531e-002
3.326658e+003,1.621907e-002
3.328587e+003,1.620799e-002
3.330515e+003,1.621907e-002
3.332444e+003,1.613886e-002
3.334372e+003,1.616143e-002
3.336301e+003,1.620864e-002
3.338229e+003,1.613938e-002
3.340158e+003,1.601151e-002
3.342086e+003,1.599332e-002
3.344015e+003,1.598775e-002
3.345943e+003,1.597620e-002
3.347872e+003,1.590966e-002
3.349800e+003,1.588010e-002
3.351729e+003,1.579989e-002
3.353657e+003,1.577467e-002
3.355586e+003,1.577550e-002
3.357514e+003,1.570029e-002
3.359443e+003,1.557224e-002
3.361371e+003,1.550160e-002
3.363300e+003,1.540055e-002
3.365229e+003,1.532733e-002
3.367157e+003,1.529874e-002
3.369085e+003,1.515825e-002
3.371014e+003,1.503187e-002
3.372942e+003,1.505403e-002
3.374871e+003,1.516374e-002
3.376799e+003,1.505022e-002
3.378728e+003,1.493028e-002
3.380656e+003,1.490816e-002
3.382585e+003,1.496584e-002
3.384513e+003,1.493446e-002
3.386442e+003,1.480612e-002
3.388370e+003,1.471532e-002
3.390299e+003,1.469468e-002
3.392227e+003,1.463752e-002
3.394156e+003,1.453373e-002
3.396084e+003,1.443979e-002
3.398013e+003,1.435666e-002
3.399941e+003,1.429201e-002
3.401870e+003,1.423678e-002
3.403798e+003,1.412781e-002
3.405727e+003,1.394849e-002
3.407655e+003,1.397138e-002
3.409584e+003,1.394814e-002
3.411512e+003,1.382988e-002
3.413441e+003,1.379786e-002
3.415369e+003,1.369793e-002
3.417298e+003,1.357121e-002
3.419226e+003,1.350533e-002
3.421155e+003,1.341013e-002
3.423083e+003,1.333694e-002
3.425012e+003,1.320805e-002
3.426940e+003,1.306426e-002
3.428869e+003,1.300128e-002
3.430797e+003,1.292119e-002
3.432726e+003,1.276266e-002
3.434654e+003,1.266845e-002
3.436583e+003,1.257362e-002
3.438511e+003,1.244620e-002
3.440440e+003,1.230513e-002
3.442368e+003,1.219721e-002
3.444297e+003,1.197781e-002
3.446225e+003,1.185601e-002
3.448154e+003,1.183581e-002
3.450082e+003,1.175388e-002
3.452011e+003,1.161157e-002
3.453939e+003,1.149171e-002
3.455868e+003,1.133681e-002
3.457796e+003,1.118785e-002
3.459725e+003,1.107743e-002
3.461653e+003,1.097785e-002
3.463582e+003,1.091635e-002
3.465510e+003,1.079408e-002
3.467439e+003,1.062023e-002
3.469367e+003,1.051019e-002
3.471296e+003,1.038249e-002
3.473224e+003,1.027208e-002
3.475153e+003,1.012171e-002
3.477081e+003,9.996254e-003
3.479010e+003,9.903071e-003
3.480938e+003,9.855700e-003
3.482867e+003,9.742952e-003
3.484795e+003,9.679183e-003
3.486724e+003,9.533289e-003
3.488652e+003,9.400413e-003
3.490581e+003,9.311130e-003
3.492509e+003,9.211360e-003
3.494438e+003,9.095881e-003
3.496366e+003,9.031040e-003
3.498295e+003,8.990737e-003
3.500223e+003,8.792872e-003
3.502152e+003,8.667759e-003
3.504080e+003,8.704660e-003
3.506009e+003,8.604245e-003
3.507937e+003,8.522654e-003
3.509866e+003,8.433160e-003
3.511794e+003,8.346410e-003
3.513723e+003,8.212604e-003
3.515651e+003,8.107721e-003
3.517580e+003,8.029164e-003
3.519508e+003,7.966667e-003
3.521437e+003,7.800668e-003
3.523365e+003,7.692290e-003
3.525294e+003,7.679971e-003
3.527222e+003,7.609337e-003
3.529151e+003,7.449397e-003
3.531079e+003,7.289904e-003
3.533008e+003,7.236762e-003
3.534936e+003,7.226447e-003
3.536865e+003,7.160629e-003
3.538793e+003,7.035736e-003
3.540722e+003,6.948386e-003
3.542650e+003,6.811735e-003
3.544579e+003,6.697219e-003
3.546507e+003,6.630444e-003
3.548436e+003,6.585612e-003
3.550364e+003,6.436916e-003
3.552293e+003,6.328439e-003
3.554221e+003,6.187020e-003
3.556150e+003,6.064561e-003
3.558078e+003,6.020320e-003
3.560007e+003,5.970884e-003
3.561935e+003,5.864213e-003
3.563864e+003,5.694612e-003
3.565792e+003,5.523514e-003
3.567721e+003,5.431513e-003
3.569649e+003,5.386968e-003
3.571578e+003,5.358503e-003
3.573506e+003,5.305069e-003
3.575435e+003,5.138064e-003
3.577363e+003,4.955640e-003
3.579292e+003,4.662522e-003
3.581220e+003,4.439887e-003
3.583149e+003,4.294293e-003
3.585077e+003,4.172337e-003
3.587006e+003,3.967061e-003
3.588934e+003,3.552746e-003
3.590863e+003,3.182943e-003
3.592791e+003,2.932911e-003
3.594720e+003,2.747348e-003
3.596648e+003,2.626271e-003
3.598577e+003,2.394200e-003
3.600505e+003,2.280904e-003
3.602434e+003,2.455010e-003
3.604362e+003,2.649361e-003
3.606291e+003,2.855791e-003
3.608219e+003,3.156067e-003
3.610148e+003,3.614818e-003
3.612076e+003,3.896914e-003
3.614005e+003,3.699441e-003
3.615933e+003,3.040330e-003
3.617862e+003,2.342501e-003
3.619790e+003,1.827508e-003
3.621719e+003,1.535754e-003
3.623647e+003,1.319145e-003
3.625576e+003,1.212271e-003
3.627504e+003,1.278742e-003
3.629433e+003,1.191725e-003
3.631361e+003,1.402295e-003
3.633290e+003,1.818103e-003
3.635218e+003,2.247597e-003
3.637146e+003,2.640524e-003
3.639075e+003,2.880439e-003
3.641004e+003,3.102505e-003
3.642932e+003,3.301435e-003
3.644861e+003,3.480136e-003
3.646789e+003,3.535042e-003
3.648718e+003,3.438302e-003
3.650646e+003,3.374199e-003
3.652574e+003,3.510705e-003
3.654503e+003,3.579731e-003
3.656432e+003,3.439239e-003
3.658360e+003,3.423953e-003
3.660289e+003,3.396328e-003
3.662217e+003,3.438518e-003
3.664146e+003,3.408214e-003
3.666074e+003,3.432694e-003
3.668002e+003,3.482003e-003
3.669931e+003,3.446309e-003
3.671860e+003,3.278859e-003
3.673788e+003,3.252024e-003
3.675717e+003,3.053017e-003
3.677645e+003,2.822298e-003
3.679573e+003,2.751173e-003
3.681502e+003,2.614945e-003
3.683430e+003,2.359560e-003
3.685359e+003,2.195443e-003
3.687288e+003,2.009631e-003
3.689216e+003,1.606209e-003
3.691145e+003,1.338359e-003
3.693073e+003,1.208079e-003
3.695001e+003,9.930126e-004
3.696930e+003,5.519125e-004
3.698858e+003,3.069275e-004
3.700787e+003,1.798819e-004
3.702716e+003,1.206536e-004
3.704644e+003,1.083351e-004
3.706573e+003,4.057744e-004
3.708501e+003,1.002409e-003
3.710429e+003,1.622306e-003
3.712358e+003,2.318318e-003
3.714286e+003,2.761743e-003
3.716215e+003,2.288338e-003
3.718144e+003,1.336769e-003
3.720072e+003,6.236990e-004
3.722000e+003,4.830261e-005
3.723929e+003,-4.389771e-004
3.725857e+003,-8.106705e-004
3.727786e+003,-9.182154e-004
3.729714e+003,-7.140227e-004
3.731643e+003,-4.338790e-004
3.733572e+003,-5.668270e-005
3.735500e+003,4.808008e-004
3.737428e+003,1.082213e-003
3.739357e+003,1.700673e-003
3.741285e+003,2.193322e-003
3.743214e+003,2.770016e-003
3.745142e+003,3.063376e-003
3.747071e+003,3.353168e-003
3.749000e+003,3.497619e-003
3.750928e+003,3.500044e-003
3.752856e+003,3.653280e-003
3.754785e+003,3.677360e-003
3.756713e+003,3.626806e-003
3.758642e+003,3.623836e-003
3.760570e+003,3.673608e-003
3.762499e+003,3.682802e-003
3.764427e+003,3.697993e-003
3.766356e+003,3.631935e-003
3.768284e+003,3.642003e-003
3.770213e+003,3.550782e-003
3.772141e+003,3.560069e-003
3.774070e+003,3.636870e-003
3.775998e+003,3.733239e-003
3.777927e+003,3.727532e-003
3.779855e+003,3.616931e-003
3.781784e+003,3.659275e-003
3.783712e+003,3.669595e-003
3.785641e+003,3.642911e-003
3.787569e+003,3.731808e-003
3.789498e+003,3.833853e-003
3.791426e+003,3.852931e-003
3.793355e+003,3.782169e-003
3.795283e+003,3.746009e-003
3.797212e+003,3.737962e-003
3.799140e+003,3.793074e-003
3.801069e+003,3.832965e-003
3.802997e+003,3.739587e-003
3.804926e+003,3.669717e-003
3.806854e+003,3.639826e-003
3.808783e+003,3.668485e-003
3.810711e+003,3.698621e-003
3.812640e+003,3.717375e-003
3.814568e+003,3.766877e-003
3.816497e+003,3.791733e-003
3.818425e+003,3.819635e-003
3.820354e+003,3.700249e-003
3.822282e+003,3.682083e-003
3.824211e+003,3.759858e-003
3.826139e+003,3.699811e-003
3.828068e+003,3.586246e-003
3.829996e+003,3.682948e-003
3.831925e+003,3.682713e-003
3.833853e+003,3.705057e-003
3.835782e+003,3.801370e-003
3.837710e+003,3.791929e-003
3.839639e+003,3.672616e-003
3.841567e+003,3.561875e-003
3.843496e+003,3.636363e-003
3.845424e+003,3.698336e-003
3.847353e+003,3.671172e-003
3.849281e+003,3.691625e-003
3.851210e+003,3.715558e-003
3.853138e+003,3.794756e-003
3.855067e+003,3.745881e-003
3.856995e+003,3.615439e-003
3.858924e+003,3.661136e-003
3.860852e+003,3.731570e-003
3.862781e+003,3.765352e-003
3.864709e+003,3.657419e-003
3.866638e+003,3.588210e-003
3.868566e+003,3.717818e-003
3.870495e+003,3.746155e-003
3.872423e+003,3.693405e-003
3.874352e+003,3.626570e-003
3.876280e+003,3.638066e-003
3.878209e+003,3.729612e-003
3.880137e+003,3.731279e-003
3.882066e+003,3.650812e-003
3.883994e+003,3.672993e-003
3.885923e+003,3.639720e-003
3.887851e+003,3.594235e-003
3.889780e+003,3.524074e-003
3.891708e+003,3.561375e-003
3.893637e+003,3.627112e-003
3.895565e+003,3.662259e-003
3.897494e+003,3.612879e-003
3.899422e+003,3.620982e-003
3.901351e+003,3.694007e-003
3.903279e+003,3.628585e-003
3.905208e+003,3.609143e-003
3.907136e+003,3.693579e-003
3.909065e+003,3.622584e-003
3.910993e+003,3.614575e-003
3.912922e+003,3.629323e-003
3.914850e+003,3.577451e-003
3.916779e+003,3.567948e-003
3.918707e+003,3.596739e-003
3.920636e+003,3.480991e-003
3.922564e+003,3.490241e-003
3.924493e+003,3.532275e-003
3.926421e+003,3.569166e-003
3.928350e+003,3.605702e-003
3.930278e+003,3.563926e-003
3.932207e+003,3.455424e-003
3.934135e+003,3.379216e-003
3.936064e+003,3.486269e-003
3.937992e+003,3.554082e-003
3.939921e+003,3.512952e-003
3.941849e+003,3.549286e-003
3.943778e+003,3.552536e-003
3.945706e+003,3.584925e-003
3.947635e+003,3.576367e-003
3.949563e+003,3.597155e-003
3.951492e+003,3.575227e-003
3.953420e+003,3.533080e-003
3.955349e+003,3.548869e-003
3.957277e+003,3.595634e-003
3.959206e+003,3.597128e-003
3.961134e+003,3.516001e-003
3.963063e+003,3.461493e-003
3.964991e+003,3.434726e-003
3.966920e+003,3.462376e-003
3.968848e+003,3.418247e-003
3.970777e+003,3.442277e-003
3.972705e+003,3.460387e-003
3.974634e+003,3.445053e-003
3.976562e+003,3.422505e-003
3.978491e+003,3.385767e-003
3.980419e+003,3.382928e-003
3.982348e+003,3.373564e-003
3.984276e+003,3.468974e-003
3.986205e+003,3.510331e-003
3.988133e+003,3.436646e-003
3.990062e+003,3.404866e-003
3.991990e+003,3.459243e-003
3.993919e+003,3.391425e-003
3.995847e+003,3.373405e-003
3.997776e+003,3.348258e-003
3.999704e+003,3.349080e-003
4.001633e+003,0.000000e+000
