3.991989e+002,4.550475e-002
4.011274e+002,4.865758e-002
4.030559e+002,4.865758e-002
4.049844e+002,4.773249e-002
4.069129e+002,4.672435e-002
4.088414e+002,4.721234e-002
4.107699e+002,4.995401e-002
4.126984e+002,5.211490e-002
4.146269e+002,5.407311e-002
4.165554e+002,5.392889e-002
4.184839e+002,5.424242e-002
4.204124e+002,5.378281e-002
4.223409e+002,5.494338e-002
4.242694e+002,5.715273e-002
4.261979e+002,5.798462e-002
4.281264e+002,5.887980e-002
4.300549e+002,5.918511e-002
4.319834e+002,5.946253e-002
4.339119e+002,6.000267e-002
4.358404e+002,6.057064e-002
4.377689e+002,6.188098e-002
4.396974e+002,6.258715e-002
4.416259e+002,6.304172e-002
4.435544e+002,6.341957e-002
4.454829e+002,6.381679e-002
4.474114e+002,6.357066e-002
4.493399e+002,6.460594e-002
4.512684e+002,6.470509e-002
4.531969e+002,6.583218e-002
4.551254e+002,6.619690e-002
4.570539e+002,6.545451e-002
4.589824e+002,6.579226e-002
4.609109e+002,6.594225e-002
4.628394e+002,6.557912e-002
4.647679e+002,6.537934e-002
4.666964e+002,6.521532e-002
4.686249e+002,6.529007e-002
4.705533e+002,6.458503e-002
4.724819e+002,6.290595e-002
4.744103e+002,6.113998e-002
4.763389e+002,5.978437e-002
4.782673e+002,5.932934e-002
4.801959e+002,5.823022e-002
4.821243e+002,5.681469e-002
4.840529e+002,5.453418e-002
4.859813e+002,5.304634e-002
4.879099e+002,5.194089e-002
4.898383e+002,5.134110e-002
4.917668e+002,5.008160e-002
4.936953e+002,4.848858e-002
4.956238e+002,4.768564e-002
4.975523e+002,4.650832e-002
4.994808e+002,4.573432e-002
5.014093e+002,4.515009e-002
5.033378e+002,4.497143e-002
5.052663e+002,4.479335e-002
5.071948e+002,4.463369e-002
5.091233e+002,4.488880e-002
5.110518e+002,4.449590e-002
5.129803e+002,4.453044e-002
5.149088e+002,4.467706e-002
5.168373e+002,4.471553e-002
5.187658e+002,4.512269e-002
5.206943e+002,4.535309e-002
5.226228e+002,4.490811e-002
5.245513e+002,4.478766e-002
5.264798e+002,4.479348e-002
5.284083e+002,4.437160e-002
5.303368e+002,4.467073e-002
5.322653e+002,4.446993e-002
5.341938e+002,4.436610e-002
5.361223e+002,4.419147e-002
5.380508e+002,4.411374e-002
5.399792e+002,4.371599e-002
5.419078e+002,4.374234e-002
5.438363e+002,4.377858e-002
5.457648e+002,4.398006e-002
5.476932e+002,4.447648e-002
5.496218e+002,4.406831e-002
5.515503e+002,4.418822e-002
5.534788e+002,4.456614e-002
5.554072e+002,4.490228e-002
5.573358e+002,4.563006e-002
5.592643e+002,4.500993e-002
5.611927e+002,4.479316e-002
5.631212e+002,4.448831e-002
5.650497e+002,4.408363e-002
5.669783e+002,4.401557e-002
5.689067e+002,4.347388e-002
5.708352e+002,4.315034e-002
5.727637e+002,4.292483e-002
5.746923e+002,4.290505e-002
5.766207e+002,4.280999e-002
5.785492e+002,4.246316e-002
5.804777e+002,4.253827e-002
5.824063e+002,4.232790e-002
5.843347e+002,4.215306e-002
5.862632e+002,4.215205e-002
5.881917e+002,4.218585e-002
5.901202e+002,4.213436e-002
5.920487e+002,4.210666e-002
5.939772e+002,4.192190e-002
5.959057e+002,4.168671e-002
5.978342e+002,4.129987e-002
5.997627e+002,4.099824e-002
6.016912e+002,4.103712e-002
6.036197e+002,4.098089e-002
6.055482e+002,4.061356e-002
6.074767e+002,4.046336e-002
6.094052e+002,4.070647e-002
6.113337e+002,4.069068e-002
6.132622e+002,4.000286e-002
6.151907e+002,3.957809e-002
6.171192e+002,3.952345e-002
6.190477e+002,3.916343e-002
6.209762e+002,3.895089e-002
6.229047e+002,3.849172e-002
6.248332e+002,3.793705e-002
6.267617e+002,3.726998e-002
6.286902e+002,3.679815e-002
6.306187e+002,3.660156e-002
6.325472e+002,3.639944e-002
6.344756e+002,3.597802e-002
6.364042e+002,3.555644e-002
6.383326e+002,3.538312e-002
6.402612e+002,3.526084e-002
6.421896e+002,3.504057e-002
6.441182e+002,3.468541e-002
6.460466e+002,3.437330e-002
6.479752e+002,3.407302e-002
6.499036e+002,3.395098e-002
6.518322e+002,3.391210e-002
6.537606e+002,3.385343e-002
6.556891e+002,3.381495e-002
6.576177e+002,3.385987e-002
6.595461e+002,3.374578e-002
6.614746e+002,3.398744e-002
6.634031e+002,3.438799e-002
6.653317e+002,3.459219e-002
6.672601e+002,3.417107e-002
6.691886e+002,3.396069e-002
6.711171e+002,3.349004e-002
6.730457e+002,3.286244e-002
6.749741e+002,3.193928e-002
6.769026e+002,3.103369e-002
6.788311e+002,3.045706e-002
6.807596e+002,2.997016e-002
6.826881e+002,2.951182e-002
6.846166e+002,2.907566e-002
6.865451e+002,2.897441e-002
6.884736e+002,2.901947e-002
6.904021e+002,2.877421e-002
6.923306e+002,2.866727e-002
6.942591e+002,2.888682e-002
6.961876e+002,2.891752e-002
6.981161e+002,2.873492e-002
7.000446e+002,2.866624e-002
7.019731e+002,2.863556e-002
7.039016e+002,2.838356e-002
7.058301e+002,2.819678e-002
7.077585e+002,2.792301e-002
7.096871e+002,2.765310e-002
7.116156e+002,2.761524e-002
7.135441e+002,2.759963e-002
7.154725e+002,2.747003e-002
7.174011e+002,2.739048e-002
7.193296e+002,2.737819e-002
7.212581e+002,2.692651e-002
7.231865e+002,2.652125e-002
7.251151e+002,2.640787e-002
7.270436e+002,2.624296e-002
7.289720e+002,2.608125e-002
7.309005e+002,2.580901e-002
7.328290e+002,2.551673e-002
7.347576e+002,2.534945e-002
7.366860e+002,2.525990e-002
7.386145e+002,2.521505e-002
7.405430e+002,2.518181e-002
7.424716e+002,2.500504e-002
7.444000e+002,2.467409e-002
7.463285e+002,2.444297e-002
7.482570e+002,2.433285e-002
7.501855e+002,2.418891e-002
7.521140e+002,2.413531e-002
7.540425e+002,2.413367e-002
7.559710e+002,2.395381e-002
7.578995e+002,2.389112e-002
7.598280e+002,2.382207e-002
7.617565e+002,2.369307e-002
7.636850e+002,2.357716e-002
7.656135e+002,2.352364e-002
7.675420e+002,2.362278e-002
7.694705e+002,2.368709e-002
7.713990e+002,2.367057e-002
7.733275e+002,2.378102e-002
7.752560e+002,2.403777e-002
7.771844e+002,2.435226e-002
7.791130e+002,2.441563e-002
7.810415e+002,2.444917e-002
7.829700e+002,2.443249e-002
7.848984e+002,2.438114e-002
7.868270e+002,2.426792e-002
7.887555e+002,2.424556e-002
7.906840e+002,2.409805e-002
7.926124e+002,2.400402e-002
7.945410e+002,2.391515e-002
7.964695e+002,2.391323e-002
7.983979e+002,2.383999e-002
8.003264e+002,2.364885e-002
8.022549e+002,2.342302e-002
8.041835e+002,2.329589e-002
8.061119e+002,2.311501e-002
8.080404e+002,2.299429e-002
8.099689e+002,2.280428e-002
8.118975e+002,2.262835e-002
8.138259e+002,2.243100e-002
8.157545e+002,2.220581e-002
8.176830e+002,2.188406e-002
8.196115e+002,2.160701e-002
8.215399e+002,2.138336e-002
8.234684e+002,2.129718e-002
8.253970e+002,2.106914e-002
8.273254e+002,2.087055e-002
8.292539e+002,2.061979e-002
8.311824e+002,2.043641e-002
8.331110e+002,2.035837e-002
8.350394e+002,2.022679e-002
8.369679e+002,2.006842e-002
8.388964e+002,1.987289e-002
8.408250e+002,1.969228e-002
8.427534e+002,1.968597e-002
8.446819e+002,1.962579e-002
8.466104e+002,1.950222e-002
8.485389e+002,1.937346e-002
8.504674e+002,1.939262e-002
8.523959e+002,1.941559e-002
8.543244e+002,1.936200e-002
8.562529e+002,1.938479e-002
8.581814e+002,1.943874e-002
8.601099e+002,1.945180e-002
8.620384e+002,1.956700e-002
8.639669e+002,1.964832e-002
8.658954e+002,1.969780e-002
8.678239e+002,1.985007e-002
8.697524e+002,2.000350e-002
8.716809e+002,2.011058e-002
8.736094e+002,2.029643e-002
8.755378e+002,2.050681e-002
8.774664e+002,2.069950e-002
8.793949e+002,2.088890e-002
8.813234e+002,2.112583e-002
8.832518e+002,2.151021e-002
8.851804e+002,2.194867e-002
8.871089e+002,2.239374e-002
8.890374e+002,2.287189e-002
8.909658e+002,2.347100e-002
8.928943e+002,2.395237e-002
8.948229e+002,2.419508e-002
8.967513e+002,2.436754e-002
8.986798e+002,2.447525e-002
9.006083e+002,2.446736e-002
9.025369e+002,2.430320e-002
9.044653e+002,2.401382e-002
9.063938e+002,2.378175e-002
9.083223e+002,2.364759e-002
9.102509e+002,2.352665e-002
9.121793e+002,2.349972e-002
9.141078e+002,2.347702e-002
9.160364e+002,2.358895e-002
9.179648e+002,2.375438e-002
9.198933e+002,2.389002e-002
9.218218e+002,2.404509e-002
9.237504e+002,2.431116e-002
9.256788e+002,2.456598e-002
9.276073e+002,2.495633e-002
9.295358e+002,2.533667e-002
9.314644e+002,2.562542e-002
9.333928e+002,2.590086e-002
9.353213e+002,2.625882e-002
9.372498e+002,2.657852e-002
9.391783e+002,2.695118e-002
9.411068e+002,2.745570e-002
9.430353e+002,2.809196e-002
9.449637e+002,2.876526e-002
9.468923e+002,2.935001e-002
9.488208e+002,2.986780e-002
9.507493e+002,3.055171e-002
9.526777e+002,3.118274e-002
9.546063e+002,3.186139e-002
9.565348e+002,3.258657e-002
9.584633e+002,3.320997e-002
9.603917e+002,3.385207e-002
9.623203e+002,3.453502e-002
9.642488e+002,3.522468e-002
9.661772e+002,3.576855e-002
9.681057e+002,3.627106e-002
9.700343e+002,3.681985e-002
9.719628e+002,3.744333e-002
9.738912e+002,3.815742e-002
9.758197e+002,3.886134e-002
9.777483e+002,3.970689e-002
9.796768e+002,4.065483e-002
9.816052e+002,4.188126e-002
9.835337e+002,4.319402e-002
9.854623e+002,4.445327e-002
9.873907e+002,4.564548e-002
9.893192e+002,4.662780e-002
9.912477e+002,4.720562e-002
9.931763e+002,4.761660e-002
9.951047e+002,4.793103e-002
9.970332e+002,4.831578e-002
9.989617e+002,4.896638e-002
1.000890e+003,4.985794e-002
1.002819e+003,5.078977e-002
1.004747e+003,5.173828e-002
1.006676e+003,5.272959e-002
1.008604e+003,5.368861e-002
1.010533e+003,5.437998e-002
1.012461e+003,5.510053e-002
1.014390e+003,5.581982e-002
1.016318e+003,5.678924e-002
1.018247e+003,5.824194e-002
1.020175e+003,5.991209e-002
1.022104e+003,6.149274e-002
1.024032e+003,6.304120e-002
1.025961e+003,6.459436e-002
1.027889e+003,6.614301e-002
1.029818e+003,6.744825e-002
1.031746e+003,6.852893e-002
1.033675e+003,6.933325e-002
1.035603e+003,6.975348e-002
1.037532e+003,6.970499e-002
1.039460e+003,6.938491e-002
1.041389e+003,6.894259e-002
1.043317e+003,6.860913e-002
1.045246e+003,6.846283e-002
1.047174e+003,6.838874e-002
1.049103e+003,6.829885e-002
1.051031e+003,6.832378e-002
1.052960e+003,6.830613e-002
1.054888e+003,6.807020e-002
1.056817e+003,6.757440e-002
1.058745e+003,6.692611e-002
1.060674e+003,6.617288e-002
1.062602e+003,6.532898e-002
1.064531e+003,6.440727e-002
1.066459e+003,6.337662e-002
1.068388e+003,6.235507e-002
1.070316e+003,6.145442e-002
1.072245e+003,6.052013e-002
1.074173e+003,5.968831e-002
1.076102e+003,5.881555e-002
1.078030e+003,5.789452e-002
1.079959e+003,5.697624e-002
1.081887e+003,5.606314e-002
1.083816e+003,5.535384e-002
1.085744e+003,5.485207e-002
1.087673e+003,5.449710e-002
1.089601e+003,5.422638e-002
1.091530e+003,5.389450e-002
1.093458e+003,5.355762e-002
1.095387e+003,5.322034e-002
1.097315e+003,5.297310e-002
1.099244e+003,5.266854e-002
1.101172e+003,5.234824e-002
1.103101e+003,5.195773e-002
1.105029e+003,5.136879e-002
1.106958e+003,5.052032e-002
1.108886e+003,4.940885e-002
1.110815e+003,4.811444e-002
1.112743e+003,4.672014e-002
1.114672e+003,4.526841e-002
1.116600e+003,4.380653e-002
1.118529e+003,4.251966e-002
1.120457e+003,4.143133e-002
1.122386e+003,4.033835e-002
1.124314e+003,3.920681e-002
1.126243e+003,3.806135e-002
1.128171e+003,3.695609e-002
1.130100e+003,3.587412e-002
1.132028e+003,3.489971e-002
1.133957e+003,3.400451e-002
1.135885e+003,3.325690e-002
1.137814e+003,3.261314e-002
1.139742e+003,3.223630e-002
1.141671e+003,3.202462e-002
1.143599e+003,3.193103e-002
1.145528e+003,3.202965e-002
1.147456e+003,3.220275e-002
1.149385e+003,3.235230e-002
1.151313e+003,3.256385e-002
1.153242e+003,3.280392e-002
1.155170e+003,3.301440e-002
1.157099e+003,3.317066e-002
1.159027e+003,3.325171e-002
1.160956e+003,3.309396e-002
1.162884e+003,3.268648e-002
1.164813e+003,3.209646e-002
1.166741e+003,3.129490e-002
1.168670e+003,3.023278e-002
1.170598e+003,2.910983e-002
1.172526e+003,2.797497e-002
1.174455e+003,2.685234e-002
1.176384e+003,2.588721e-002
1.178312e+003,2.507381e-002
1.180240e+003,2.430022e-002
1.182169e+003,2.364132e-002
1.184098e+003,2.317603e-002
1.186026e+003,2.279245e-002
1.187954e+003,2.255134e-002
1.189883e+003,2.235640e-002
1.191812e+003,2.223000e-002
1.193740e+003,2.221692e-002
1.195668e+003,2.223086e-002
1.197597e+003,2.225643e-002
1.199526e+003,2.231529e-002
1.201454e+003,2.228780e-002
1.203382e+003,2.212537e-002
1.205311e+003,2.185733e-002
1.207240e+003,2.157944e-002
1.209168e+003,2.131184e-002
1.211096e+003,2.111355e-002
1.213025e+003,2.097695e-002
1.214953e+003,2.088728e-002
1.216882e+003,2.084721e-002
1.218810e+003,2.084434e-002
1.220739e+003,2.082601e-002
1.222667e+003,2.084140e-002
1.224596e+003,2.089606e-002
1.226524e+003,2.096798e-002
1.228453e+003,2.104399e-002
1.230381e+003,2.110925e-002
1.232310e+003,2.104885e-002
1.234238e+003,2.095107e-002
1.236167e+003,2.078382e-002
1.238095e+003,2.059250e-002
1.240024e+003,2.042976e-002
1.241952e+003,2.019453e-002
1.243881e+003,1.995353e-002
1.245809e+003,1.970505e-002
1.247738e+003,1.939294e-002
1.249666e+003,1.900126e-002
1.251595e+003,1.861475e-002
1.253523e+003,1.827954e-002
1.255452e+003,1.797354e-002
1.257380e+003,1.760654e-002
1.259309e+003,1.726129e-002
1.261237e+003,1.690706e-002
1.263166e+003,1.658315e-002
1.265094e+003,1.628730e-002
1.267023e+003,1.596726e-002
1.268951e+003,1.569090e-002
1.270880e+003,1.538847e-002
1.272808e+003,1.509823e-002
1.274737e+003,1.488722e-002
1.276665e+003,1.469656e-002
1.278594e+003,1.455535e-002
1.280522e+003,1.446326e-002
1.282451e+003,1.436893e-002
1.284379e+003,1.428903e-002
1.286308e+003,1.415936e-002
1.288236e+003,1.404873e-002
1.290165e+003,1.404426e-002
1.292093e+003,1.408413e-002
1.294022e+003,1.414190e-002
1.295950e+003,1.425241e-002
1.297879e+003,1.441762e-002
1.299807e+003,1.458626e-002
1.301736e+003,1.482171e-002
1.303664e+003,1.510376e-002
1.305593e+003,1.539084e-002
1.307521e+003,1.571724e-002
1.309450e+003,1.607382e-002
1.311378e+003,1.639077e-002
1.313307e+003,1.669748e-002
1.315235e+003,1.696140e-002
1.317164e+003,1.710095e-002
1.319092e+003,1.711374e-002
1.321021e+003,1.707031e-002
1.322949e+003,1.696315e-002
1.324878e+003,1.682400e-002
1.326806e+003,1.679006e-002
1.328735e+003,1.675567e-002
1.330663e+003,1.662997e-002
1.332592e+003,1.644094e-002
1.334520e+003,1.625457e-002
1.336449e+003,1.603412e-002
1.338377e+003,1.577903e-002
1.340306e+003,1.550808e-002
1.342234e+003,1.530326e-002
1.344163e+003,1.517033e-002
1.346091e+003,1.509452e-002
1.348020e+003,1.509138e-002
1.349948e+003,1.514093e-002
1.351877e+003,1.521298e-002
1.353805e+003,1.533051e-002
1.355734e+003,1.548935e-002
1.357662e+003,1.566118e-002
1.359591e+003,1.580644e-002
1.361519e+003,1.590589e-002
1.363448e+003,1.604769e-002
1.365376e+003,1.619526e-002
1.367305e+003,1.625311e-002
1.369233e+003,1.624554e-002
1.371162e+003,1.618733e-002
1.373090e+003,1.604346e-002
1.375019e+003,1.584405e-002
1.376947e+003,1.560733e-002
1.378876e+003,1.537468e-002
1.380804e+003,1.512618e-002
1.382733e+003,1.485476e-002
1.384661e+003,1.455657e-002
1.386590e+003,1.431414e-002
1.388518e+003,1.411805e-002
1.390447e+003,1.400728e-002
1.392375e+003,1.392065e-002
1.394304e+003,1.380822e-002
1.396232e+003,1.377977e-002
1.398161e+003,1.380002e-002
1.400089e+003,1.379117e-002
1.402018e+003,1.377393e-002
1.403946e+003,1.380627e-002
1.405875e+003,1.387481e-002
1.407803e+003,1.391879e-002
1.409732e+003,1.399806e-002
1.411660e+003,1.412047e-002
1.413589e+003,1.419000e-002
1.415517e+003,1.425954e-002
1.417446e+003,1.437309e-002
1.419374e+003,1.446806e-002
1.421303e+003,1.449197e-002
1.423231e+003,1.448099e-002
1.425160e+003,1.448721e-002
1.427088e+003,1.446870e-002
1.429017e+003,1.438280e-002
1.430945e+003,1.427278e-002
1.432874e+003,1.416977e-002
1.434802e+003,1.401962e-002
1.436731e+003,1.386423e-002
1.438659e+003,1.370300e-002
1.440588e+003,1.354729e-002
1.442516e+003,1.339800e-002
1.444445e+003,1.330011e-002
1.446373e+003,1.323749e-002
1.448302e+003,1.315698e-002
1.450230e+003,1.309747e-002
1.452159e+003,1.303118e-002
1.454087e+003,1.293398e-002
1.456016e+003,1.282944e-002
1.457944e+003,1.270554e-002
1.459873e+003,1.262566e-002
1.461801e+003,1.255037e-002
1.463730e+003,1.243000e-002
1.465658e+003,1.225812e-002
1.467587e+003,1.198475e-002
1.469515e+003,1.167727e-002
1.471444e+003,1.143573e-002
1.473372e+003,1.113814e-002
1.475301e+003,1.085063e-002
1.477229e+003,1.063047e-002
1.479158e+003,1.048683e-002
1.481086e+003,1.037908e-002
1.483015e+003,1.032352e-002
1.484943e+003,1.028957e-002
1.486872e+003,1.029605e-002
1.488800e+003,1.034941e-002
1.490729e+003,1.045670e-002
1.492657e+003,1.057749e-002
1.494586e+003,1.068080e-002
1.496514e+003,1.078049e-002
1.498443e+003,1.086953e-002
1.500371e+003,1.094950e-002
1.502300e+003,1.104782e-002
1.504228e+003,1.114931e-002
1.506157e+003,1.125280e-002
1.508085e+003,1.134099e-002
1.510014e+003,1.140014e-002
1.511942e+003,1.147128e-002
1.513871e+003,1.154030e-002
1.515799e+003,1.156187e-002
1.517728e+003,1.156113e-002
1.519656e+003,1.155917e-002
1.521585e+003,1.149583e-002
1.523513e+003,1.141719e-002
1.525442e+003,1.136758e-002
1.527370e+003,1.135926e-002
1.529299e+003,1.134938e-002
1.531227e+003,1.134866e-002
1.533156e+003,1.137156e-002
1.535084e+003,1.138912e-002
1.537013e+003,1.141426e-002
1.538941e+003,1.144213e-002
1.540870e+003,1.141146e-002
1.542798e+003,1.136201e-002
1.544727e+003,1.136254e-002
1.546655e+003,1.135216e-002
1.548584e+003,1.134011e-002
1.550512e+003,1.131492e-002
1.552441e+003,1.130520e-002
1.554369e+003,1.130773e-002
1.556298e+003,1.129062e-002
1.558226e+003,1.125582e-002
1.560155e+003,1.129198e-002
1.562083e+003,1.128938e-002
1.564012e+003,1.131343e-002
1.565940e+003,1.139433e-002
1.567869e+003,1.143998e-002
1.569797e+003,1.153034e-002
1.571726e+003,1.165004e-002
1.573654e+003,1.174613e-002
1.575583e+003,1.186956e-002
1.577511e+003,1.204479e-002
1.579440e+003,1.220224e-002
1.581368e+003,1.238732e-002
1.583297e+003,1.254855e-002
1.585225e+003,1.278153e-002
1.587154e+003,1.307902e-002
1.589082e+003,1.328193e-002
1.591010e+003,1.347783e-002
1.592939e+003,1.371031e-002
1.594868e+003,1.392886e-002
1.596796e+003,1.411782e-002
1.598724e+003,1.426776e-002
1.600653e+003,1.444363e-002
1.602582e+003,1.465522e-002
1.604510e+003,1.481843e-002
1.606438e+003,1.495864e-002
1.608367e+003,1.510662e-002
1.610296e+003,1.527525e-002
1.612224e+003,1.549675e-002
1.614152e+003,1.566497e-002
1.616081e+003,1.585879e-002
1.618010e+003,1.606490e-002
1.619938e+003,1.618284e-002
1.621866e+003,1.626873e-002
1.623795e+003,1.637978e-002
1.625724e+003,1.641786e-002
1.627652e+003,1.641954e-002
1.629580e+003,1.638915e-002
1.631509e+003,1.629802e-002
1.633438e+003,1.622415e-002
1.635366e+003,1.612526e-002
1.637294e+003,1.606436e-002
1.639223e+003,1.603149e-002
1.641151e+003,1.592357e-002
1.643080e+003,1.579741e-002
1.645008e+003,1.574705e-002
1.646937e+003,1.564619e-002
1.648865e+003,1.556327e-002
1.650794e+003,1.542753e-002
1.652722e+003,1.521855e-002
1.654651e+003,1.502505e-002
1.656579e+003,1.476136e-002
1.658508e+003,1.444824e-002
1.660436e+003,1.411137e-002
1.662365e+003,1.377667e-002
1.664293e+003,1.343390e-002
1.666222e+003,1.311138e-002
1.668150e+003,1.274849e-002
1.670079e+003,1.242139e-002
1.672007e+003,1.211473e-002
1.673936e+003,1.183637e-002
1.675864e+003,1.159397e-002
1.677793e+003,1.135815e-002
1.679721e+003,1.108826e-002
1.681650e+003,1.081064e-002
1.683578e+003,1.056532e-002
1.685507e+003,1.042234e-002
1.687435e+003,1.020612e-002
1.689364e+003,1.004339e-002
1.691292e+003,9.932465e-003
1.693221e+003,9.824002e-003
1.695149e+003,9.709106e-003
1.697078e+003,9.561785e-003
1.699006e+003,9.372418e-003
1.700935e+003,9.190910e-003
1.702863e+003,9.087758e-003
1.704792e+003,9.062073e-003
1.706720e+003,9.039402e-003
1.708649e+003,9.000620e-003
1.710577e+003,9.010624e-003
1.712506e+003,9.042359e-003
1.714434e+003,9.075026e-003
1.716363e+003,9.096319e-003
1.718291e+003,9.101513e-003
1.720220e+003,9.138515e-003
1.722148e+003,9.175770e-003
1.724077e+003,9.290830e-003
1.726005e+003,9.376150e-003
1.727934e+003,9.394735e-003
1.729862e+003,9.424174e-003
1.731791e+003,9.413974e-003
1.733719e+003,9.256908e-003
1.735648e+003,9.082443e-003
1.737576e+003,8.859228e-003
1.739505e+003,8.520342e-003
1.741433e+003,8.188915e-003
1.743362e+003,7.926762e-003
1.745290e+003,7.720066e-003
1.747219e+003,7.491125e-003
1.749147e+003,7.341310e-003
1.751076e+003,7.269028e-003
1.753004e+003,7.183960e-003
1.754933e+003,7.114141e-003
1.756861e+003,7.068553e-003
1.758790e+003,6.978874e-003
1.760718e+003,6.833193e-003
1.762647e+003,6.790980e-003
1.764575e+003,6.762945e-003
1.766504e+003,6.730154e-003
1.768432e+003,6.653907e-003
1.770361e+003,6.558571e-003
1.772289e+003,6.603624e-003
1.774218e+003,6.639003e-003
1.776146e+003,6.476482e-003
1.778075e+003,6.393612e-003
1.780003e+003,6.405077e-003
1.781932e+003,6.445006e-003
1.783860e+003,6.419468e-003
1.785789e+003,6.416450e-003
1.787717e+003,6.424081e-003
1.789646e+003,6.357241e-003
1.791574e+003,6.322685e-003
1.793503e+003,6.376152e-003
1.795431e+003,6.436999e-003
1.797360e+003,6.437830e-003
1.799288e+003,6.368438e-003
1.801217e+003,6.343286e-003
1.803145e+003,6.304353e-003
1.805074e+003,6.261232e-003
1.807002e+003,6.220333e-003
1.808931e+003,6.225033e-003
1.810859e+003,6.134660e-003
1.812788e+003,6.146736e-003
1.814716e+003,6.196216e-003
1.816645e+003,6.125722e-003
1.818573e+003,6.080145e-003
1.820502e+003,5.988196e-003
1.822430e+003,5.957610e-003
1.824359e+003,5.927739e-003
1.826287e+003,5.946395e-003
1.828216e+003,5.937988e-003
1.830144e+003,5.927355e-003
1.832073e+003,5.896996e-003
1.834001e+003,5.788154e-003
1.835930e+003,5.766831e-003
1.837858e+003,5.763506e-003
1.839787e+003,5.725744e-003
1.841715e+003,5.684124e-003
1.843644e+003,5.590271e-003
1.845572e+003,5.575985e-003
1.847501e+003,5.583421e-003
1.849429e+003,5.555837e-003
1.851358e+003,5.586224e-003
1.853286e+003,5.566356e-003
1.855215e+003,5.508276e-003
1.857143e+003,5.502162e-003
1.859072e+003,5.526580e-003
1.861000e+003,5.421975e-003
1.862929e+003,5.250752e-003
1.864857e+003,5.360852e-003
1.866786e+003,5.466767e-003
1.868714e+003,5.366673e-003
1.870643e+003,5.288397e-003
1.872571e+003,5.277907e-003
1.874500e+003,5.448554e-003
1.876428e+003,5.476179e-003
1.878357e+003,5.382815e-003
1.880285e+003,5.246445e-003
1.882214e+003,5.172338e-003
1.884142e+003,5.059596e-003
1.886071e+003,5.045001e-003
1.887999e+003,5.116219e-003
1.889928e+003,5.081713e-003
1.891856e+003,5.026873e-003
1.893785e+003,5.091721e-003
1.895713e+003,4.956299e-003
1.897642e+003,4.860424e-003
1.899570e+003,4.779408e-003
1.901499e+003,4.642506e-003
1.903427e+003,4.540460e-003
1.905356e+003,4.595828e-003
1.907284e+003,4.684520e-003
1.909213e+003,4.601843e-003
1.911141e+003,4.503737e-003
1.913070e+003,4.260045e-003
1.914998e+003,4.230017e-003
1.916927e+003,4.334296e-003
1.918855e+003,4.017965e-003
1.920784e+003,3.986012e-003
1.922712e+003,4.111002e-003
1.924641e+003,3.908927e-003
1.926569e+003,3.479777e-003
1.928498e+003,3.304484e-003
1.930426e+003,3.527634e-003
1.932355e+003,3.287812e-003
1.934283e+003,2.886167e-003
1.936212e+003,2.574233e-003
1.938140e+003,2.342608e-003
1.940069e+003,2.352128e-003
1.941997e+003,2.359383e-003
1.943926e+003,2.491274e-003
1.945854e+003,2.259323e-003
1.947783e+003,2.040970e-003
1.949711e+003,2.071300e-003
1.951640e+003,1.573326e-003
1.953568e+003,1.051169e-003
1.955497e+003,7.379715e-004
1.957425e+003,-3.022394e-004
1.959354e+003,-8.043527e-004
1.961282e+003,-8.582467e-004
1.963211e+003,-1.220625e-003
1.965139e+003,-2.211624e-003
1.967068e+003,-3.186054e-003
1.968996e+003,-3.389852e-003
1.970925e+003,-3.498013e-003
1.972853e+003,-4.625629e-003
1.974782e+003,-5.176628e-003
1.976710e+003,-5.241703e-003
1.978639e+003,-4.642817e-003
1.980567e+003,-3.856953e-003
1.982496e+003,-3.184666e-003
1.984424e+003,-2.150233e-003
1.986353e+003,-1.569824e-003
1.988281e+003,-1.782247e-003
1.990210e+003,-2.032486e-003
1.992138e+003,-1.356755e-003
1.994067e+003,-6.672356e-004
1.995995e+003,-1.091516e-003
1.997924e+003,-7.665080e-004
1.999852e+003,-8.579573e-004
2.001781e+003,-1.667287e-003
2.003709e+003,-2.327221e-003
2.005638e+003,-3.213915e-003
2.007566e+003,-3.284332e-003
2.009495e+003,-2.954508e-003
2.011423e+003,-3.323937e-003
2.013352e+003,-3.733944e-003
2.015280e+003,-3.787562e-003
2.017208e+003,-3.469267e-003
2.019137e+003,-3.897905e-003
2.021066e+003,-5.002745e-003
2.022994e+003,-5.158020e-003
2.024922e+003,-4.349537e-003
2.026851e+003,-3.006981e-003
2.028780e+003,-2.402883e-003
2.030708e+003,-3.048397e-003
2.032636e+003,-3.289087e-003
2.034565e+003,-3.945976e-003
2.036494e+003,-2.653786e-003
2.038422e+003,-1.575516e-003
2.040350e+003,-1.809466e-003
2.042279e+003,-1.416756e-003
2.044208e+003,-5.679427e-004
2.046136e+003,-6.036392e-005
2.048064e+003,3.410240e-004
2.049993e+003,1.094306e-003
2.051921e+003,1.474271e-003
2.053850e+003,2.005445e-003
2.055778e+003,2.180296e-003
2.057707e+003,2.297610e-003
2.059635e+003,2.294071e-003
2.061564e+003,2.297357e-003
2.063492e+003,2.852414e-003
2.065421e+003,2.967349e-003
2.067349e+003,2.983878e-003
2.069278e+003,3.166516e-003
2.071206e+003,3.383223e-003
2.073135e+003,3.238554e-003
2.075063e+003,3.311322e-003
2.076992e+003,3.434720e-003
2.078920e+003,3.762909e-003
2.080849e+003,3.936061e-003
2.082777e+003,3.975944e-003
2.084706e+003,3.934969e-003
2.086634e+003,3.934312e-003
2.088563e+003,3.962671e-003
2.090491e+003,3.800920e-003
2.092420e+003,3.639732e-003
2.094348e+003,3.844054e-003
2.096277e+003,3.927637e-003
2.098205e+003,3.948186e-003
2.100134e+003,3.860758e-003
2.102062e+003,3.781570e-003
2.103991e+003,3.603591e-003
2.105919e+003,3.651637e-003
2.107848e+003,3.680040e-003
2.109776e+003,3.809747e-003
2.111705e+003,3.612745e-003
2.113633e+003,3.483064e-003
2.115562e+003,3.590294e-003
2.117490e+003,3.941332e-003
2.119419e+003,3.822081e-003
2.121347e+003,3.685253e-003
2.123276e+003,3.600016e-003
2.125204e+003,3.614483e-003
2.127133e+003,3.174216e-003
2.129061e+003,2.896374e-003
2.130990e+003,2.650378e-003
2.132918e+003,2.054291e-003
2.134847e+003,1.509357e-003
2.136775e+003,1.054644e-003
2.138704e+003,9.677963e-004
2.140632e+003,1.826401e-004
2.142561e+003,-1.103886e-004
2.144489e+003,8.761524e-005
2.146418e+003,-6.458983e-004
2.148346e+003,-1.481808e-003
2.150275e+003,-2.016257e-003
2.152203e+003,-2.633511e-003
2.154132e+003,-3.174144e-003
2.156060e+003,-4.975492e-003
2.157989e+003,-8.460857e-003
2.159917e+003,-8.267470e-003
2.161846e+003,-5.564514e-003
2.163774e+003,-4.919278e-003
2.165703e+003,-4.728699e-003
2.167631e+003,-3.764496e-003
2.169560e+003,-2.703490e-003
2.171488e+003,-2.928497e-003
2.173417e+003,-3.045547e-003
2.175345e+003,-2.798412e-003
2.177274e+003,-3.098583e-003
2.179202e+003,-2.691767e-003
2.181131e+003,-2.400706e-003
2.183059e+003,-2.438236e-003
2.184988e+003,-1.500960e-003
2.186916e+003,-9.987035e-004
2.188845e+003,-4.806083e-004
2.190773e+003,-1.673237e-005
2.192702e+003,-1.530192e-004
2.194630e+003,-3.368094e-004
2.196559e+003,3.157165e-004
2.198487e+003,1.256370e-003
2.200416e+003,1.442830e-003
2.202344e+003,1.077961e-003
2.204273e+003,1.372291e-003
2.206201e+003,1.268765e-003
2.208130e+003,1.151973e-003
2.210058e+003,1.638151e-003
2.211987e+003,2.378967e-003
2.213915e+003,2.595209e-003
2.215844e+003,2.263809e-003
2.217772e+003,2.055123e-003
2.219701e+003,2.164898e-003
2.221629e+003,3.158162e-003
2.223558e+003,3.503673e-003
2.225486e+003,3.183528e-003
2.227415e+003,3.349615e-003
2.229343e+003,3.875066e-003
2.231272e+003,4.186981e-003
2.233200e+003,3.828534e-003
2.235129e+003,3.707791e-003
2.237057e+003,3.974980e-003
2.238986e+003,4.502745e-003
2.240914e+003,4.817774e-003
2.242843e+003,4.882387e-003
2.244771e+003,5.145624e-003
2.246700e+003,5.249059e-003
2.248628e+003,5.500511e-003
2.250557e+003,5.304371e-003
2.252485e+003,5.361541e-003
2.254414e+003,5.619395e-003
2.256342e+003,5.624669e-003
2.258271e+003,5.629482e-003
2.260199e+003,5.471833e-003
2.262128e+003,5.415188e-003
2.264056e+003,5.460861e-003
2.265985e+003,5.487868e-003
2.267913e+003,5.255254e-003
2.269842e+003,5.133623e-003
2.271770e+003,5.279385e-003
2.273699e+003,5.506721e-003
2.275627e+003,5.842091e-003
2.277556e+003,5.951375e-003
2.279484e+003,5.773299e-003
2.281413e+003,5.704975e-003
2.283341e+003,5.837525e-003
2.285270e+003,5.931633e-003
2.287198e+003,6.060673e-003
2.289127e+003,6.181262e-003
2.291055e+003,6.196188e-003
2.292984e+003,6.318333e-003
2.294912e+003,6.441794e-003
2.296841e+003,6.400032e-003
2.298769e+003,6.553245e-003
2.300698e+003,6.693076e-003
2.302626e+003,6.783958e-003
2.304555e+003,6.841242e-003
2.306483e+003,6.821423e-003
2.308412e+003,6.920096e-003
2.310340e+003,6.933456e-003
2.312269e+003,6.682846e-003
2.314197e+003,6.624638e-003
2.316125e+003,6.788684e-003
2.318054e+003,6.989276e-003
2.319983e+003,6.948326e-003
2.321911e+003,6.884196e-003
2.323840e+003,7.016761e-003
2.325768e+003,7.377025e-003
2.327697e+003,7.395540e-003
2.329625e+003,7.265792e-003
2.331553e+003,7.284761e-003
2.333482e+003,7.115400e-003
2.335411e+003,6.991440e-003
2.337339e+003,7.266147e-003
2.339268e+003,7.459715e-003
2.341196e+003,7.007203e-003
2.343125e+003,6.876990e-003
2.345053e+003,6.819075e-003
2.346981e+003,6.744105e-003
2.348910e+003,6.536499e-003
2.350839e+003,6.581451e-003
2.352767e+003,6.551610e-003
2.354696e+003,6.301095e-003
2.356624e+003,6.327030e-003
2.358552e+003,6.365183e-003
2.360481e+003,6.244097e-003
2.362409e+003,6.203746e-003
2.364338e+003,6.339087e-003
2.366267e+003,6.171713e-003
2.368195e+003,6.124165e-003
2.370124e+003,6.143754e-003
2.372052e+003,6.378362e-003
2.373980e+003,6.501904e-003
2.375909e+003,6.522910e-003
2.377838e+003,6.487018e-003
2.379766e+003,6.595912e-003
2.381695e+003,6.617205e-003
2.383623e+003,6.570188e-003
2.385552e+003,6.319320e-003
2.387480e+003,6.157703e-003
2.389408e+003,6.090119e-003
2.391337e+003,6.242252e-003
2.393266e+003,6.316000e-003
2.395194e+003,6.330824e-003
2.397123e+003,6.331136e-003
2.399051e+003,6.385080e-003
2.400979e+003,6.401393e-003
2.402908e+003,6.507193e-003
2.404836e+003,6.521791e-003
2.406765e+003,6.439190e-003
2.408694e+003,6.300829e-003
2.410622e+003,6.205868e-003
2.412551e+003,6.165267e-003
2.414479e+003,6.185365e-003
2.416407e+003,6.220220e-003
2.418336e+003,6.228387e-003
2.420264e+003,6.120068e-003
2.422193e+003,6.069294e-003
2.424122e+003,6.023432e-003
2.426050e+003,5.966187e-003
2.427979e+003,6.046379e-003
2.429907e+003,6.078266e-003
2.431835e+003,5.999848e-003
2.433764e+003,5.913820e-003
2.435692e+003,5.984966e-003
2.437621e+003,5.971495e-003
2.439550e+003,5.880871e-003
2.441478e+003,5.957386e-003
2.443406e+003,6.011069e-003
2.445335e+003,6.006096e-003
2.447263e+003,5.965079e-003
2.449192e+003,5.906565e-003
2.451121e+003,5.852962e-003
2.453049e+003,5.899444e-003
2.454978e+003,5.917817e-003
2.456906e+003,5.885607e-003
2.458834e+003,5.819312e-003
2.460763e+003,5.805914e-003
2.462691e+003,5.916843e-003
2.464620e+003,5.862567e-003
2.466549e+003,5.806183e-003
2.468477e+003,5.789829e-003
2.470406e+003,5.784423e-003
2.472334e+003,5.658523e-003
2.474262e+003,5.631400e-003
2.476191e+003,5.797754e-003
2.478119e+003,5.764545e-003
2.480048e+003,5.642578e-003
2.481977e+003,5.610992e-003
2.483905e+003,5.554204e-003
2.485833e+003,5.519941e-003
2.487762e+003,5.553231e-003
2.489690e+003,5.595989e-003
2.491619e+003,5.569072e-003
2.493547e+003,5.636603e-003
2.495476e+003,5.729560e-003
2.497405e+003,5.689978e-003
2.499333e+003,5.673461e-003
2.501261e+003,5.756386e-003
2.503190e+003,5.885539e-003
2.505118e+003,5.879662e-003
2.507047e+003,5.783718e-003
2.508975e+003,5.702232e-003
2.510904e+003,5.624116e-003
2.512833e+003,5.733018e-003
2.514761e+003,5.818507e-003
2.516689e+003,5.776364e-003
2.518618e+003,5.717809e-003
2.520546e+003,5.776935e-003
2.522475e+003,5.776163e-003
2.524403e+003,5.759845e-003
2.526332e+003,5.759207e-003
2.528260e+003,5.729862e-003
2.530189e+003,5.787042e-003
2.532117e+003,5.809574e-003
2.534046e+003,5.888394e-003
2.535974e+003,5.986612e-003
2.537903e+003,5.994439e-003
2.539831e+003,6.075981e-003
2.541760e+003,6.066170e-003
2.543688e+003,5.937299e-003
2.545617e+003,5.930849e-003
2.547545e+003,6.021181e-003
2.549474e+003,6.030790e-003
2.551402e+003,6.018158e-003
2.553331e+003,6.123260e-003
2.555259e+003,6.200322e-003
2.557188e+003,6.128334e-003
2.559116e+003,6.168662e-003
2.561045e+003,6.156025e-003
2.562973e+003,6.170577e-003
2.564902e+003,6.262606e-003
2.566830e+003,6.497237e-003
2.568759e+003,6.628831e-003
2.570687e+003,6.527912e-003
2.572616e+003,6.443427e-003
2.574544e+003,6.508841e-003
2.576473e+003,6.584424e-003
2.578401e+003,6.594583e-003
2.580330e+003,6.582809e-003
2.582258e+003,6.696662e-003
2.584187e+003,6.735933e-003
2.586115e+003,6.688923e-003
2.588044e+003,6.714194e-003
2.589972e+003,6.692524e-003
2.591901e+003,6.759489e-003
2.593829e+003,6.856457e-003
2.595758e+003,6.874331e-003
2.597686e+003,6.870023e-003
2.599615e+003,6.834443e-003
2.601543e+003,6.909140e-003
2.603472e+003,6.983513e-003
2.605400e+003,7.021024e-003
2.607329e+003,7.045910e-003
2.609257e+003,7.065140e-003
2.611186e+003,7.041195e-003
2.613114e+003,7.142032e-003
2.615043e+003,7.135396e-003
2.616971e+003,7.102692e-003
2.618900e+003,7.150082e-003
2.620828e+003,7.260210e-003
2.622757e+003,7.292252e-003
2.624685e+003,7.269475e-003
2.626614e+003,7.211628e-003
2.628542e+003,7.197512e-003
2.630471e+003,7.300845e-003
2.632399e+003,7.328948e-003
2.634328e+003,7.347988e-003
2.636256e+003,7.361164e-003
2.638185e+003,7.383711e-003
2.640113e+003,7.385868e-003
2.642042e+003,7.383509e-003
2.643970e+003,7.428470e-003
2.645899e+003,7.447311e-003
2.647827e+003,7.431301e-003
2.649756e+003,7.442256e-003
2.651684e+003,7.476267e-003
2.653613e+003,7.478559e-003
2.655541e+003,7.403494e-003
2.657470e+003,7.422403e-003
2.659398e+003,7.501212e-003
2.661327e+003,7.516012e-003
2.663255e+003,7.560616e-003
2.665184e+003,7.556267e-003
2.667112e+003,7.538060e-003
2.669041e+003,7.537690e-003
2.670969e+003,7.578047e-003
2.672898e+003,7.578823e-003
2.674826e+003,7.524137e-003
2.676755e+003,7.518911e-003
2.678683e+003,7.542578e-003
2.680612e+003,7.570731e-003
2.682540e+003,7.530947e-003
2.684469e+003,7.529228e-003
2.686397e+003,7.529025e-003
2.688326e+003,7.480548e-003
2.690254e+003,7.463120e-003
2.692183e+003,7.506977e-003
2.694111e+003,7.476907e-003
2.696040e+003,7.393990e-003
2.697968e+003,7.359311e-003
2.699897e+003,7.357693e-003
2.701825e+003,7.406460e-003
2.703754e+003,7.390485e-003
2.705682e+003,7.374813e-003
2.707611e+003,7.373769e-003
2.709539e+003,7.333160e-003
2.711468e+003,7.304484e-003
2.713396e+003,7.321096e-003
2.715325e+003,7.324635e-003
2.717253e+003,7.289220e-003
2.719182e+003,7.287501e-003
2.721110e+003,7.327364e-003
2.723039e+003,7.306405e-003
2.724967e+003,7.273923e-003
2.726896e+003,7.291916e-003
2.728824e+003,7.294072e-003
2.730753e+003,7.283526e-003
2.732681e+003,7.275304e-003
2.734610e+003,7.223486e-003
2.736538e+003,7.228338e-003
2.738467e+003,7.223116e-003
2.740395e+003,7.228136e-003
2.742324e+003,7.262265e-003
2.744252e+003,7.243364e-003
2.746181e+003,7.226485e-003
2.748109e+003,7.221701e-003
2.750038e+003,7.185520e-003
2.751966e+003,7.166925e-003
2.753895e+003,7.196839e-003
2.755823e+003,7.232987e-003
2.757752e+003,7.243566e-003
2.759680e+003,7.261490e-003
2.761609e+003,7.314997e-003
2.763537e+003,7.263074e-003
2.765466e+003,7.228371e-003
2.767394e+003,7.245183e-003
2.769323e+003,7.248957e-003
2.771251e+003,7.295723e-003
2.773180e+003,7.359412e-003
2.775108e+003,7.295150e-003
2.777037e+003,7.236457e-003
2.778965e+003,7.265095e-003
2.780894e+003,7.325578e-003
2.782822e+003,7.357121e-003
2.784750e+003,7.358131e-003
2.786679e+003,7.353178e-003
2.788608e+003,7.391125e-003
2.790536e+003,7.373398e-003
2.792465e+003,7.342394e-003
2.794393e+003,7.381857e-003
2.796322e+003,7.370264e-003
2.798250e+003,7.402989e-003
2.800178e+003,7.429211e-003
2.802107e+003,7.425301e-003
2.804036e+003,7.476233e-003
2.805964e+003,7.466019e-003
2.807893e+003,7.466222e-003
2.809821e+003,7.468817e-003
2.811750e+003,7.505662e-003
2.813678e+003,7.568438e-003
2.815606e+003,7.563482e-003
2.817535e+003,7.575013e-003
2.819464e+003,7.558154e-003
2.821392e+003,7.546118e-003
2.823321e+003,7.583712e-003
2.825249e+003,7.609507e-003
2.827177e+003,7.702010e-003
2.829106e+003,7.766298e-003
2.831034e+003,7.791935e-003
2.832963e+003,7.807318e-003
2.834892e+003,7.842269e-003
2.836820e+003,7.897299e-003
2.838749e+003,7.970153e-003
2.840677e+003,8.013926e-003
2.842605e+003,8.086802e-003
2.844534e+003,8.170189e-003
2.846462e+003,8.261663e-003
2.848391e+003,8.239646e-003
2.850320e+003,8.195647e-003
2.852248e+003,8.147399e-003
2.854177e+003,8.108204e-003
2.856105e+003,8.079443e-003
2.858033e+003,8.105740e-003
2.859962e+003,8.154456e-003
2.861890e+003,8.201893e-003
2.863819e+003,8.203312e-003
2.865748e+003,8.274732e-003
2.867676e+003,8.360588e-003
2.869604e+003,8.344273e-003
2.871533e+003,8.356028e-003
2.873461e+003,8.446697e-003
2.875390e+003,8.447271e-003
2.877319e+003,8.432811e-003
2.879247e+003,8.454467e-003
2.881176e+003,8.460549e-003
2.883104e+003,8.490315e-003
2.885032e+003,8.505757e-003
2.886961e+003,8.539412e-003
2.888889e+003,8.511095e-003
2.890818e+003,8.502817e-003
2.892747e+003,8.583783e-003
2.894675e+003,8.615755e-003
2.896604e+003,8.554687e-003
2.898532e+003,8.510690e-003
2.900460e+003,8.487072e-003
2.902389e+003,8.482071e-003
2.904317e+003,8.438690e-003
2.906246e+003,8.443420e-003
2.908175e+003,8.461258e-003
2.910103e+003,8.448014e-003
2.912031e+003,8.381329e-003
2.913960e+003,8.372748e-003
2.915888e+003,8.433926e-003
2.917817e+003,8.400111e-003
2.919745e+003,8.174646e-003
2.921674e+003,8.080996e-003
2.923603e+003,7.993035e-003
2.925531e+003,7.800740e-003
2.927459e+003,7.730881e-003
2.929388e+003,7.705787e-003
2.931316e+003,7.659920e-003
2.933245e+003,7.635438e-003
2.935173e+003,7.617733e-003
2.937102e+003,7.604414e-003
2.939031e+003,7.572308e-003
2.940959e+003,7.532480e-003
2.942887e+003,7.542460e-003
2.944816e+003,7.474325e-003
2.946744e+003,7.414544e-003
2.948673e+003,7.318587e-003
2.950601e+003,7.270349e-003
2.952530e+003,7.212154e-003
2.954458e+003,7.131295e-003
2.956387e+003,7.025085e-003
2.958315e+003,7.010481e-003
2.960244e+003,7.013648e-003
2.962172e+003,7.029502e-003
2.964101e+003,6.982961e-003
2.966029e+003,6.916923e-003
2.967958e+003,6.850101e-003
2.969886e+003,6.857784e-003
2.971815e+003,6.834239e-003
2.973743e+003,6.819475e-003
2.975672e+003,6.806700e-003
2.977600e+003,6.805124e-003
2.979529e+003,6.795507e-003
2.981457e+003,6.775352e-003
2.983386e+003,6.799916e-003
2.985314e+003,6.776678e-003
2.987243e+003,6.729183e-003
2.989171e+003,6.736355e-003
2.991100e+003,6.741353e-003
2.993028e+003,6.767950e-003
2.994957e+003,6.750259e-003
2.996885e+003,6.743785e-003
2.998814e+003,6.710684e-003
3.000742e+003,6.740564e-003
3.002671e+003,6.741670e-003
3.004599e+003,6.761855e-003
3.006528e+003,6.826594e-003
3.008456e+003,6.824922e-003
3.010385e+003,6.805152e-003
3.012313e+003,6.813304e-003
3.014242e+003,6.861079e-003
3.016170e+003,6.912923e-003
3.018099e+003,6.909975e-003
3.020027e+003,6.909621e-003
3.021956e+003,6.934121e-003
3.023884e+003,6.957934e-003
3.025813e+003,6.942852e-003
3.027741e+003,6.985083e-003
3.029670e+003,6.986046e-003
3.031598e+003,6.945694e-003
3.033527e+003,6.936840e-003
3.035455e+003,6.993248e-003
3.037384e+003,7.042476e-003
3.039312e+003,7.094899e-003
3.041241e+003,7.129948e-003
3.043169e+003,7.167763e-003
3.045098e+003,7.122368e-003
3.047026e+003,7.064799e-003
3.048955e+003,7.104726e-003
3.050883e+003,7.164906e-003
3.052812e+003,7.169519e-003
3.054740e+003,7.232819e-003
3.056669e+003,7.265266e-003
3.058597e+003,7.248776e-003
3.060526e+003,7.244150e-003
3.062454e+003,7.236201e-003
3.064383e+003,7.229653e-003
3.066311e+003,7.261657e-003
3.068240e+003,7.292719e-003
3.070168e+003,7.372190e-003
3.072097e+003,7.411625e-003
3.074025e+003,7.430133e-003
3.075954e+003,7.444037e-003
3.077882e+003,7.467682e-003
3.079811e+003,7.481717e-003
3.081739e+003,7.486527e-003
3.083668e+003,7.543982e-003
3.085596e+003,7.570838e-003
3.087525e+003,7.538898e-003
3.089453e+003,7.498719e-003
3.091382e+003,7.505077e-003
3.093310e+003,7.596142e-003
3.095239e+003,7.589035e-003
3.097167e+003,7.566606e-003
3.099096e+003,7.602814e-003
3.101024e+003,7.614116e-003
3.102953e+003,7.632017e-003
3.104881e+003,7.621743e-003
3.106810e+003,7.691663e-003
3.108738e+003,7.733733e-003
3.110667e+003,7.793228e-003
3.112595e+003,7.837740e-003
3.114524e+003,7.817821e-003
3.116452e+003,7.820363e-003
3.118381e+003,7.880054e-003
3.120309e+003,7.921972e-003
3.122238e+003,7.947376e-003
3.124166e+003,7.998654e-003
3.126095e+003,7.997513e-003
3.128023e+003,7.956930e-003
3.129952e+003,8.098705e-003
3.131880e+003,8.193507e-003
3.133809e+003,8.164297e-003
3.135737e+003,8.210214e-003
3.137666e+003,8.291588e-003
3.139594e+003,8.276577e-003
3.141523e+003,8.243592e-003
3.143451e+003,8.332445e-003
3.145380e+003,8.388091e-003
3.147308e+003,8.432725e-003
3.149237e+003,8.529593e-003
3.151165e+003,8.579202e-003
3.153094e+003,8.568591e-003
3.155022e+003,8.544986e-003
3.156951e+003,8.614171e-003
3.158879e+003,8.610568e-003
3.160808e+003,8.546966e-003
3.162736e+003,8.660114e-003
3.164665e+003,8.724855e-003
3.166593e+003,8.700989e-003
3.168522e+003,8.748090e-003
3.170450e+003,8.803717e-003
3.172379e+003,8.881986e-003
3.174307e+003,8.914217e-003
3.176236e+003,8.984743e-003
3.178164e+003,9.055762e-003
3.180093e+003,9.054122e-003
3.182021e+003,9.063320e-003
3.183950e+003,9.144172e-003
3.185878e+003,9.219723e-003
3.187807e+003,9.329716e-003
3.189735e+003,9.402150e-003
3.191664e+003,9.373275e-003
3.193592e+003,9.386267e-003
3.195521e+003,9.424499e-003
3.197449e+003,9.549811e-003
3.199378e+003,9.658663e-003
3.201306e+003,9.630143e-003
3.203235e+003,9.607166e-003
3.205163e+003,9.603109e-003
3.207092e+003,9.641221e-003
3.209020e+003,9.772190e-003
3.210948e+003,9.840433e-003
3.212877e+003,9.886543e-003
3.214806e+003,1.000851e-002
3.216734e+003,1.004725e-002
3.218663e+003,9.990710e-003
3.220591e+003,1.002678e-002
3.222520e+003,1.009865e-002
3.224448e+003,1.020621e-002
3.226376e+003,1.024143e-002
3.228305e+003,1.027635e-002
3.230234e+003,1.031543e-002
3.232162e+003,1.042735e-002
3.234091e+003,1.052418e-002
3.236019e+003,1.053036e-002
3.237948e+003,1.059786e-002
3.239876e+003,1.066796e-002
3.241804e+003,1.078436e-002
3.243733e+003,1.080519e-002
3.245662e+003,1.081431e-002
3.247590e+003,1.086348e-002
3.249519e+003,1.085948e-002
3.251447e+003,1.094629e-002
3.253375e+003,1.103621e-002
3.255304e+003,1.109566e-002
3.257232e+003,1.111578e-002
3.259161e+003,1.113711e-002
3.261090e+003,1.119207e-002
3.263018e+003,1.126070e-002
3.264947e+003,1.133639e-002
3.266875e+003,1.139764e-002
3.268803e+003,1.137471e-002
3.270732e+003,1.133732e-002
3.272660e+003,1.143617e-002
3.274589e+003,1.146051e-002
3.276518e+003,1.152146e-002
3.278446e+003,1.157853e-002
3.280375e+003,1.156785e-002
3.282303e+003,1.154496e-002
3.284231e+003,1.146853e-002
3.286160e+003,1.150939e-002
3.288088e+003,1.155857e-002
3.290017e+003,1.158010e-002
3.291946e+003,1.156570e-002
3.293874e+003,1.156413e-002
3.295802e+003,1.155498e-002
3.297731e+003,1.152561e-002
3.299659e+003,1.156308e-002
3.301588e+003,1.160149e-002
3.303516e+003,1.156875e-002
3.305445e+003,1.163734e-002
3.307374e+003,1.162638e-002
3.309302e+003,1.152736e-002
3.311230e+003,1.154343e-002
3.313159e+003,1.162177e-002
3.315087e+003,1.165435e-002
3.317016e+003,1.168894e-002
3.318944e+003,1.169350e-002
3.320873e+003,1.169699e-002
3.322802e+003,1.168478e-002
3.324730e+003,1.171870e-002
3.326658e+003,1.182461e-002
3.328587e+003,1.181686e-002
3.330515e+003,1.172685e-002
3.332444e+003,1.164347e-002
3.334372e+003,1.164501e-002
3.336301e+003,1.170417e-002
3.338229e+003,1.172320e-002
3.340158e+003,1.165581e-002
3.342086e+003,1.161804e-002
3.344015e+003,1.160019e-002
3.345943e+003,1.161365e-002
3.347872e+003,1.151718e-002
3.349800e+003,1.145252e-002
3.351729e+003,1.144302e-002
3.353657e+003,1.140148e-002
3.355586e+003,1.137705e-002
3.357514e+003,1.129989e-002
3.359443e+003,1.122581e-002
3.361371e+003,1.113340e-002
3.363300e+003,1.111010e-002
3.365229e+003,1.107973e-002
3.367157e+003,1.104520e-002
3.369085e+003,1.098363e-002
3.371014e+003,1.090765e-002
3.372942e+003,1.084575e-002
3.374871e+003,1.081624e-002
3.376799e+003,1.075216e-002
3.378728e+003,1.069286e-002
3.380656e+003,1.075364e-002
3.382585e+003,1.076122e-002
3.384513e+003,1.069037e-002
3.386442e+003,1.059887e-002
3.388370e+003,1.051494e-002
3.390299e+003,1.045873e-002
3.392227e+003,1.040277e-002
3.394156e+003,1.037045e-002
3.396084e+003,1.035865e-002
3.398013e+003,1.033040e-002
3.399941e+003,1.026442e-002
3.401870e+003,1.021372e-002
3.403798e+003,1.013846e-002
3.405727e+003,1.005062e-002
3.407655e+003,1.008146e-002
3.409584e+003,9.997617e-003
3.411512e+003,9.906915e-003
3.413441e+003,9.887748e-003
3.415369e+003,9.767348e-003
3.417298e+003,9.660733e-003
3.419226e+003,9.636969e-003
3.421155e+003,9.526696e-003
3.423083e+003,9.511592e-003
3.425012e+003,9.419898e-003
3.426940e+003,9.262449e-003
3.428869e+003,9.220616e-003
3.430797e+003,9.101546e-003
3.432726e+003,9.011158e-003
3.434654e+003,8.955604e-003
3.436583e+003,8.882267e-003
3.438511e+003,8.757217e-003
3.440440e+003,8.705655e-003
3.442368e+003,8.599931e-003
3.444297e+003,8.390686e-003
3.446225e+003,8.340824e-003
3.448154e+003,8.334310e-003
3.450082e+003,8.227326e-003
3.452011e+003,8.169397e-003
3.453939e+003,8.077710e-003
3.455868e+003,7.981369e-003
3.457796e+003,7.818960e-003
3.459725e+003,7.572733e-003
3.461653e+003,7.525416e-003
3.463582e+003,7.530799e-003
3.465510e+003,7.459734e-003
3.467439e+003,7.340714e-003
3.469367e+003,7.233259e-003
3.471296e+003,7.150129e-003
3.473224e+003,7.107295e-003
3.475153e+003,7.008831e-003
3.477081e+003,6.877380e-003
3.479010e+003,6.796892e-003
3.480938e+003,6.679894e-003
3.482867e+003,6.583165e-003
3.484795e+003,6.519001e-003
3.486724e+003,6.491335e-003
3.488652e+003,6.418993e-003
3.490581e+003,6.303163e-003
3.492509e+003,6.189585e-003
3.494438e+003,6.041282e-003
3.496366e+003,6.036005e-003
3.498295e+003,6.128021e-003
3.500223e+003,6.006795e-003
3.502152e+003,5.937049e-003
3.504080e+003,5.890299e-003
3.506009e+003,5.774389e-003
3.507937e+003,5.707624e-003
3.509866e+003,5.580154e-003
3.511794e+003,5.501860e-003
3.513723e+003,5.478724e-003
3.515651e+003,5.464423e-003
3.517580e+003,5.328146e-003
3.519508e+003,5.245108e-003
3.521437e+003,5.129407e-003
3.523365e+003,5.011303e-003
3.525294e+003,5.021636e-003
3.527222e+003,5.023730e-003
3.529151e+003,4.884948e-003
3.531079e+003,4.789030e-003
3.533008e+003,4.737988e-003
3.534936e+003,4.661271e-003
3.536865e+003,4.546946e-003
3.538793e+003,4.511279e-003
3.540722e+003,4.421864e-003
3.542650e+003,4.236391e-003
3.544579e+003,4.171331e-003
3.546507e+003,4.229662e-003
3.548436e+003,4.193575e-003
3.550364e+003,4.111450e-003
3.552293e+003,4.011381e-003
3.554221e+003,3.944271e-003
3.556150e+003,3.804917e-003
3.558078e+003,3.627403e-003
3.560007e+003,3.534076e-003
3.561935e+003,3.484150e-003
3.563864e+003,3.405038e-003
3.565792e+003,3.412734e-003
3.567721e+003,3.365609e-003
3.569649e+003,3.261799e-003
3.571578e+003,3.151810e-003
3.573506e+003,3.099561e-003
3.575435e+003,2.988831e-003
3.577363e+003,2.839061e-003
3.579292e+003,2.639550e-003
3.581220e+003,2.505802e-003
3.583149e+003,2.337948e-003
3.585077e+003,2.081578e-003
3.587006e+003,1.846062e-003
3.588934e+003,1.584135e-003
3.590863e+003,1.330706e-003
3.592791e+003,1.096756e-003
3.594720e+003,8.404040e-004
3.596648e+003,7.729637e-004
3.598577e+003,6.991078e-004
3.600505e+003,6.481203e-004
3.602434e+003,7.260552e-004
3.604362e+003,9.827469e-004
3.606291e+003,1.146140e-003
3.608219e+003,1.374040e-003
3.610148e+003,1.799380e-003
3.612076e+003,2.083947e-003
3.614005e+003,1.893109e-003
3.615933e+003,1.386729e-003
3.617862e+003,8.096463e-004
3.619790e+003,2.866310e-004
3.621719e+003,-3.623759e-005
3.623647e+003,-2.367423e-004
3.625576e+003,-3.590205e-004
3.627504e+003,-3.398873e-004
3.629433e+003,-3.278630e-004
3.631361e+003,3.874308e-005
3.633290e+003,3.806455e-004
3.635218e+003,6.074607e-004
3.637146e+003,9.313151e-004
3.639075e+003,1.209955e-003
3.641004e+003,1.437698e-003
3.642932e+003,1.553272e-003
3.644861e+003,1.678340e-003
3.646789e+003,1.730957e-003
3.648718e+003,1.756142e-003
3.650646e+003,1.695059e-003
3.652574e+003,1.711693e-003
3.654503e+003,1.735314e-003
3.656432e+003,1.733551e-003
3.658360e+003,1.735358e-003
3.660289e+003,1.646996e-003
3.662217e+003,1.695930e-003
3.664146e+003,1.683647e-003
3.666074e+003,1.714997e-003
3.668002e+003,1.828551e-003
3.669931e+003,1.720559e-003
3.671860e+003,1.575784e-003
3.673788e+003,1.505002e-003
3.675717e+003,1.408275e-003
3.677645e+003,1.234571e-003
3.679573e+003,1.136771e-003
3.681502e+003,1.046777e-003
3.683430e+003,8.471563e-004
3.685359e+003,6.211667e-004
3.687288e+003,4.063866e-004
3.689216e+003,8.188959e-005
3.691145e+003,-2.396189e-004
3.693073e+003,-4.825000e-004
3.695001e+003,-7.249939e-004
3.696930e+003,-1.021106e-003
3.698858e+003,-1.139606e-003
3.700787e+003,-1.160450e-003
3.702716e+003,-1.277185e-003
3.704644e+003,-1.194079e-003
3.706573e+003,-8.455839e-004
3.708501e+003,-5.930631e-004
3.710429e+003,-2.214222e-004
3.712358e+003,5.038670e-004
3.714286e+003,9.963986e-004
3.716215e+003,6.086953e-004
3.718144e+003,-2.385950e-004
3.720072e+003,-9.206082e-004
3.722000e+003,-1.420751e-003
3.723929e+003,-1.829073e-003
3.725857e+003,-2.150565e-003
3.727786e+003,-2.223783e-003
3.729714e+003,-2.107673e-003
3.731643e+003,-1.871830e-003
3.733572e+003,-1.494297e-003
3.735500e+003,-1.018251e-003
3.737428e+003,-4.590223e-004
3.739357e+003,1.286225e-004
3.741285e+003,5.986441e-004
3.743214e+003,1.107041e-003
3.745142e+003,1.356650e-003
3.747071e+003,1.523189e-003
3.749000e+003,1.713216e-003
3.750928e+003,1.779062e-003
3.752856e+003,1.805412e-003
3.754785e+003,1.836640e-003
3.756713e+003,1.885808e-003
3.758642e+003,1.872765e-003
3.760570e+003,1.803146e-003
3.762499e+003,1.822375e-003
3.764427e+003,1.874120e-003
3.766356e+003,1.869000e-003
3.768284e+003,1.937940e-003
3.770213e+003,1.876543e-003
3.772141e+003,1.831321e-003
3.774070e+003,1.892060e-003
3.775998e+003,1.899798e-003
3.777927e+003,1.915479e-003
3.779855e+003,1.851950e-003
3.781784e+003,1.859723e-003
3.783712e+003,1.902236e-003
3.785641e+003,1.884225e-003
3.787569e+003,1.849295e-003
3.789498e+003,1.816114e-003
3.791426e+003,1.784579e-003
3.793355e+003,1.819090e-003
3.795283e+003,1.857065e-003
3.797212e+003,1.857320e-003
3.799140e+003,1.918455e-003
3.801069e+003,1.944364e-003
3.802997e+003,1.869544e-003
3.804926e+003,1.846239e-003
3.806854e+003,1.823751e-003
3.808783e+003,1.748362e-003
3.810711e+003,1.814975e-003
3.812640e+003,1.940016e-003
3.814568e+003,1.848554e-003
3.816497e+003,1.818449e-003
3.818425e+003,1.879852e-003
3.820354e+003,1.786784e-003
3.822282e+003,1.741766e-003
3.824211e+003,1.870403e-003
3.826139e+003,1.892231e-003
3.828068e+003,1.815801e-003
3.829996e+003,1.856162e-003
3.831925e+003,1.826677e-003
3.833853e+003,1.825763e-003
3.835782e+003,1.986643e-003
3.837710e+003,1.920292e-003
3.839639e+003,1.794747e-003
3.841567e+003,1.718506e-003
3.843496e+003,1.790453e-003
3.845424e+003,1.878322e-003
3.847353e+003,1.846946e-003
3.849281e+003,1.813873e-003
3.851210e+003,1.874861e-003
3.853138e+003,1.932443e-003
3.855067e+003,1.813220e-003
3.856995e+003,1.746904e-003
3.858924e+003,1.787235e-003
3.860852e+003,1.837278e-003
3.862781e+003,1.852144e-003
3.864709e+003,1.768679e-003
3.866638e+003,1.714731e-003
3.868566e+003,1.773467e-003
3.870495e+003,1.703587e-003
3.872423e+003,1.685061e-003
3.874352e+003,1.750798e-003
3.876280e+003,1.792754e-003
3.878209e+003,1.814466e-003
3.880137e+003,1.812662e-003
3.882066e+003,1.772609e-003
3.883994e+003,1.756758e-003
3.885923e+003,1.683276e-003
3.887851e+003,1.631020e-003
3.889780e+003,1.658542e-003
3.891708e+003,1.713762e-003
3.893637e+003,1.714649e-003
3.895565e+003,1.714283e-003
3.897494e+003,1.698237e-003
3.899422e+003,1.724339e-003
3.901351e+003,1.753687e-003
3.903279e+003,1.723291e-003
3.905208e+003,1.649254e-003
3.907136e+003,1.653949e-003
3.909065e+003,1.670462e-003
3.910993e+003,1.654578e-003
3.912922e+003,1.620161e-003
3.914850e+003,1.624372e-003
3.916779e+003,1.560854e-003
3.918707e+003,1.558074e-003
3.920636e+003,1.489567e-003
3.922564e+003,1.495198e-003
3.924493e+003,1.524732e-003
3.926421e+003,1.551682e-003
3.928350e+003,1.576262e-003
3.930278e+003,1.530701e-003
3.932207e+003,1.547141e-003
3.934135e+003,1.574153e-003
3.936064e+003,1.577287e-003
3.937992e+003,1.572586e-003
3.939921e+003,1.567844e-003
3.941849e+003,1.619377e-003
3.943778e+003,1.590290e-003
3.945706e+003,1.589266e-003
3.947635e+003,1.551890e-003
3.949563e+003,1.533784e-003
3.951492e+003,1.561622e-003
3.953420e+003,1.607268e-003
3.955349e+003,1.577283e-003
3.957277e+003,1.608728e-003
3.959206e+003,1.549428e-003
3.961134e+003,1.499227e-003
3.963063e+003,1.505804e-003
3.964991e+003,1.528099e-003
3.966920e+003,1.519642e-003
3.968848e+003,1.404374e-003
3.970777e+003,1.351395e-003
3.972705e+003,1.423465e-003
3.974634e+003,1.400867e-003
3.976562e+003,1.348542e-003
3.978491e+003,1.374940e-003
3.980419e+003,1.429964e-003
3.982348e+003,1.429535e-003
3.984276e+003,1.402172e-003
3.986205e+003,1.391937e-003
3.988133e+003,1.311800e-003
3.990062e+003,1.238113e-003
3.991990e+003,1.285511e-003
3.993919e+003,1.362279e-003
3.995847e+003,1.325144e-003
3.997776e+003,1.305168e-003
3.999704e+003,1.306051e-003
4.001633e+003,0.000000e+000
