3.991989e+002,4.715789e-002
4.011274e+002,4.928865e-002
4.030559e+002,4.928865e-002
4.049844e+002,4.786735e-002
4.069129e+002,4.450962e-002
4.088414e+002,4.425878e-002
4.107699e+002,4.495116e-002
4.126984e+002,4.484260e-002
4.146269e+002,4.377772e-002
4.165554e+002,4.421034e-002
4.184839e+002,4.407248e-002
4.204124e+002,4.309084e-002
4.223409e+002,4.333895e-002
4.242694e+002,4.355638e-002
4.261979e+002,4.324879e-002
4.281264e+002,4.380530e-002
4.300549e+002,4.370504e-002
4.319834e+002,4.278682e-002
4.339119e+002,4.313240e-002
4.358404e+002,4.332456e-002
4.377689e+002,4.249051e-002
4.396974e+002,4.228621e-002
4.416259e+002,4.234909e-002
4.435544e+002,4.170445e-002
4.454829e+002,4.164048e-002
4.474114e+002,4.173531e-002
4.493399e+002,4.182582e-002
4.512684e+002,4.180884e-002
4.531969e+002,4.163063e-002
4.551254e+002,4.103545e-002
4.570539e+002,4.105284e-002
4.589824e+002,4.118124e-002
4.609109e+002,4.139008e-002
4.628394e+002,4.174317e-002
4.647679e+002,4.181237e-002
4.666964e+002,4.136908e-002
4.686249e+002,4.123392e-002
4.705533e+002,4.095686e-002
4.724819e+002,4.092392e-002
4.744103e+002,4.153887e-002
4.763389e+002,4.107862e-002
4.782673e+002,4.109980e-002
4.801959e+002,4.181644e-002
4.821243e+002,4.143525e-002
4.840529e+002,4.101408e-002
4.859813e+002,4.108969e-002
4.879099e+002,4.086489e-002
4.898383e+002,4.102675e-002
4.917668e+002,4.085732e-002
4.936953e+002,4.107476e-002
4.956238e+002,4.152872e-002
4.975523e+002,4.130828e-002
4.994808e+002,4.143167e-002
5.014093e+002,4.194096e-002
5.033378e+002,4.213306e-002
5.052663e+002,4.238772e-002
5.071948e+002,4.206484e-002
5.091233e+002,4.213357e-002
5.110518e+002,4.235283e-002
5.129803e+002,4.252243e-002
5.149088e+002,4.265601e-002
5.168373e+002,4.280969e-002
5.187658e+002,4.263556e-002
5.206943e+002,4.350596e-002
5.226228e+002,4.375530e-002
5.245513e+002,4.380725e-002
5.264798e+002,4.362560e-002
5.284083e+002,4.374754e-002
5.303368e+002,4.409190e-002
5.322653e+002,4.421545e-002
5.341938e+002,4.409049e-002
5.361223e+002,4.404896e-002
5.380508e+002,4.373614e-002
5.399792e+002,4.381018e-002
5.419078e+002,4.396286e-002
5.438363e+002,4.441770e-002
5.457648e+002,4.472495e-002
5.476932e+002,4.516621e-002
5.496218e+002,4.523862e-002
5.515503e+002,4.597491e-002
5.534788e+002,4.662008e-002
5.554072e+002,4.701509e-002
5.573358e+002,4.756795e-002
5.592643e+002,4.856857e-002
5.611927e+002,4.908574e-002
5.631212e+002,4.849749e-002
5.650497e+002,4.751731e-002
5.669783e+002,4.722014e-002
5.689067e+002,4.653431e-002
5.708352e+002,4.588907e-002
5.727637e+002,4.565400e-002
5.746923e+002,4.549341e-002
5.766207e+002,4.474973e-002
5.785492e+002,4.411987e-002
5.804777e+002,4.331748e-002
5.824063e+002,4.294500e-002
5.843347e+002,4.244881e-002
5.862632e+002,4.215683e-002
5.881917e+002,4.205463e-002
5.901202e+002,4.172721e-002
5.920487e+002,4.161817e-002
5.939772e+002,4.188572e-002
5.959057e+002,4.196827e-002
5.978342e+002,4.226092e-002
5.997627e+002,4.277880e-002
6.016912e+002,4.337488e-002
6.036197e+002,4.321459e-002
6.055482e+002,4.263764e-002
6.074767e+002,4.193465e-002
6.094052e+002,4.121205e-002
6.113337e+002,4.024469e-002
6.132622e+002,3.936937e-002
6.151907e+002,3.847529e-002
6.171192e+002,3.765960e-002
6.190477e+002,3.695850e-002
6.209762e+002,3.664691e-002
6.229047e+002,3.605403e-002
6.248332e+002,3.516790e-002
6.267617e+002,3.443692e-002
6.286902e+002,3.424075e-002
6.306187e+002,3.390855e-002
6.325472e+002,3.352025e-002
6.344756e+002,3.329640e-002
6.364042e+002,3.288809e-002
6.383326e+002,3.229474e-002
6.402612e+002,3.213178e-002
6.421896e+002,3.195198e-002
6.441182e+002,3.175304e-002
6.460466e+002,3.146027e-002
6.479752e+002,3.134703e-002
6.499036e+002,3.114148e-002
6.518322e+002,3.094615e-002
6.537606e+002,3.079211e-002
6.556891e+002,3.056902e-002
6.576177e+002,3.043127e-002
6.595461e+002,3.038122e-002
6.614746e+002,3.029913e-002
6.634031e+002,3.026505e-002
6.653317e+002,3.011467e-002
6.672601e+002,3.001428e-002
6.691886e+002,2.996399e-002
6.711171e+002,2.980342e-002
6.730457e+002,2.943049e-002
6.749741e+002,2.895257e-002
6.769026e+002,2.860498e-002
6.788311e+002,2.844033e-002
6.807596e+002,2.818262e-002
6.826881e+002,2.788050e-002
6.846166e+002,2.752221e-002
6.865451e+002,2.727408e-002
6.884736e+002,2.720783e-002
6.904021e+002,2.717072e-002
6.923306e+002,2.694574e-002
6.942591e+002,2.687829e-002
6.961876e+002,2.686212e-002
6.981161e+002,2.694806e-002
7.000446e+002,2.681913e-002
7.019731e+002,2.662951e-002
7.039016e+002,2.635022e-002
7.058301e+002,2.614968e-002
7.077585e+002,2.587014e-002
7.096871e+002,2.554422e-002
7.116156e+002,2.542617e-002
7.135441e+002,2.556288e-002
7.154725e+002,2.531064e-002
7.174011e+002,2.504685e-002
7.193296e+002,2.488442e-002
7.212581e+002,2.469394e-002
7.231865e+002,2.443618e-002
7.251151e+002,2.434476e-002
7.270436e+002,2.422374e-002
7.289720e+002,2.396420e-002
7.309005e+002,2.372840e-002
7.328290e+002,2.366429e-002
7.347576e+002,2.348159e-002
7.366860e+002,2.336483e-002
7.386145e+002,2.322179e-002
7.405430e+002,2.309767e-002
7.424716e+002,2.279408e-002
7.444000e+002,2.263367e-002
7.463285e+002,2.253365e-002
7.482570e+002,2.249512e-002
7.501855e+002,2.241389e-002
7.521140e+002,2.233122e-002
7.540425e+002,2.215366e-002
7.559710e+002,2.199151e-002
7.578995e+002,2.179910e-002
7.598280e+002,2.176946e-002
7.617565e+002,2.167095e-002
7.636850e+002,2.148608e-002
7.656135e+002,2.140581e-002
7.675420e+002,2.128856e-002
7.694705e+002,2.112677e-002
7.713990e+002,2.097287e-002
7.733275e+002,2.093097e-002
7.752560e+002,2.109748e-002
7.771844e+002,2.095677e-002
7.791130e+002,2.087809e-002
7.810415e+002,2.081715e-002
7.829700e+002,2.065578e-002
7.848984e+002,2.039570e-002
7.868270e+002,2.037073e-002
7.887555e+002,2.041008e-002
7.906840e+002,2.022439e-002
7.926124e+002,2.000079e-002
7.945410e+002,2.003053e-002
7.964695e+002,2.010742e-002
7.983979e+002,1.996901e-002
8.003264e+002,1.984022e-002
8.022549e+002,1.980723e-002
8.041835e+002,1.978292e-002
8.061119e+002,1.983980e-002
8.080404e+002,1.975022e-002
8.099689e+002,1.967301e-002
8.118975e+002,1.965557e-002
8.138259e+002,1.958953e-002
8.157545e+002,1.949100e-002
8.176830e+002,1.942519e-002
8.196115e+002,1.940693e-002
8.215399e+002,1.932759e-002
8.234684e+002,1.926562e-002
8.253970e+002,1.933951e-002
8.273254e+002,1.927466e-002
8.292539e+002,1.929954e-002
8.311824e+002,1.922978e-002
8.331110e+002,1.916228e-002
8.350394e+002,1.913641e-002
8.369679e+002,1.903781e-002
8.388964e+002,1.884921e-002
8.408250e+002,1.879980e-002
8.427534e+002,1.890371e-002
8.446819e+002,1.881980e-002
8.466104e+002,1.879592e-002
8.485389e+002,1.890416e-002
8.504674e+002,1.887541e-002
8.523959e+002,1.886558e-002
8.543244e+002,1.890056e-002
8.562529e+002,1.894819e-002
8.581814e+002,1.897723e-002
8.601099e+002,1.895968e-002
8.620384e+002,1.891728e-002
8.639669e+002,1.900994e-002
8.658954e+002,1.906007e-002
8.678239e+002,1.913066e-002
8.697524e+002,1.909351e-002
8.716809e+002,1.907478e-002
8.736094e+002,1.907495e-002
8.755378e+002,1.913932e-002
8.774664e+002,1.917263e-002
8.793949e+002,1.922576e-002
8.813234e+002,1.923875e-002
8.832518e+002,1.935146e-002
8.851804e+002,1.948691e-002
8.871089e+002,1.960964e-002
8.890374e+002,1.981930e-002
8.909658e+002,2.009452e-002
8.928943e+002,2.021565e-002
8.948229e+002,2.042578e-002
8.967513e+002,2.055725e-002
8.986798e+002,2.058873e-002
9.006083e+002,2.052418e-002
9.025369e+002,2.047437e-002
9.044653e+002,2.035636e-002
9.063938e+002,2.023089e-002
9.083223e+002,2.010909e-002
9.102509e+002,2.009483e-002
9.121793e+002,2.015674e-002
9.141078e+002,2.025567e-002
9.160364e+002,2.024286e-002
9.179648e+002,2.029844e-002
9.198933e+002,2.040942e-002
9.218218e+002,2.054888e-002
9.237504e+002,2.057865e-002
9.256788e+002,2.076015e-002
9.276073e+002,2.092930e-002
9.295358e+002,2.108788e-002
9.314644e+002,2.115620e-002
9.333928e+002,2.136129e-002
9.353213e+002,2.163654e-002
9.372498e+002,2.197683e-002
9.391783e+002,2.232739e-002
9.411068e+002,2.268801e-002
9.430353e+002,2.302220e-002
9.449637e+002,2.338756e-002
9.468923e+002,2.376842e-002
9.488208e+002,2.417175e-002
9.507493e+002,2.457913e-002
9.526777e+002,2.507770e-002
9.546063e+002,2.546535e-002
9.565348e+002,2.588464e-002
9.584633e+002,2.634778e-002
9.603917e+002,2.692756e-002
9.623203e+002,2.743350e-002
9.642488e+002,2.792394e-002
9.661772e+002,2.832578e-002
9.681057e+002,2.878887e-002
9.700343e+002,2.923322e-002
9.719628e+002,2.974728e-002
9.738912e+002,3.042241e-002
9.758197e+002,3.127357e-002
9.777483e+002,3.209800e-002
9.796768e+002,3.292271e-002
9.816052e+002,3.379498e-002
9.835337e+002,3.468676e-002
9.854623e+002,3.558438e-002
9.873907e+002,3.641996e-002
9.893192e+002,3.716099e-002
9.912477e+002,3.785744e-002
9.931763e+002,3.838522e-002
9.951047e+002,3.883587e-002
9.970332e+002,3.936157e-002
9.989617e+002,3.993837e-002
1.000890e+003,4.048570e-002
1.002819e+003,4.110835e-002
1.004747e+003,4.174864e-002
1.006676e+003,4.240807e-002
1.008604e+003,4.311797e-002
1.010533e+003,4.380305e-002
1.012461e+003,4.450763e-002
1.014390e+003,4.529846e-002
1.016318e+003,4.612709e-002
1.018247e+003,4.698570e-002
1.020175e+003,4.793280e-002
1.022104e+003,4.881324e-002
1.024032e+003,4.967840e-002
1.025961e+003,5.060668e-002
1.027889e+003,5.146443e-002
1.029818e+003,5.220892e-002
1.031746e+003,5.281658e-002
1.033675e+003,5.316715e-002
1.035603e+003,5.320730e-002
1.037532e+003,5.292590e-002
1.039460e+003,5.245814e-002
1.041389e+003,5.185826e-002
1.043317e+003,5.123343e-002
1.045246e+003,5.075447e-002
1.047174e+003,5.030966e-002
1.049103e+003,4.984148e-002
1.051031e+003,4.939641e-002
1.052960e+003,4.903181e-002
1.054888e+003,4.858454e-002
1.056817e+003,4.798143e-002
1.058745e+003,4.731220e-002
1.060674e+003,4.662389e-002
1.062602e+003,4.577778e-002
1.064531e+003,4.490571e-002
1.066459e+003,4.403177e-002
1.068388e+003,4.314842e-002
1.070316e+003,4.234893e-002
1.072245e+003,4.162792e-002
1.074173e+003,4.083552e-002
1.076102e+003,4.000223e-002
1.078030e+003,3.918117e-002
1.079959e+003,3.836126e-002
1.081887e+003,3.751438e-002
1.083816e+003,3.682934e-002
1.085744e+003,3.621743e-002
1.087673e+003,3.568127e-002
1.089601e+003,3.521253e-002
1.091530e+003,3.482011e-002
1.093458e+003,3.438110e-002
1.095387e+003,3.400433e-002
1.097315e+003,3.359925e-002
1.099244e+003,3.321730e-002
1.101172e+003,3.297222e-002
1.103101e+003,3.271084e-002
1.105029e+003,3.228787e-002
1.106958e+003,3.183657e-002
1.108886e+003,3.124643e-002
1.110815e+003,3.064081e-002
1.112743e+003,2.989995e-002
1.114672e+003,2.905892e-002
1.116600e+003,2.822160e-002
1.118529e+003,2.748277e-002
1.120457e+003,2.682516e-002
1.122386e+003,2.616682e-002
1.124314e+003,2.545400e-002
1.126243e+003,2.472926e-002
1.128171e+003,2.401211e-002
1.130100e+003,2.335966e-002
1.132028e+003,2.273741e-002
1.133957e+003,2.217749e-002
1.135885e+003,2.163498e-002
1.137814e+003,2.119715e-002
1.139742e+003,2.091056e-002
1.141671e+003,2.079602e-002
1.143599e+003,2.073523e-002
1.145528e+003,2.074770e-002
1.147456e+003,2.076651e-002
1.149385e+003,2.074416e-002
1.151313e+003,2.074371e-002
1.153242e+003,2.086905e-002
1.155170e+003,2.091241e-002
1.157099e+003,2.087016e-002
1.159027e+003,2.081162e-002
1.160956e+003,2.071573e-002
1.162884e+003,2.040008e-002
1.164813e+003,1.994278e-002
1.166741e+003,1.929174e-002
1.168670e+003,1.857056e-002
1.170598e+003,1.786612e-002
1.172526e+003,1.714858e-002
1.174455e+003,1.645770e-002
1.176384e+003,1.586477e-002
1.178312e+003,1.538432e-002
1.180240e+003,1.493302e-002
1.182169e+003,1.455404e-002
1.184098e+003,1.431800e-002
1.186026e+003,1.413457e-002
1.187954e+003,1.398674e-002
1.189883e+003,1.389525e-002
1.191812e+003,1.394121e-002
1.193740e+003,1.402200e-002
1.195668e+003,1.417026e-002
1.197597e+003,1.433625e-002
1.199526e+003,1.450985e-002
1.201454e+003,1.469038e-002
1.203382e+003,1.481403e-002
1.205311e+003,1.489091e-002
1.207240e+003,1.492850e-002
1.209168e+003,1.502451e-002
1.211096e+003,1.508204e-002
1.213025e+003,1.518716e-002
1.214953e+003,1.531036e-002
1.216882e+003,1.539979e-002
1.218810e+003,1.554680e-002
1.220739e+003,1.568036e-002
1.222667e+003,1.581486e-002
1.224596e+003,1.597076e-002
1.226524e+003,1.613161e-002
1.228453e+003,1.629348e-002
1.230381e+003,1.649599e-002
1.232310e+003,1.662744e-002
1.234238e+003,1.671775e-002
1.236167e+003,1.675718e-002
1.238095e+003,1.678108e-002
1.240024e+003,1.680323e-002
1.241952e+003,1.682760e-002
1.243881e+003,1.684205e-002
1.245809e+003,1.685669e-002
1.247738e+003,1.679294e-002
1.249666e+003,1.673826e-002
1.251595e+003,1.670026e-002
1.253523e+003,1.666621e-002
1.255452e+003,1.656979e-002
1.257380e+003,1.646126e-002
1.259309e+003,1.637771e-002
1.261237e+003,1.626991e-002
1.263166e+003,1.606502e-002
1.265094e+003,1.585079e-002
1.267023e+003,1.565040e-002
1.268951e+003,1.545146e-002
1.270880e+003,1.527498e-002
1.272808e+003,1.512216e-002
1.274737e+003,1.493682e-002
1.276665e+003,1.481618e-002
1.278594e+003,1.472768e-002
1.280522e+003,1.462631e-002
1.282451e+003,1.448825e-002
1.284379e+003,1.433206e-002
1.286308e+003,1.419810e-002
1.288236e+003,1.407443e-002
1.290165e+003,1.400283e-002
1.292093e+003,1.396431e-002
1.294022e+003,1.390122e-002
1.295950e+003,1.393296e-002
1.297879e+003,1.400762e-002
1.299807e+003,1.405124e-002
1.301736e+003,1.409843e-002
1.303664e+003,1.420645e-002
1.305593e+003,1.435703e-002
1.307521e+003,1.448153e-002
1.309450e+003,1.463428e-002
1.311378e+003,1.478761e-002
1.313307e+003,1.491096e-002
1.315235e+003,1.495878e-002
1.317164e+003,1.497374e-002
1.319092e+003,1.497791e-002
1.321021e+003,1.491679e-002
1.322949e+003,1.483093e-002
1.324878e+003,1.476844e-002
1.326806e+003,1.470172e-002
1.328735e+003,1.462710e-002
1.330663e+003,1.465516e-002
1.332592e+003,1.464900e-002
1.334520e+003,1.461273e-002
1.336449e+003,1.455258e-002
1.338377e+003,1.447923e-002
1.340306e+003,1.439454e-002
1.342234e+003,1.433766e-002
1.344163e+003,1.427358e-002
1.346091e+003,1.424682e-002
1.348020e+003,1.427133e-002
1.349948e+003,1.433574e-002
1.351877e+003,1.435128e-002
1.353805e+003,1.440027e-002
1.355734e+003,1.448104e-002
1.357662e+003,1.458389e-002
1.359591e+003,1.467053e-002
1.361519e+003,1.477704e-002
1.363448e+003,1.488351e-002
1.365376e+003,1.498769e-002
1.367305e+003,1.511304e-002
1.369233e+003,1.515932e-002
1.371162e+003,1.520430e-002
1.373090e+003,1.518537e-002
1.375019e+003,1.514491e-002
1.376947e+003,1.507559e-002
1.378876e+003,1.498194e-002
1.380804e+003,1.486405e-002
1.382733e+003,1.465241e-002
1.384661e+003,1.447465e-002
1.386590e+003,1.435543e-002
1.388518e+003,1.423305e-002
1.390447e+003,1.410132e-002
1.392375e+003,1.403912e-002
1.394304e+003,1.398376e-002
1.396232e+003,1.396749e-002
1.398161e+003,1.395483e-002
1.400089e+003,1.398247e-002
1.402018e+003,1.401049e-002
1.403946e+003,1.402242e-002
1.405875e+003,1.405106e-002
1.407803e+003,1.408886e-002
1.409732e+003,1.413177e-002
1.411660e+003,1.419214e-002
1.413589e+003,1.427463e-002
1.415517e+003,1.433896e-002
1.417446e+003,1.438647e-002
1.419374e+003,1.443064e-002
1.421303e+003,1.438878e-002
1.423231e+003,1.438424e-002
1.425160e+003,1.436322e-002
1.427088e+003,1.433567e-002
1.429017e+003,1.424608e-002
1.430945e+003,1.417794e-002
1.432874e+003,1.413562e-002
1.434802e+003,1.401684e-002
1.436731e+003,1.389262e-002
1.438659e+003,1.383309e-002
1.440588e+003,1.381344e-002
1.442516e+003,1.376165e-002
1.444445e+003,1.371241e-002
1.446373e+003,1.376361e-002
1.448302e+003,1.380241e-002
1.450230e+003,1.378795e-002
1.452159e+003,1.376798e-002
1.454087e+003,1.371822e-002
1.456016e+003,1.360594e-002
1.457944e+003,1.353128e-002
1.459873e+003,1.342793e-002
1.461801e+003,1.331700e-002
1.463730e+003,1.322678e-002
1.465658e+003,1.312572e-002
1.467587e+003,1.290585e-002
1.469515e+003,1.262334e-002
1.471444e+003,1.233430e-002
1.473372e+003,1.208343e-002
1.475301e+003,1.190303e-002
1.477229e+003,1.180720e-002
1.479158e+003,1.172327e-002
1.481086e+003,1.163114e-002
1.483015e+003,1.159062e-002
1.484943e+003,1.160741e-002
1.486872e+003,1.163597e-002
1.488800e+003,1.167471e-002
1.490729e+003,1.172699e-002
1.492657e+003,1.180915e-002
1.494586e+003,1.193029e-002
1.496514e+003,1.214643e-002
1.498443e+003,1.236834e-002
1.500371e+003,1.257145e-002
1.502300e+003,1.278626e-002
1.504228e+003,1.295860e-002
1.506157e+003,1.308849e-002
1.508085e+003,1.320954e-002
1.510014e+003,1.335067e-002
1.511942e+003,1.340568e-002
1.513871e+003,1.341045e-002
1.515799e+003,1.341293e-002
1.517728e+003,1.340622e-002
1.519656e+003,1.335051e-002
1.521585e+003,1.326630e-002
1.523513e+003,1.319281e-002
1.525442e+003,1.321026e-002
1.527370e+003,1.325487e-002
1.529299e+003,1.327852e-002
1.531227e+003,1.333018e-002
1.533156e+003,1.340429e-002
1.535084e+003,1.342941e-002
1.537013e+003,1.347995e-002
1.538941e+003,1.352128e-002
1.540870e+003,1.351481e-002
1.542798e+003,1.349079e-002
1.544727e+003,1.347055e-002
1.546655e+003,1.344322e-002
1.548584e+003,1.338016e-002
1.550512e+003,1.332391e-002
1.552441e+003,1.330826e-002
1.554369e+003,1.326638e-002
1.556298e+003,1.314755e-002
1.558226e+003,1.307992e-002
1.560155e+003,1.305734e-002
1.562083e+003,1.302155e-002
1.564012e+003,1.296716e-002
1.565940e+003,1.295217e-002
1.567869e+003,1.299027e-002
1.569797e+003,1.300292e-002
1.571726e+003,1.301088e-002
1.573654e+003,1.307509e-002
1.575583e+003,1.315755e-002
1.577511e+003,1.323822e-002
1.579440e+003,1.333122e-002
1.581368e+003,1.343858e-002
1.583297e+003,1.355753e-002
1.585225e+003,1.374809e-002
1.587154e+003,1.389834e-002
1.589082e+003,1.407526e-002
1.591010e+003,1.419097e-002
1.592939e+003,1.427132e-002
1.594868e+003,1.442770e-002
1.596796e+003,1.459430e-002
1.598724e+003,1.469930e-002
1.600653e+003,1.474964e-002
1.602582e+003,1.481208e-002
1.604510e+003,1.491848e-002
1.606438e+003,1.501010e-002
1.608367e+003,1.508940e-002
1.610296e+003,1.513186e-002
1.612224e+003,1.528719e-002
1.614152e+003,1.543456e-002
1.616081e+003,1.559948e-002
1.618010e+003,1.580286e-002
1.619938e+003,1.602147e-002
1.621866e+003,1.625117e-002
1.623795e+003,1.646740e-002
1.625724e+003,1.664883e-002
1.627652e+003,1.678595e-002
1.629580e+003,1.683162e-002
1.631509e+003,1.686983e-002
1.633438e+003,1.685989e-002
1.635366e+003,1.688467e-002
1.637294e+003,1.686384e-002
1.639223e+003,1.675566e-002
1.641151e+003,1.665178e-002
1.643080e+003,1.665326e-002
1.645008e+003,1.666091e-002
1.646937e+003,1.662020e-002
1.648865e+003,1.649467e-002
1.650794e+003,1.636616e-002
1.652722e+003,1.622119e-002
1.654651e+003,1.610418e-002
1.656579e+003,1.594660e-002
1.658508e+003,1.571961e-002
1.660436e+003,1.550064e-002
1.662365e+003,1.530024e-002
1.664293e+003,1.501612e-002
1.666222e+003,1.470239e-002
1.668150e+003,1.444838e-002
1.670079e+003,1.414251e-002
1.672007e+003,1.382728e-002
1.673936e+003,1.354296e-002
1.675864e+003,1.329806e-002
1.677793e+003,1.303092e-002
1.679721e+003,1.277769e-002
1.681650e+003,1.246667e-002
1.683578e+003,1.222566e-002
1.685507e+003,1.201151e-002
1.687435e+003,1.175600e-002
1.689364e+003,1.146426e-002
1.691292e+003,1.131071e-002
1.693221e+003,1.113768e-002
1.695149e+003,1.091591e-002
1.697078e+003,1.074332e-002
1.699006e+003,1.054388e-002
1.700935e+003,1.035056e-002
1.702863e+003,1.017444e-002
1.704792e+003,1.002857e-002
1.706720e+003,9.937905e-003
1.708649e+003,9.901282e-003
1.710577e+003,9.888387e-003
1.712506e+003,9.851386e-003
1.714434e+003,9.904318e-003
1.716363e+003,9.930938e-003
1.718291e+003,9.908934e-003
1.720220e+003,9.936129e-003
1.722148e+003,9.971730e-003
1.724077e+003,9.931028e-003
1.726005e+003,9.888923e-003
1.727934e+003,9.827022e-003
1.729862e+003,9.824725e-003
1.731791e+003,9.776941e-003
1.733719e+003,9.657802e-003
1.735648e+003,9.547909e-003
1.737576e+003,9.478815e-003
1.739505e+003,9.418787e-003
1.741433e+003,9.269401e-003
1.743362e+003,9.169025e-003
1.745290e+003,9.098024e-003
1.747219e+003,8.961133e-003
1.749147e+003,8.828876e-003
1.751076e+003,8.702329e-003
1.753004e+003,8.559443e-003
1.754933e+003,8.461103e-003
1.756861e+003,8.348878e-003
1.758790e+003,8.245084e-003
1.760718e+003,8.178173e-003
1.762647e+003,8.154221e-003
1.764575e+003,8.141637e-003
1.766504e+003,8.073711e-003
1.768432e+003,8.045704e-003
1.770361e+003,8.007454e-003
1.772289e+003,7.975895e-003
1.774218e+003,7.943223e-003
1.776146e+003,8.006102e-003
1.778075e+003,7.996735e-003
1.780003e+003,8.015580e-003
1.781932e+003,8.029895e-003
1.783860e+003,7.998567e-003
1.785789e+003,7.957468e-003
1.787717e+003,7.961684e-003
1.789646e+003,8.012502e-003
1.791574e+003,8.008405e-003
1.793503e+003,7.950369e-003
1.795431e+003,8.020209e-003
1.797360e+003,7.995456e-003
1.799288e+003,7.944272e-003
1.801217e+003,7.954141e-003
1.803145e+003,7.940974e-003
1.805074e+003,7.969250e-003
1.807002e+003,8.052478e-003
1.808931e+003,8.017950e-003
1.810859e+003,7.984364e-003
1.812788e+003,8.022193e-003
1.814716e+003,8.062762e-003
1.816645e+003,8.056272e-003
1.818573e+003,8.070408e-003
1.820502e+003,8.049496e-003
1.822430e+003,8.027190e-003
1.824359e+003,7.953636e-003
1.826287e+003,7.951031e-003
1.828216e+003,8.005102e-003
1.830144e+003,8.058727e-003
1.832073e+003,8.070040e-003
1.834001e+003,8.125575e-003
1.835930e+003,8.095877e-003
1.837858e+003,8.057366e-003
1.839787e+003,8.090306e-003
1.841715e+003,8.140561e-003
1.843644e+003,8.228021e-003
1.845572e+003,8.277562e-003
1.847501e+003,8.308800e-003
1.849429e+003,8.346515e-003
1.851358e+003,8.376472e-003
1.853286e+003,8.388773e-003
1.855215e+003,8.303433e-003
1.857143e+003,8.356661e-003
1.859072e+003,8.535109e-003
1.861000e+003,8.626099e-003
1.862929e+003,8.610301e-003
1.864857e+003,8.609854e-003
1.866786e+003,8.720522e-003
1.868714e+003,8.748990e-003
1.870643e+003,8.732273e-003
1.872571e+003,8.628037e-003
1.874500e+003,8.665398e-003
1.876428e+003,8.765693e-003
1.878357e+003,8.831020e-003
1.880285e+003,8.783589e-003
1.882214e+003,8.840901e-003
1.884142e+003,8.876584e-003
1.886071e+003,8.876811e-003
1.887999e+003,9.001022e-003
1.889928e+003,8.992558e-003
1.891856e+003,8.891680e-003
1.893785e+003,8.974851e-003
1.895713e+003,8.958980e-003
1.897642e+003,8.937553e-003
1.899570e+003,9.052603e-003
1.901499e+003,9.143623e-003
1.903427e+003,9.219635e-003
1.905356e+003,9.103520e-003
1.907284e+003,9.008347e-003
1.909213e+003,9.020507e-003
1.911141e+003,8.919463e-003
1.913070e+003,9.090245e-003
1.914998e+003,9.068435e-003
1.916927e+003,8.944556e-003
1.918855e+003,8.915139e-003
1.920784e+003,9.078063e-003
1.922712e+003,9.062553e-003
1.924641e+003,9.203040e-003
1.926569e+003,9.419232e-003
1.928498e+003,9.345190e-003
1.930426e+003,9.237261e-003
1.932355e+003,9.192479e-003
1.934283e+003,9.249723e-003
1.936212e+003,9.482175e-003
1.938140e+003,9.343467e-003
1.940069e+003,9.207413e-003
1.941997e+003,9.333093e-003
1.943926e+003,9.516208e-003
1.945854e+003,9.690093e-003
1.947783e+003,9.614951e-003
1.949711e+003,9.548780e-003
1.951640e+003,9.623549e-003
1.953568e+003,9.992767e-003
1.955497e+003,1.048722e-002
1.957425e+003,1.053722e-002
1.959354e+003,1.077496e-002
1.961282e+003,1.109847e-002
1.963211e+003,1.105710e-002
1.965139e+003,1.137663e-002
1.967068e+003,1.134922e-002
1.968996e+003,1.058046e-002
1.970925e+003,1.119399e-002
1.972853e+003,1.152326e-002
1.974782e+003,1.143957e-002
1.976710e+003,1.150454e-002
1.978639e+003,1.200588e-002
1.980567e+003,1.158013e-002
1.982496e+003,1.149502e-002
1.984424e+003,1.119307e-002
1.986353e+003,1.124761e-002
1.988281e+003,1.130236e-002
1.990210e+003,1.030853e-002
1.992138e+003,1.016090e-002
1.994067e+003,1.058324e-002
1.995995e+003,1.062732e-002
1.997924e+003,9.849434e-003
1.999852e+003,9.412683e-003
2.001781e+003,1.024027e-002
2.003709e+003,1.092979e-002
2.005638e+003,1.142244e-002
2.007566e+003,1.082472e-002
2.009495e+003,1.052348e-002
2.011423e+003,1.095406e-002
2.013352e+003,1.061006e-002
2.015280e+003,1.052462e-002
2.017208e+003,1.063764e-002
2.019137e+003,1.085628e-002
2.021066e+003,1.171220e-002
2.022994e+003,1.141355e-002
2.024922e+003,9.910620e-003
2.026851e+003,9.988677e-003
2.028780e+003,9.803955e-003
2.030708e+003,9.917441e-003
2.032636e+003,1.008334e-002
2.034565e+003,1.033225e-002
2.036494e+003,1.036235e-002
2.038422e+003,1.080753e-002
2.040350e+003,1.084219e-002
2.042279e+003,9.797625e-003
2.044208e+003,9.760778e-003
2.046136e+003,1.033185e-002
2.048064e+003,1.047803e-002
2.049993e+003,1.023660e-002
2.051921e+003,9.878754e-003
2.053850e+003,9.830096e-003
2.055778e+003,9.907252e-003
2.057707e+003,9.682986e-003
2.059635e+003,9.440699e-003
2.061564e+003,9.420834e-003
2.063492e+003,9.288384e-003
2.065421e+003,9.337884e-003
2.067349e+003,9.497757e-003
2.069278e+003,9.374145e-003
2.071206e+003,8.971610e-003
2.073135e+003,8.784152e-003
2.075063e+003,9.143506e-003
2.076992e+003,9.303217e-003
2.078920e+003,9.103188e-003
2.080849e+003,8.730262e-003
2.082777e+003,9.076343e-003
2.084706e+003,9.192534e-003
2.086634e+003,9.127372e-003
2.088563e+003,9.374593e-003
2.090491e+003,9.630933e-003
2.092420e+003,9.584899e-003
2.094348e+003,9.861107e-003
2.096277e+003,9.950291e-003
2.098205e+003,9.281070e-003
2.100134e+003,8.830086e-003
2.102062e+003,9.138518e-003
2.103991e+003,9.233513e-003
2.105919e+003,9.133003e-003
2.107848e+003,9.099944e-003
2.109776e+003,8.948758e-003
2.111705e+003,9.026594e-003
2.113633e+003,9.144271e-003
2.115562e+003,8.812672e-003
2.117490e+003,8.742752e-003
2.119419e+003,8.982820e-003
2.121347e+003,9.007887e-003
2.123276e+003,9.049125e-003
2.125204e+003,9.033597e-003
2.127133e+003,8.851492e-003
2.129061e+003,9.154287e-003
2.130990e+003,9.663808e-003
2.132918e+003,9.325381e-003
2.134847e+003,9.261099e-003
2.136775e+003,9.616922e-003
2.138704e+003,9.699316e-003
2.140632e+003,1.047144e-002
2.142561e+003,1.091835e-002
2.144489e+003,1.071793e-002
2.146418e+003,1.043474e-002
2.148346e+003,1.040172e-002
2.150275e+003,1.041903e-002
2.152203e+003,1.047395e-002
2.154132e+003,1.141137e-002
2.156060e+003,1.276150e-002
2.157989e+003,1.366162e-002
2.159917e+003,1.381178e-002
2.161846e+003,1.309770e-002
2.163774e+003,1.156070e-002
2.165703e+003,1.213063e-002
2.167631e+003,1.273792e-002
2.169560e+003,1.231108e-002
2.171488e+003,1.134940e-002
2.173417e+003,1.122018e-002
2.175345e+003,1.180900e-002
2.177274e+003,1.220345e-002
2.179202e+003,1.224925e-002
2.181131e+003,1.218931e-002
2.183059e+003,1.252885e-002
2.184988e+003,1.253424e-002
2.186916e+003,1.149217e-002
2.188845e+003,1.238451e-002
2.190773e+003,1.278610e-002
2.192702e+003,1.187502e-002
2.194630e+003,1.137467e-002
2.196559e+003,1.176886e-002
2.198487e+003,1.212235e-002
2.200416e+003,1.219408e-002
2.202344e+003,1.189157e-002
2.204273e+003,1.154807e-002
2.206201e+003,1.142848e-002
2.208130e+003,1.152827e-002
2.210058e+003,1.148809e-002
2.211987e+003,1.132740e-002
2.213915e+003,1.126411e-002
2.215844e+003,1.072778e-002
2.217772e+003,1.037719e-002
2.219701e+003,1.053804e-002
2.221629e+003,1.088176e-002
2.223558e+003,1.093194e-002
2.225486e+003,1.046203e-002
2.227415e+003,1.054184e-002
2.229343e+003,1.070309e-002
2.231272e+003,1.042036e-002
2.233200e+003,1.060900e-002
2.235129e+003,1.075292e-002
2.237057e+003,1.038713e-002
2.238986e+003,1.019297e-002
2.240914e+003,1.016458e-002
2.242843e+003,1.002972e-002
2.244771e+003,9.867249e-003
2.246700e+003,1.015484e-002
2.248628e+003,1.008531e-002
2.250557e+003,9.900121e-003
2.252485e+003,9.836847e-003
2.254414e+003,1.013180e-002
2.256342e+003,1.046878e-002
2.258271e+003,1.039936e-002
2.260199e+003,1.010062e-002
2.262128e+003,1.005861e-002
2.264056e+003,9.985399e-003
2.265985e+003,1.014167e-002
2.267913e+003,1.015823e-002
2.269842e+003,1.007300e-002
2.271770e+003,9.778488e-003
2.273699e+003,9.605513e-003
2.275627e+003,9.425955e-003
2.277556e+003,9.330450e-003
2.279484e+003,9.531597e-003
2.281413e+003,9.591965e-003
2.283341e+003,9.355899e-003
2.285270e+003,9.213145e-003
2.287198e+003,9.203481e-003
2.289127e+003,9.203633e-003
2.291055e+003,9.308407e-003
2.292984e+003,9.277602e-003
2.294912e+003,9.201526e-003
2.296841e+003,9.264882e-003
2.298769e+003,9.236084e-003
2.300698e+003,9.128955e-003
2.302626e+003,9.143548e-003
2.304555e+003,9.231875e-003
2.306483e+003,8.960562e-003
2.308412e+003,8.897542e-003
2.310340e+003,9.067426e-003
2.312269e+003,9.084156e-003
2.314197e+003,8.981693e-003
2.316125e+003,8.929538e-003
2.318054e+003,8.814891e-003
2.319983e+003,8.708812e-003
2.321911e+003,8.756205e-003
2.323840e+003,8.542148e-003
2.325768e+003,8.224907e-003
2.327697e+003,8.114156e-003
2.329625e+003,8.006472e-003
2.331553e+003,7.960403e-003
2.333482e+003,7.934155e-003
2.335411e+003,7.926516e-003
2.337339e+003,7.859046e-003
2.339268e+003,8.096894e-003
2.341196e+003,8.159431e-003
2.343125e+003,8.162296e-003
2.345053e+003,8.297781e-003
2.346981e+003,8.522718e-003
2.348910e+003,8.643769e-003
2.350839e+003,8.797371e-003
2.352767e+003,8.934426e-003
2.354696e+003,8.982668e-003
2.356624e+003,9.327220e-003
2.358552e+003,9.409795e-003
2.360481e+003,9.364871e-003
2.362409e+003,9.152400e-003
2.364338e+003,9.259252e-003
2.366267e+003,9.794449e-003
2.368195e+003,9.573731e-003
2.370124e+003,9.398066e-003
2.372052e+003,9.430119e-003
2.373980e+003,9.295001e-003
2.375909e+003,9.157633e-003
2.377838e+003,9.120010e-003
2.379766e+003,9.198046e-003
2.381695e+003,9.272536e-003
2.383623e+003,9.340301e-003
2.385552e+003,9.337468e-003
2.387480e+003,9.310971e-003
2.389408e+003,9.263695e-003
2.391337e+003,9.169335e-003
2.393266e+003,9.076010e-003
2.395194e+003,8.945907e-003
2.397123e+003,8.976145e-003
2.399051e+003,9.000838e-003
2.400979e+003,8.947406e-003
2.402908e+003,8.959717e-003
2.404836e+003,8.842869e-003
2.406765e+003,8.708810e-003
2.408694e+003,8.749683e-003
2.410622e+003,8.566210e-003
2.412551e+003,8.470719e-003
2.414479e+003,8.632654e-003
2.416407e+003,8.678420e-003
2.418336e+003,8.489031e-003
2.420264e+003,8.394367e-003
2.422193e+003,8.501330e-003
2.424122e+003,8.522719e-003
2.426050e+003,8.499168e-003
2.427979e+003,8.430514e-003
2.429907e+003,8.325595e-003
2.431835e+003,8.411765e-003
2.433764e+003,8.509169e-003
2.435692e+003,8.532552e-003
2.437621e+003,8.390753e-003
2.439550e+003,8.372445e-003
2.441478e+003,8.470448e-003
2.443406e+003,8.588819e-003
2.445335e+003,8.634243e-003
2.447263e+003,8.637420e-003
2.449192e+003,8.602135e-003
2.451121e+003,8.605042e-003
2.453049e+003,8.638063e-003
2.454978e+003,8.717364e-003
2.456906e+003,8.793873e-003
2.458834e+003,8.726187e-003
2.460763e+003,8.657227e-003
2.462691e+003,8.504168e-003
2.464620e+003,8.471056e-003
2.466549e+003,8.459400e-003
2.468477e+003,8.486666e-003
2.470406e+003,8.568102e-003
2.472334e+003,8.575098e-003
2.474262e+003,8.577971e-003
2.476191e+003,8.522922e-003
2.478119e+003,8.365587e-003
2.480048e+003,8.358223e-003
2.481977e+003,8.413522e-003
2.483905e+003,8.365452e-003
2.485833e+003,8.412474e-003
2.487762e+003,8.336100e-003
2.489690e+003,8.163943e-003
2.491619e+003,8.308539e-003
2.493547e+003,8.409806e-003
2.495476e+003,8.505520e-003
2.497405e+003,8.601391e-003
2.499333e+003,8.548232e-003
2.501261e+003,8.509203e-003
2.503190e+003,8.491869e-003
2.505118e+003,8.398218e-003
2.507047e+003,8.280372e-003
2.508975e+003,8.311883e-003
2.510904e+003,8.301278e-003
2.512833e+003,8.400921e-003
2.514761e+003,8.386496e-003
2.516689e+003,8.273247e-003
2.518618e+003,8.291146e-003
2.520546e+003,8.293442e-003
2.522475e+003,8.275037e-003
2.524403e+003,8.197504e-003
2.526332e+003,7.990235e-003
2.528260e+003,8.049130e-003
2.530189e+003,8.182816e-003
2.532117e+003,8.247750e-003
2.534046e+003,8.036911e-003
2.535974e+003,8.013994e-003
2.537903e+003,8.083595e-003
2.539831e+003,8.130857e-003
2.541760e+003,8.178798e-003
2.543688e+003,8.142841e-003
2.545617e+003,8.124780e-003
2.547545e+003,8.073401e-003
2.549474e+003,8.047241e-003
2.551402e+003,8.058379e-003
2.553331e+003,7.877357e-003
2.555259e+003,7.769266e-003
2.557188e+003,7.820036e-003
2.559116e+003,7.794296e-003
2.561045e+003,7.823207e-003
2.562973e+003,7.937285e-003
2.564902e+003,7.944000e-003
2.566830e+003,7.950041e-003
2.568759e+003,7.886197e-003
2.570687e+003,7.872567e-003
2.572616e+003,8.028440e-003
2.574544e+003,8.038735e-003
2.576473e+003,7.984497e-003
2.578401e+003,8.004038e-003
2.580330e+003,8.058582e-003
2.582258e+003,8.105435e-003
2.584187e+003,8.073164e-003
2.586115e+003,7.929388e-003
2.588044e+003,7.865109e-003
2.589972e+003,7.894430e-003
2.591901e+003,8.071139e-003
2.593829e+003,8.139702e-003
2.595758e+003,8.091865e-003
2.597686e+003,8.117251e-003
2.599615e+003,8.172687e-003
2.601543e+003,8.186902e-003
2.603472e+003,8.165597e-003
2.605400e+003,8.147500e-003
2.607329e+003,8.156143e-003
2.609257e+003,8.188928e-003
2.611186e+003,8.233567e-003
2.613114e+003,8.229684e-003
2.615043e+003,8.216954e-003
2.616971e+003,8.250384e-003
2.618900e+003,8.242178e-003
2.620828e+003,8.335492e-003
2.622757e+003,8.422778e-003
2.624685e+003,8.434737e-003
2.626614e+003,8.497918e-003
2.628542e+003,8.601053e-003
2.630471e+003,8.606393e-003
2.632399e+003,8.578444e-003
2.634328e+003,8.562324e-003
2.636256e+003,8.646647e-003
2.638185e+003,8.733928e-003
2.640113e+003,8.774060e-003
2.642042e+003,8.831879e-003
2.643970e+003,8.784338e-003
2.645899e+003,8.748871e-003
2.647827e+003,8.745220e-003
2.649756e+003,8.830154e-003
2.651684e+003,8.878241e-003
2.653613e+003,8.898837e-003
2.655541e+003,8.930528e-003
2.657470e+003,8.932354e-003
2.659398e+003,8.904350e-003
2.661327e+003,8.885309e-003
2.663255e+003,8.949266e-003
2.665184e+003,8.971658e-003
2.667112e+003,8.927044e-003
2.669041e+003,8.934012e-003
2.670969e+003,8.952276e-003
2.672898e+003,8.947879e-003
2.674826e+003,8.929412e-003
2.676755e+003,8.910235e-003
2.678683e+003,8.889401e-003
2.680612e+003,8.898262e-003
2.682540e+003,8.906785e-003
2.684469e+003,8.876178e-003
2.686397e+003,8.849226e-003
2.688326e+003,8.806248e-003
2.690254e+003,8.844289e-003
2.692183e+003,8.894069e-003
2.694111e+003,8.870734e-003
2.696040e+003,8.865898e-003
2.697968e+003,8.859169e-003
2.699897e+003,8.876348e-003
2.701825e+003,8.903674e-003
2.703754e+003,8.902084e-003
2.705682e+003,8.905872e-003
2.707611e+003,8.923662e-003
2.709539e+003,8.930156e-003
2.711468e+003,8.988165e-003
2.713396e+003,8.966381e-003
2.715325e+003,8.971962e-003
2.717253e+003,8.996723e-003
2.719182e+003,8.999125e-003
2.721110e+003,9.010592e-003
2.723039e+003,9.061880e-003
2.724967e+003,9.066854e-003
2.726896e+003,9.058666e-003
2.728824e+003,9.097609e-003
2.730753e+003,9.116997e-003
2.732681e+003,9.104579e-003
2.734610e+003,9.088202e-003
2.736538e+003,9.085022e-003
2.738467e+003,9.106847e-003
2.740395e+003,9.108944e-003
2.742324e+003,9.073012e-003
2.744252e+003,9.102075e-003
2.746181e+003,9.139127e-003
2.748109e+003,9.142342e-003
2.750038e+003,9.157840e-003
2.751966e+003,9.201767e-003
2.753895e+003,9.145083e-003
2.755823e+003,9.119568e-003
2.757752e+003,9.141800e-003
2.759680e+003,9.162104e-003
2.761609e+003,9.154625e-003
2.763537e+003,9.158551e-003
2.765466e+003,9.189753e-003
2.767394e+003,9.245698e-003
2.769323e+003,9.278700e-003
2.771251e+003,9.289668e-003
2.773180e+003,9.301888e-003
2.775108e+003,9.299417e-003
2.777037e+003,9.280528e-003
2.778965e+003,9.270610e-003
2.780894e+003,9.333676e-003
2.782822e+003,9.333641e-003
2.784750e+003,9.301414e-003
2.786679e+003,9.362689e-003
2.788608e+003,9.400068e-003
2.790536e+003,9.404842e-003
2.792465e+003,9.433217e-003
2.794393e+003,9.421467e-003
2.796322e+003,9.456650e-003
2.798250e+003,9.500472e-003
2.800178e+003,9.509649e-003
2.802107e+003,9.503587e-003
2.804036e+003,9.497728e-003
2.805964e+003,9.490515e-003
2.807893e+003,9.507651e-003
2.809821e+003,9.500640e-003
2.811750e+003,9.529497e-003
2.813678e+003,9.566754e-003
2.815606e+003,9.672414e-003
2.817535e+003,9.721475e-003
2.819464e+003,9.685017e-003
2.821392e+003,9.637451e-003
2.823321e+003,9.674751e-003
2.825249e+003,9.761934e-003
2.827177e+003,9.734724e-003
2.829106e+003,9.756648e-003
2.831034e+003,9.767933e-003
2.832963e+003,9.773151e-003
2.834892e+003,9.795993e-003
2.836820e+003,9.829680e-003
2.838749e+003,9.880556e-003
2.840677e+003,9.877573e-003
2.842605e+003,9.913268e-003
2.844534e+003,1.001681e-002
2.846462e+003,1.011278e-002
2.848391e+003,1.017091e-002
2.850320e+003,1.020225e-002
2.852248e+003,1.020127e-002
2.854177e+003,1.021358e-002
2.856105e+003,1.025280e-002
2.858033e+003,1.029453e-002
2.859962e+003,1.031027e-002
2.861890e+003,1.034777e-002
2.863819e+003,1.038950e-002
2.865748e+003,1.048518e-002
2.867676e+003,1.053474e-002
2.869604e+003,1.054296e-002
2.871533e+003,1.057911e-002
2.873461e+003,1.057850e-002
2.875390e+003,1.060251e-002
2.877319e+003,1.062302e-002
2.879247e+003,1.063952e-002
2.881176e+003,1.061656e-002
2.883104e+003,1.058557e-002
2.885032e+003,1.063972e-002
2.886961e+003,1.065718e-002
2.888889e+003,1.065799e-002
2.890818e+003,1.066325e-002
2.892747e+003,1.067049e-002
2.894675e+003,1.066437e-002
2.896604e+003,1.072010e-002
2.898532e+003,1.069579e-002
2.900460e+003,1.066760e-002
2.902389e+003,1.065375e-002
2.904317e+003,1.065436e-002
2.906246e+003,1.070781e-002
2.908175e+003,1.070587e-002
2.910103e+003,1.072679e-002
2.912031e+003,1.078521e-002
2.913960e+003,1.076504e-002
2.915888e+003,1.074958e-002
2.917817e+003,1.077180e-002
2.919745e+003,1.083651e-002
2.921674e+003,1.082900e-002
2.923603e+003,1.079578e-002
2.925531e+003,1.081989e-002
2.927459e+003,1.079584e-002
2.929388e+003,1.074646e-002
2.931316e+003,1.064105e-002
2.933245e+003,1.061096e-002
2.935173e+003,1.060019e-002
2.937102e+003,1.058540e-002
2.939031e+003,1.056864e-002
2.940959e+003,1.053625e-002
2.942887e+003,1.050246e-002
2.944816e+003,1.041036e-002
2.946744e+003,1.034494e-002
2.948673e+003,1.029969e-002
2.950601e+003,1.029431e-002
2.952530e+003,1.034242e-002
2.954458e+003,1.032585e-002
2.956387e+003,1.021801e-002
2.958315e+003,1.017835e-002
2.960244e+003,1.015831e-002
2.962172e+003,1.010858e-002
2.964101e+003,1.006319e-002
2.966029e+003,1.003309e-002
2.967958e+003,9.947405e-003
2.969886e+003,9.941167e-003
2.971815e+003,9.950497e-003
2.973743e+003,9.915580e-003
2.975672e+003,9.895818e-003
2.977600e+003,9.908142e-003
2.979529e+003,9.875539e-003
2.981457e+003,9.869831e-003
2.983386e+003,9.835621e-003
2.985314e+003,9.788103e-003
2.987243e+003,9.737466e-003
2.989171e+003,9.727958e-003
2.991100e+003,9.703540e-003
2.993028e+003,9.696464e-003
2.994957e+003,9.705203e-003
2.996885e+003,9.713344e-003
2.998814e+003,9.744419e-003
3.000742e+003,9.743786e-003
3.002671e+003,9.701896e-003
3.004599e+003,9.644370e-003
3.006528e+003,9.673582e-003
3.008456e+003,9.734155e-003
3.010385e+003,9.714619e-003
3.012313e+003,9.716885e-003
3.014242e+003,9.691929e-003
3.016170e+003,9.729067e-003
3.018099e+003,9.749119e-003
3.020027e+003,9.757829e-003
3.021956e+003,9.787289e-003
3.023884e+003,9.837425e-003
3.025813e+003,9.825117e-003
3.027741e+003,9.807537e-003
3.029670e+003,9.841683e-003
3.031598e+003,9.849148e-003
3.033527e+003,9.867213e-003
3.035455e+003,9.921717e-003
3.037384e+003,9.970622e-003
3.039312e+003,1.000261e-002
3.041241e+003,9.941907e-003
3.043169e+003,9.909335e-003
3.045098e+003,9.989296e-003
3.047026e+003,9.974366e-003
3.048955e+003,9.996393e-003
3.050883e+003,1.006698e-002
3.052812e+003,1.007495e-002
3.054740e+003,1.009370e-002
3.056669e+003,1.010591e-002
3.058597e+003,1.010476e-002
3.060526e+003,1.012486e-002
3.062454e+003,1.020104e-002
3.064383e+003,1.020091e-002
3.066311e+003,1.028527e-002
3.068240e+003,1.038328e-002
3.070168e+003,1.035902e-002
3.072097e+003,1.030918e-002
3.074025e+003,1.031709e-002
3.075954e+003,1.036546e-002
3.077882e+003,1.035069e-002
3.079811e+003,1.043398e-002
3.081739e+003,1.053895e-002
3.083668e+003,1.054343e-002
3.085596e+003,1.055925e-002
3.087525e+003,1.054490e-002
3.089453e+003,1.049356e-002
3.091382e+003,1.052198e-002
3.093310e+003,1.057975e-002
3.095239e+003,1.059082e-002
3.097167e+003,1.058432e-002
3.099096e+003,1.067083e-002
3.101024e+003,1.069631e-002
3.102953e+003,1.069674e-002
3.104881e+003,1.074972e-002
3.106810e+003,1.072437e-002
3.108738e+003,1.075936e-002
3.110667e+003,1.077326e-002
3.112595e+003,1.078790e-002
3.114524e+003,1.077852e-002
3.116452e+003,1.078270e-002
3.118381e+003,1.083094e-002
3.120309e+003,1.089095e-002
3.122238e+003,1.085059e-002
3.124166e+003,1.090277e-002
3.126095e+003,1.098342e-002
3.128023e+003,1.102701e-002
3.129952e+003,1.108267e-002
3.131880e+003,1.112585e-002
3.133809e+003,1.106121e-002
3.135737e+003,1.108947e-002
3.137666e+003,1.112439e-002
3.139594e+003,1.120970e-002
3.141523e+003,1.134207e-002
3.143451e+003,1.142246e-002
3.145380e+003,1.143134e-002
3.147308e+003,1.139405e-002
3.149237e+003,1.138055e-002
3.151165e+003,1.137468e-002
3.153094e+003,1.137134e-002
3.155022e+003,1.140772e-002
3.156951e+003,1.148482e-002
3.158879e+003,1.156021e-002
3.160808e+003,1.150474e-002
3.162736e+003,1.153269e-002
3.164665e+003,1.169883e-002
3.166593e+003,1.174092e-002
3.168522e+003,1.176094e-002
3.170450e+003,1.177276e-002
3.172379e+003,1.177457e-002
3.174307e+003,1.186829e-002
3.176236e+003,1.189036e-002
3.178164e+003,1.193326e-002
3.180093e+003,1.195915e-002
3.182021e+003,1.201300e-002
3.183950e+003,1.200950e-002
3.185878e+003,1.207458e-002
3.187807e+003,1.207581e-002
3.189735e+003,1.208888e-002
3.191664e+003,1.219740e-002
3.193592e+003,1.217929e-002
3.195521e+003,1.216534e-002
3.197449e+003,1.218744e-002
3.199378e+003,1.229360e-002
3.201306e+003,1.241620e-002
3.203235e+003,1.240986e-002
3.205163e+003,1.242410e-002
3.207092e+003,1.249436e-002
3.209020e+003,1.259482e-002
3.210948e+003,1.271471e-002
3.212877e+003,1.271264e-002
3.214806e+003,1.269848e-002
3.216734e+003,1.262732e-002
3.218663e+003,1.263853e-002
3.220591e+003,1.284321e-002
3.222520e+003,1.288011e-002
3.224448e+003,1.282875e-002
3.226376e+003,1.288884e-002
3.228305e+003,1.297602e-002
3.230234e+003,1.301787e-002
3.232162e+003,1.311283e-002
3.234091e+003,1.316079e-002
3.236019e+003,1.322217e-002
3.237948e+003,1.324145e-002
3.239876e+003,1.323364e-002
3.241804e+003,1.322003e-002
3.243733e+003,1.328251e-002
3.245662e+003,1.336136e-002
3.247590e+003,1.338491e-002
3.249519e+003,1.343178e-002
3.251447e+003,1.356073e-002
3.253375e+003,1.364770e-002
3.255304e+003,1.361535e-002
3.257232e+003,1.365638e-002
3.259161e+003,1.362629e-002
3.261090e+003,1.361481e-002
3.263018e+003,1.370275e-002
3.264947e+003,1.373645e-002
3.266875e+003,1.381883e-002
3.268803e+003,1.390161e-002
3.270732e+003,1.395037e-002
3.272660e+003,1.401697e-002
3.274589e+003,1.410722e-002
3.276518e+003,1.415621e-002
3.278446e+003,1.414208e-002
3.280375e+003,1.415565e-002
3.282303e+003,1.421161e-002
3.284231e+003,1.422983e-002
3.286160e+003,1.420091e-002
3.288088e+003,1.416402e-002
3.290017e+003,1.415676e-002
3.291946e+003,1.410089e-002
3.293874e+003,1.413971e-002
3.295802e+003,1.421600e-002
3.297731e+003,1.415334e-002
3.299659e+003,1.413321e-002
3.301588e+003,1.411487e-002
3.303516e+003,1.410801e-002
3.305445e+003,1.418019e-002
3.307374e+003,1.427454e-002
3.309302e+003,1.427205e-002
3.311230e+003,1.419083e-002
3.313159e+003,1.424617e-002
3.315087e+003,1.432823e-002
3.317016e+003,1.422752e-002
3.318944e+003,1.410311e-002
3.320873e+003,1.413854e-002
3.322802e+003,1.423884e-002
3.324730e+003,1.430531e-002
3.326658e+003,1.429892e-002
3.328587e+003,1.426302e-002
3.330515e+003,1.424888e-002
3.332444e+003,1.428893e-002
3.334372e+003,1.429536e-002
3.336301e+003,1.429719e-002
3.338229e+003,1.429940e-002
3.340158e+003,1.437479e-002
3.342086e+003,1.435489e-002
3.344015e+003,1.424813e-002
3.345943e+003,1.426232e-002
3.347872e+003,1.435365e-002
3.349800e+003,1.427119e-002
3.351729e+003,1.417189e-002
3.353657e+003,1.414104e-002
3.355586e+003,1.412388e-002
3.357514e+003,1.409654e-002
3.359443e+003,1.408562e-002
3.361371e+003,1.403917e-002
3.363300e+003,1.401722e-002
3.365229e+003,1.398608e-002
3.367157e+003,1.397504e-002
3.369085e+003,1.397263e-002
3.371014e+003,1.393820e-002
3.372942e+003,1.395244e-002
3.374871e+003,1.391005e-002
3.376799e+003,1.386476e-002
3.378728e+003,1.376249e-002
3.380656e+003,1.374168e-002
3.382585e+003,1.372549e-002
3.384513e+003,1.366252e-002
3.386442e+003,1.367003e-002
3.388370e+003,1.362124e-002
3.390299e+003,1.359502e-002
3.392227e+003,1.358243e-002
3.394156e+003,1.354937e-002
3.396084e+003,1.350201e-002
3.398013e+003,1.350783e-002
3.399941e+003,1.349163e-002
3.401870e+003,1.335945e-002
3.403798e+003,1.341584e-002
3.405727e+003,1.336370e-002
3.407655e+003,1.326395e-002
3.409584e+003,1.324818e-002
3.411512e+003,1.319027e-002
3.413441e+003,1.315134e-002
3.415369e+003,1.315093e-002
3.417298e+003,1.307302e-002
3.419226e+003,1.295468e-002
3.421155e+003,1.286936e-002
3.423083e+003,1.285247e-002
3.425012e+003,1.282856e-002
3.426940e+003,1.274676e-002
3.428869e+003,1.270339e-002
3.430797e+003,1.264766e-002
3.432726e+003,1.261847e-002
3.434654e+003,1.265338e-002
3.436583e+003,1.263667e-002
3.438511e+003,1.246133e-002
3.440440e+003,1.234285e-002
3.442368e+003,1.231031e-002
3.444297e+003,1.227835e-002
3.446225e+003,1.229573e-002
3.448154e+003,1.224088e-002
3.450082e+003,1.207838e-002
3.452011e+003,1.201697e-002
3.453939e+003,1.201259e-002
3.455868e+003,1.194432e-002
3.457796e+003,1.189266e-002
3.459725e+003,1.188174e-002
3.461653e+003,1.176312e-002
3.463582e+003,1.165347e-002
3.465510e+003,1.157534e-002
3.467439e+003,1.154100e-002
3.469367e+003,1.157767e-002
3.471296e+003,1.150691e-002
3.473224e+003,1.148010e-002
3.475153e+003,1.143508e-002
3.477081e+003,1.132935e-002
3.479010e+003,1.121279e-002
3.480938e+003,1.114296e-002
3.482867e+003,1.115690e-002
3.484795e+003,1.111639e-002
3.486724e+003,1.099803e-002
3.488652e+003,1.096196e-002
3.490581e+003,1.089459e-002
3.492509e+003,1.085772e-002
3.494438e+003,1.079114e-002
3.496366e+003,1.071326e-002
3.498295e+003,1.064763e-002
3.500223e+003,1.061928e-002
3.502152e+003,1.055605e-002
3.504080e+003,1.051566e-002
3.506009e+003,1.049476e-002
3.507937e+003,1.041719e-002
3.509866e+003,1.036669e-002
3.511794e+003,1.032109e-002
3.513723e+003,1.020461e-002
3.515651e+003,1.015502e-002
3.517580e+003,1.011265e-002
3.519508e+003,1.003102e-002
3.521437e+003,1.001238e-002
3.523365e+003,9.939324e-003
3.525294e+003,9.943927e-003
3.527222e+003,9.878715e-003
3.529151e+003,9.778989e-003
3.531079e+003,9.693086e-003
3.533008e+003,9.724649e-003
3.534936e+003,9.738490e-003
3.536865e+003,9.707302e-003
3.538793e+003,9.630105e-003
3.540722e+003,9.515871e-003
3.542650e+003,9.428491e-003
3.544579e+003,9.428941e-003
3.546507e+003,9.416461e-003
3.548436e+003,9.286231e-003
3.550364e+003,9.217361e-003
3.552293e+003,9.161533e-003
3.554221e+003,9.025979e-003
3.556150e+003,9.068314e-003
3.558078e+003,9.054396e-003
3.560007e+003,8.946776e-003
3.561935e+003,8.823920e-003
3.563864e+003,8.826882e-003
3.565792e+003,8.785046e-003
3.567721e+003,8.750553e-003
3.569649e+003,8.735327e-003
3.571578e+003,8.701013e-003
3.573506e+003,8.634444e-003
3.575435e+003,8.512958e-003
3.577363e+003,8.495557e-003
3.579292e+003,8.544228e-003
3.581220e+003,8.512400e-003
3.583149e+003,8.373603e-003
3.585077e+003,8.350246e-003
3.587006e+003,8.468137e-003
3.588934e+003,8.402115e-003
3.590863e+003,8.211095e-003
3.592791e+003,8.021362e-003
3.594720e+003,8.078841e-003
3.596648e+003,8.122789e-003
3.598577e+003,7.983844e-003
3.600505e+003,7.886701e-003
3.602434e+003,7.933390e-003
3.604362e+003,7.915442e-003
3.606291e+003,7.830248e-003
3.608219e+003,7.748452e-003
3.610148e+003,7.756005e-003
3.612076e+003,7.703001e-003
3.614005e+003,7.668604e-003
3.615933e+003,7.593433e-003
3.617862e+003,7.631128e-003
3.619790e+003,7.673960e-003
3.621719e+003,7.706342e-003
3.623647e+003,7.628796e-003
3.625576e+003,7.534463e-003
3.627504e+003,7.543892e-003
3.629433e+003,7.477272e-003
3.631361e+003,7.344310e-003
3.633290e+003,7.430653e-003
3.635218e+003,7.443633e-003
3.637146e+003,7.374393e-003
3.639075e+003,7.317823e-003
3.641004e+003,7.376690e-003
3.642932e+003,7.242137e-003
3.644861e+003,7.097094e-003
3.646789e+003,7.129841e-003
3.648718e+003,7.117923e-003
3.650646e+003,7.038524e-003
3.652574e+003,7.070201e-003
3.654503e+003,7.119179e-003
3.656432e+003,7.125698e-003
3.658360e+003,7.021157e-003
3.660289e+003,6.962054e-003
3.662217e+003,6.952937e-003
3.664146e+003,6.926335e-003
3.666074e+003,6.834101e-003
3.668002e+003,6.786366e-003
3.669931e+003,6.879824e-003
3.671860e+003,6.890576e-003
3.673788e+003,6.805755e-003
3.675717e+003,6.781418e-003
3.677645e+003,6.870989e-003
3.679573e+003,6.925882e-003
3.681502e+003,6.793295e-003
3.683430e+003,6.749372e-003
3.685359e+003,6.797450e-003
3.687288e+003,6.812661e-003
3.689216e+003,6.866177e-003
3.691145e+003,6.842368e-003
3.693073e+003,6.859177e-003
3.695001e+003,6.879996e-003
3.696930e+003,6.847574e-003
3.698858e+003,6.773995e-003
3.700787e+003,6.820005e-003
3.702716e+003,6.730049e-003
3.704644e+003,6.726405e-003
3.706573e+003,6.687348e-003
3.708501e+003,6.702006e-003
3.710429e+003,6.681047e-003
3.712358e+003,6.651842e-003
3.714286e+003,6.572008e-003
3.716215e+003,6.630205e-003
3.718144e+003,6.812567e-003
3.720072e+003,6.913905e-003
3.722000e+003,6.850150e-003
3.723929e+003,6.827326e-003
3.725857e+003,6.934507e-003
3.727786e+003,6.886256e-003
3.729714e+003,6.870900e-003
3.731643e+003,6.866972e-003
3.733572e+003,6.824913e-003
3.735500e+003,6.745752e-003
3.737428e+003,6.817476e-003
3.739357e+003,6.907515e-003
3.741285e+003,6.845845e-003
3.743214e+003,6.800363e-003
3.745142e+003,6.719527e-003
3.747071e+003,6.733031e-003
3.749000e+003,6.676966e-003
3.750928e+003,6.643204e-003
3.752856e+003,6.677843e-003
3.754785e+003,6.822249e-003
3.756713e+003,6.849496e-003
3.758642e+003,6.786938e-003
3.760570e+003,6.766903e-003
3.762499e+003,6.798547e-003
3.764427e+003,6.781203e-003
3.766356e+003,6.726532e-003
3.768284e+003,6.691454e-003
3.770213e+003,6.692664e-003
3.772141e+003,6.706593e-003
3.774070e+003,6.692730e-003
3.775998e+003,6.687149e-003
3.777927e+003,6.660728e-003
3.779855e+003,6.662285e-003
3.781784e+003,6.663186e-003
3.783712e+003,6.602264e-003
3.785641e+003,6.534909e-003
3.787569e+003,6.508115e-003
3.789498e+003,6.606306e-003
3.791426e+003,6.608890e-003
3.793355e+003,6.611378e-003
3.795283e+003,6.609541e-003
3.797212e+003,6.687278e-003
3.799140e+003,6.731978e-003
3.801069e+003,6.618594e-003
3.802997e+003,6.504459e-003
3.804926e+003,6.585188e-003
3.806854e+003,6.691562e-003
3.808783e+003,6.655263e-003
3.810711e+003,6.636390e-003
3.812640e+003,6.610306e-003
3.814568e+003,6.612714e-003
3.816497e+003,6.639878e-003
3.818425e+003,6.672579e-003
3.820354e+003,6.625789e-003
3.822282e+003,6.691949e-003
3.824211e+003,6.707055e-003
3.826139e+003,6.611523e-003
3.828068e+003,6.602619e-003
3.829996e+003,6.709087e-003
3.831925e+003,6.708444e-003
3.833853e+003,6.686701e-003
3.835782e+003,6.639557e-003
3.837710e+003,6.724206e-003
3.839639e+003,6.687141e-003
3.841567e+003,6.634808e-003
3.843496e+003,6.623725e-003
3.845424e+003,6.695233e-003
3.847353e+003,6.655790e-003
3.849281e+003,6.597458e-003
3.851210e+003,6.671466e-003
3.853138e+003,6.705906e-003
3.855067e+003,6.630428e-003
3.856995e+003,6.674286e-003
3.858924e+003,6.700754e-003
3.860852e+003,6.677052e-003
3.862781e+003,6.675081e-003
3.864709e+003,6.741542e-003
3.866638e+003,6.712364e-003
3.868566e+003,6.597561e-003
3.870495e+003,6.723030e-003
3.872423e+003,6.869745e-003
3.874352e+003,6.766048e-003
3.876280e+003,6.758616e-003
3.878209e+003,6.776981e-003
3.880137e+003,6.804266e-003
3.882066e+003,6.755001e-003
3.883994e+003,6.792639e-003
3.885923e+003,6.819837e-003
3.887851e+003,6.752016e-003
3.889780e+003,6.813750e-003
3.891708e+003,6.884035e-003
3.893637e+003,6.899076e-003
3.895565e+003,6.810141e-003
3.897494e+003,6.760668e-003
3.899422e+003,6.788709e-003
3.901351e+003,6.763284e-003
3.903279e+003,6.802631e-003
3.905208e+003,6.833842e-003
3.907136e+003,6.791232e-003
3.909065e+003,6.787121e-003
3.910993e+003,6.824689e-003
3.912922e+003,6.854549e-003
3.914850e+003,6.845161e-003
3.916779e+003,6.744073e-003
3.918707e+003,6.752633e-003
3.920636e+003,6.743556e-003
3.922564e+003,6.788159e-003
3.924493e+003,6.864123e-003
3.926421e+003,6.802971e-003
3.928350e+003,6.709372e-003
3.930278e+003,6.749906e-003
3.932207e+003,6.823380e-003
3.934135e+003,6.848576e-003
3.936064e+003,6.875380e-003
3.937992e+003,6.904985e-003
3.939921e+003,6.859353e-003
3.941849e+003,6.884434e-003
3.943778e+003,6.895600e-003
3.945706e+003,6.920164e-003
3.947635e+003,6.908755e-003
3.949563e+003,6.881681e-003
3.951492e+003,6.796087e-003
3.953420e+003,6.787634e-003
3.955349e+003,6.808485e-003
3.957277e+003,6.801303e-003
3.959206e+003,6.768627e-003
3.961134e+003,6.782794e-003
3.963063e+003,6.838271e-003
3.964991e+003,6.800101e-003
3.966920e+003,6.784081e-003
3.968848e+003,6.796036e-003
3.970777e+003,6.756442e-003
3.972705e+003,6.730416e-003
3.974634e+003,6.847089e-003
3.976562e+003,6.907448e-003
3.978491e+003,6.950109e-003
3.980419e+003,6.854015e-003
3.982348e+003,6.774219e-003
3.984276e+003,6.770974e-003
3.986205e+003,6.743166e-003
3.988133e+003,6.745045e-003
3.990062e+003,6.781003e-003
3.991990e+003,6.763073e-003
3.993919e+003,6.836013e-003
3.995847e+003,6.852880e-003
3.997776e+003,6.852212e-003
3.999704e+003,6.852249e-003
4.001633e+003,0.000000e+000
