3.991989e+002,1.762986e-002
4.011274e+002,2.084583e-002
4.030559e+002,2.084583e-002
4.049844e+002,2.196330e-002
4.069129e+002,2.106294e-002
4.088414e+002,2.032632e-002
4.107699e+002,1.981863e-002
4.126984e+002,2.084300e-002
4.146269e+002,2.133339e-002
4.165554e+002,2.128648e-002
4.184839e+002,2.268615e-002
4.204124e+002,2.322700e-002
4.223409e+002,2.244315e-002
4.242694e+002,2.233389e-002
4.261979e+002,2.304347e-002
4.281264e+002,2.350722e-002
4.300549e+002,2.293037e-002
4.319834e+002,2.306849e-002
4.339119e+002,2.319978e-002
4.358404e+002,2.324621e-002
4.377689e+002,2.299995e-002
4.396974e+002,2.286787e-002
4.416259e+002,2.321845e-002
4.435544e+002,2.312772e-002
4.454829e+002,2.275241e-002
4.474114e+002,2.275277e-002
4.493399e+002,2.294364e-002
4.512684e+002,2.285338e-002
4.531969e+002,2.247543e-002
4.551254e+002,2.309668e-002
4.570539e+002,2.346140e-002
4.589824e+002,2.305050e-002
4.609109e+002,2.334538e-002
4.628394e+002,2.331152e-002
4.647679e+002,2.261989e-002
4.666964e+002,2.225613e-002
4.686249e+002,2.268383e-002
4.705533e+002,2.285969e-002
4.724819e+002,2.294569e-002
4.744103e+002,2.273486e-002
4.763389e+002,2.255949e-002
4.782673e+002,2.311188e-002
4.801959e+002,2.274091e-002
4.821243e+002,2.263439e-002
4.840529e+002,2.286223e-002
4.859813e+002,2.331872e-002
4.879099e+002,2.319501e-002
4.898383e+002,2.267863e-002
4.917668e+002,2.271152e-002
4.936953e+002,2.316285e-002
4.956238e+002,2.329362e-002
4.975523e+002,2.268912e-002
4.994808e+002,2.291758e-002
5.014093e+002,2.281462e-002
5.033378e+002,2.269239e-002
5.052663e+002,2.276533e-002
5.071948e+002,2.277973e-002
5.091233e+002,2.313907e-002
5.110518e+002,2.279339e-002
5.129803e+002,2.289510e-002
5.149088e+002,2.323318e-002
5.168373e+002,2.322617e-002
5.187658e+002,2.378583e-002
5.206943e+002,2.387968e-002
5.226228e+002,2.390803e-002
5.245513e+002,2.435146e-002
5.264798e+002,2.434540e-002
5.284083e+002,2.452971e-002
5.303368e+002,2.473821e-002
5.322653e+002,2.464962e-002
5.341938e+002,2.444008e-002
5.361223e+002,2.409510e-002
5.380508e+002,2.401980e-002
5.399792e+002,2.423793e-002
5.419078e+002,2.401905e-002
5.438363e+002,2.415587e-002
5.457648e+002,2.461869e-002
5.476932e+002,2.429431e-002
5.496218e+002,2.438358e-002
5.515503e+002,2.433255e-002
5.534788e+002,2.455200e-002
5.554072e+002,2.513987e-002
5.573358e+002,2.523996e-002
5.592643e+002,2.545886e-002
5.611927e+002,2.510509e-002
5.631212e+002,2.454137e-002
5.650497e+002,2.446283e-002
5.669783e+002,2.421787e-002
5.689067e+002,2.409757e-002
5.708352e+002,2.390825e-002
5.727637e+002,2.384400e-002
5.746923e+002,2.386284e-002
5.766207e+002,2.385734e-002
5.785492e+002,2.362614e-002
5.804777e+002,2.360316e-002
5.824063e+002,2.333697e-002
5.843347e+002,2.304363e-002
5.862632e+002,2.293881e-002
5.881917e+002,2.296500e-002
5.901202e+002,2.300366e-002
5.920487e+002,2.276407e-002
5.939772e+002,2.281898e-002
5.959057e+002,2.281961e-002
5.978342e+002,2.278034e-002
5.997627e+002,2.270041e-002
6.016912e+002,2.256803e-002
6.036197e+002,2.241832e-002
6.055482e+002,2.231522e-002
6.074767e+002,2.210880e-002
6.094052e+002,2.208960e-002
6.113337e+002,2.206498e-002
6.132622e+002,2.195761e-002
6.151907e+002,2.161237e-002
6.171192e+002,2.122591e-002
6.190477e+002,2.115080e-002
6.209762e+002,2.105551e-002
6.229047e+002,2.086291e-002
6.248332e+002,2.065850e-002
6.267617e+002,2.027011e-002
6.286902e+002,1.997152e-002
6.306187e+002,1.985320e-002
6.325472e+002,1.956136e-002
6.344756e+002,1.940926e-002
6.364042e+002,1.925016e-002
6.383326e+002,1.906090e-002
6.402612e+002,1.887760e-002
6.421896e+002,1.876318e-002
6.441182e+002,1.861944e-002
6.460466e+002,1.841406e-002
6.479752e+002,1.815057e-002
6.499036e+002,1.814188e-002
6.518322e+002,1.809055e-002
6.537606e+002,1.793578e-002
6.556891e+002,1.786423e-002
6.576177e+002,1.788271e-002
6.595461e+002,1.787935e-002
6.614746e+002,1.800339e-002
6.634031e+002,1.792799e-002
6.653317e+002,1.766219e-002
6.672601e+002,1.751294e-002
6.691886e+002,1.749591e-002
6.711171e+002,1.722320e-002
6.730457e+002,1.707474e-002
6.749741e+002,1.705556e-002
6.769026e+002,1.685048e-002
6.788311e+002,1.656431e-002
6.807596e+002,1.639335e-002
6.826881e+002,1.618436e-002
6.846166e+002,1.604152e-002
6.865451e+002,1.600075e-002
6.884736e+002,1.597116e-002
6.904021e+002,1.587173e-002
6.923306e+002,1.576188e-002
6.942591e+002,1.577841e-002
6.961876e+002,1.579732e-002
6.981161e+002,1.586246e-002
7.000446e+002,1.570622e-002
7.019731e+002,1.563398e-002
7.039016e+002,1.562575e-002
7.058301e+002,1.560631e-002
7.077585e+002,1.544615e-002
7.096871e+002,1.539137e-002
7.116156e+002,1.542552e-002
7.135441e+002,1.525577e-002
7.154725e+002,1.506706e-002
7.174011e+002,1.495716e-002
7.193296e+002,1.478549e-002
7.212581e+002,1.473465e-002
7.231865e+002,1.476369e-002
7.251151e+002,1.462131e-002
7.270436e+002,1.445377e-002
7.289720e+002,1.430401e-002
7.309005e+002,1.425533e-002
7.328290e+002,1.423666e-002
7.347576e+002,1.420651e-002
7.366860e+002,1.413143e-002
7.386145e+002,1.398881e-002
7.405430e+002,1.396319e-002
7.424716e+002,1.392778e-002
7.444000e+002,1.394905e-002
7.463285e+002,1.383858e-002
7.482570e+002,1.379822e-002
7.501855e+002,1.372031e-002
7.521140e+002,1.353733e-002
7.540425e+002,1.348402e-002
7.559710e+002,1.345825e-002
7.578995e+002,1.339576e-002
7.598280e+002,1.329765e-002
7.617565e+002,1.317351e-002
7.636850e+002,1.319387e-002
7.656135e+002,1.321115e-002
7.675420e+002,1.308243e-002
7.694705e+002,1.299919e-002
7.713990e+002,1.298437e-002
7.733275e+002,1.299878e-002
7.752560e+002,1.298499e-002
7.771844e+002,1.299345e-002
7.791130e+002,1.297314e-002
7.810415e+002,1.304934e-002
7.829700e+002,1.290623e-002
7.848984e+002,1.267712e-002
7.868270e+002,1.266013e-002
7.887555e+002,1.266228e-002
7.906840e+002,1.258447e-002
7.926124e+002,1.245938e-002
7.945410e+002,1.241956e-002
7.964695e+002,1.246709e-002
7.983979e+002,1.246129e-002
8.003264e+002,1.250825e-002
8.022549e+002,1.245420e-002
8.041835e+002,1.243432e-002
8.061119e+002,1.247578e-002
8.080404e+002,1.252377e-002
8.099689e+002,1.237019e-002
8.118975e+002,1.214852e-002
8.138259e+002,1.224598e-002
8.157545e+002,1.237282e-002
8.176830e+002,1.238055e-002
8.196115e+002,1.227161e-002
8.215399e+002,1.228289e-002
8.234684e+002,1.223681e-002
8.253970e+002,1.221987e-002
8.273254e+002,1.222621e-002
8.292539e+002,1.227498e-002
8.311824e+002,1.235846e-002
8.331110e+002,1.225651e-002
8.350394e+002,1.217666e-002
8.369679e+002,1.215182e-002
8.388964e+002,1.214855e-002
8.408250e+002,1.220454e-002
8.427534e+002,1.215482e-002
8.446819e+002,1.210896e-002
8.466104e+002,1.218143e-002
8.485389e+002,1.223909e-002
8.504674e+002,1.216371e-002
8.523959e+002,1.213059e-002
8.543244e+002,1.223085e-002
8.562529e+002,1.221718e-002
8.581814e+002,1.215506e-002
8.601099e+002,1.226336e-002
8.620384e+002,1.226745e-002
8.639669e+002,1.229506e-002
8.658954e+002,1.238437e-002
8.678239e+002,1.241158e-002
8.697524e+002,1.256534e-002
8.716809e+002,1.270588e-002
8.736094e+002,1.262288e-002
8.755378e+002,1.255709e-002
8.774664e+002,1.257939e-002
8.793949e+002,1.253645e-002
8.813234e+002,1.257990e-002
8.832518e+002,1.274741e-002
8.851804e+002,1.283917e-002
8.871089e+002,1.294849e-002
8.890374e+002,1.301175e-002
8.909658e+002,1.313905e-002
8.928943e+002,1.332245e-002
8.948229e+002,1.340514e-002
8.967513e+002,1.346987e-002
8.986798e+002,1.350384e-002
9.006083e+002,1.348064e-002
9.025369e+002,1.344861e-002
9.044653e+002,1.335344e-002
9.063938e+002,1.333198e-002
9.083223e+002,1.325587e-002
9.102509e+002,1.322635e-002
9.121793e+002,1.324610e-002
9.141078e+002,1.329225e-002
9.160364e+002,1.331603e-002
9.179648e+002,1.341799e-002
9.198933e+002,1.349099e-002
9.218218e+002,1.348826e-002
9.237504e+002,1.351136e-002
9.256788e+002,1.362127e-002
9.276073e+002,1.371729e-002
9.295358e+002,1.377659e-002
9.314644e+002,1.394777e-002
9.333928e+002,1.402243e-002
9.353213e+002,1.410146e-002
9.372498e+002,1.433769e-002
9.391783e+002,1.453743e-002
9.411068e+002,1.468498e-002
9.430353e+002,1.481154e-002
9.449637e+002,1.502710e-002
9.468923e+002,1.524143e-002
9.488208e+002,1.544089e-002
9.507493e+002,1.561218e-002
9.526777e+002,1.582195e-002
9.546063e+002,1.607370e-002
9.565348e+002,1.622433e-002
9.584633e+002,1.648237e-002
9.603917e+002,1.681044e-002
9.623203e+002,1.705932e-002
9.642488e+002,1.735593e-002
9.661772e+002,1.764704e-002
9.681057e+002,1.787040e-002
9.700343e+002,1.823781e-002
9.719628e+002,1.856220e-002
9.738912e+002,1.886530e-002
9.758197e+002,1.923798e-002
9.777483e+002,1.961407e-002
9.796768e+002,2.006800e-002
9.816052e+002,2.056649e-002
9.835337e+002,2.111449e-002
9.854623e+002,2.159043e-002
9.873907e+002,2.197254e-002
9.893192e+002,2.235631e-002
9.912477e+002,2.266731e-002
9.931763e+002,2.291999e-002
9.951047e+002,2.302671e-002
9.970332e+002,2.317784e-002
9.989617e+002,2.337920e-002
1.000890e+003,2.361547e-002
1.002819e+003,2.387836e-002
1.004747e+003,2.412929e-002
1.006676e+003,2.436877e-002
1.008604e+003,2.467732e-002
1.010533e+003,2.503249e-002
1.012461e+003,2.530495e-002
1.014390e+003,2.559857e-002
1.016318e+003,2.591517e-002
1.018247e+003,2.624496e-002
1.020175e+003,2.662149e-002
1.022104e+003,2.698154e-002
1.024032e+003,2.733557e-002
1.025961e+003,2.772400e-002
1.027889e+003,2.816722e-002
1.029818e+003,2.857041e-002
1.031746e+003,2.891281e-002
1.033675e+003,2.921713e-002
1.035603e+003,2.931623e-002
1.037532e+003,2.922283e-002
1.039460e+003,2.899002e-002
1.041389e+003,2.869166e-002
1.043317e+003,2.845181e-002
1.045246e+003,2.827740e-002
1.047174e+003,2.809638e-002
1.049103e+003,2.797091e-002
1.051031e+003,2.791631e-002
1.052960e+003,2.783081e-002
1.054888e+003,2.763024e-002
1.056817e+003,2.741084e-002
1.058745e+003,2.722820e-002
1.060674e+003,2.697540e-002
1.062602e+003,2.658457e-002
1.064531e+003,2.610401e-002
1.066459e+003,2.566995e-002
1.068388e+003,2.528760e-002
1.070316e+003,2.485889e-002
1.072245e+003,2.445832e-002
1.074173e+003,2.410085e-002
1.076102e+003,2.367698e-002
1.078030e+003,2.326771e-002
1.079959e+003,2.286274e-002
1.081887e+003,2.241293e-002
1.083816e+003,2.201402e-002
1.085744e+003,2.171216e-002
1.087673e+003,2.142593e-002
1.089601e+003,2.125769e-002
1.091530e+003,2.100542e-002
1.093458e+003,2.073192e-002
1.095387e+003,2.046054e-002
1.097315e+003,2.024425e-002
1.099244e+003,2.012731e-002
1.101172e+003,2.008865e-002
1.103101e+003,1.999590e-002
1.105029e+003,1.985714e-002
1.106958e+003,1.960354e-002
1.108886e+003,1.927594e-002
1.110815e+003,1.893337e-002
1.112743e+003,1.856552e-002
1.114672e+003,1.813474e-002
1.116600e+003,1.768573e-002
1.118529e+003,1.734234e-002
1.120457e+003,1.705498e-002
1.122386e+003,1.674291e-002
1.124314e+003,1.641963e-002
1.126243e+003,1.607731e-002
1.128171e+003,1.571108e-002
1.130100e+003,1.531841e-002
1.132028e+003,1.497500e-002
1.133957e+003,1.469098e-002
1.135885e+003,1.448497e-002
1.137814e+003,1.426160e-002
1.139742e+003,1.407445e-002
1.141671e+003,1.402106e-002
1.143599e+003,1.405505e-002
1.145528e+003,1.406466e-002
1.147456e+003,1.412631e-002
1.149385e+003,1.414921e-002
1.151313e+003,1.420429e-002
1.153242e+003,1.426355e-002
1.155170e+003,1.433413e-002
1.157099e+003,1.439882e-002
1.159027e+003,1.440448e-002
1.160956e+003,1.433399e-002
1.162884e+003,1.416269e-002
1.164813e+003,1.386966e-002
1.166741e+003,1.355115e-002
1.168670e+003,1.316091e-002
1.170598e+003,1.274430e-002
1.172526e+003,1.232952e-002
1.174455e+003,1.189314e-002
1.176384e+003,1.153535e-002
1.178312e+003,1.121525e-002
1.180240e+003,1.096436e-002
1.182169e+003,1.069399e-002
1.184098e+003,1.051261e-002
1.186026e+003,1.039021e-002
1.187954e+003,1.032326e-002
1.189883e+003,1.028466e-002
1.191812e+003,1.032596e-002
1.193740e+003,1.038783e-002
1.195668e+003,1.047436e-002
1.197597e+003,1.052374e-002
1.199526e+003,1.062751e-002
1.201454e+003,1.079036e-002
1.203382e+003,1.086538e-002
1.205311e+003,1.089579e-002
1.207240e+003,1.088196e-002
1.209168e+003,1.086067e-002
1.211096e+003,1.085467e-002
1.213025e+003,1.098344e-002
1.214953e+003,1.107237e-002
1.216882e+003,1.112566e-002
1.218810e+003,1.117906e-002
1.220739e+003,1.122784e-002
1.222667e+003,1.133921e-002
1.224596e+003,1.148065e-002
1.226524e+003,1.155038e-002
1.228453e+003,1.161486e-002
1.230381e+003,1.171355e-002
1.232310e+003,1.179681e-002
1.234238e+003,1.183641e-002
1.236167e+003,1.183190e-002
1.238095e+003,1.181052e-002
1.240024e+003,1.188569e-002
1.241952e+003,1.190533e-002
1.243881e+003,1.183682e-002
1.245809e+003,1.176895e-002
1.247738e+003,1.175043e-002
1.249666e+003,1.168723e-002
1.251595e+003,1.164605e-002
1.253523e+003,1.162041e-002
1.255452e+003,1.155708e-002
1.257380e+003,1.147965e-002
1.259309e+003,1.142945e-002
1.261237e+003,1.136342e-002
1.263166e+003,1.125229e-002
1.265094e+003,1.116169e-002
1.267023e+003,1.109950e-002
1.268951e+003,1.099857e-002
1.270880e+003,1.091275e-002
1.272808e+003,1.081854e-002
1.274737e+003,1.073195e-002
1.276665e+003,1.070778e-002
1.278594e+003,1.065060e-002
1.280522e+003,1.057244e-002
1.282451e+003,1.054448e-002
1.284379e+003,1.049086e-002
1.286308e+003,1.038900e-002
1.288236e+003,1.034150e-002
1.290165e+003,1.033504e-002
1.292093e+003,1.027584e-002
1.294022e+003,1.028358e-002
1.295950e+003,1.033533e-002
1.297879e+003,1.037196e-002
1.299807e+003,1.041300e-002
1.301736e+003,1.046196e-002
1.303664e+003,1.051134e-002
1.305593e+003,1.057889e-002
1.307521e+003,1.064455e-002
1.309450e+003,1.073670e-002
1.311378e+003,1.083600e-002
1.313307e+003,1.093753e-002
1.315235e+003,1.098516e-002
1.317164e+003,1.096791e-002
1.319092e+003,1.094772e-002
1.321021e+003,1.089276e-002
1.322949e+003,1.081945e-002
1.324878e+003,1.077590e-002
1.326806e+003,1.077442e-002
1.328735e+003,1.073033e-002
1.330663e+003,1.068072e-002
1.332592e+003,1.070859e-002
1.334520e+003,1.070167e-002
1.336449e+003,1.066205e-002
1.338377e+003,1.066636e-002
1.340306e+003,1.064378e-002
1.342234e+003,1.062067e-002
1.344163e+003,1.060398e-002
1.346091e+003,1.053611e-002
1.348020e+003,1.053971e-002
1.349948e+003,1.057628e-002
1.351877e+003,1.063015e-002
1.353805e+003,1.071323e-002
1.355734e+003,1.078591e-002
1.357662e+003,1.081751e-002
1.359591e+003,1.086262e-002
1.361519e+003,1.090676e-002
1.363448e+003,1.094714e-002
1.365376e+003,1.102267e-002
1.367305e+003,1.109677e-002
1.369233e+003,1.111496e-002
1.371162e+003,1.108771e-002
1.373090e+003,1.105397e-002
1.375019e+003,1.102788e-002
1.376947e+003,1.098235e-002
1.378876e+003,1.091183e-002
1.380804e+003,1.082157e-002
1.382733e+003,1.074833e-002
1.384661e+003,1.067915e-002
1.386590e+003,1.056877e-002
1.388518e+003,1.048728e-002
1.390447e+003,1.044135e-002
1.392375e+003,1.041313e-002
1.394304e+003,1.038526e-002
1.396232e+003,1.035127e-002
1.398161e+003,1.035939e-002
1.400089e+003,1.037595e-002
1.402018e+003,1.037988e-002
1.403946e+003,1.036757e-002
1.405875e+003,1.036758e-002
1.407803e+003,1.038583e-002
1.409732e+003,1.039989e-002
1.411660e+003,1.041486e-002
1.413589e+003,1.045743e-002
1.415517e+003,1.049851e-002
1.417446e+003,1.051497e-002
1.419374e+003,1.053116e-002
1.421303e+003,1.053232e-002
1.423231e+003,1.053355e-002
1.425160e+003,1.050679e-002
1.427088e+003,1.047080e-002
1.429017e+003,1.043010e-002
1.430945e+003,1.042867e-002
1.432874e+003,1.038085e-002
1.434802e+003,1.032223e-002
1.436731e+003,1.027604e-002
1.438659e+003,1.020776e-002
1.440588e+003,1.015387e-002
1.442516e+003,1.012557e-002
1.444445e+003,1.012282e-002
1.446373e+003,1.007903e-002
1.448302e+003,1.007335e-002
1.450230e+003,1.008215e-002
1.452159e+003,1.008905e-002
1.454087e+003,1.004379e-002
1.456016e+003,9.989331e-003
1.457944e+003,9.925305e-003
1.459873e+003,9.854406e-003
1.461801e+003,9.791618e-003
1.463730e+003,9.726153e-003
1.465658e+003,9.655746e-003
1.467587e+003,9.529416e-003
1.469515e+003,9.410177e-003
1.471444e+003,9.285051e-003
1.473372e+003,9.139217e-003
1.475301e+003,9.021693e-003
1.477229e+003,8.941559e-003
1.479158e+003,8.872771e-003
1.481086e+003,8.835310e-003
1.483015e+003,8.846086e-003
1.484943e+003,8.853050e-003
1.486872e+003,8.883051e-003
1.488800e+003,8.941762e-003
1.490729e+003,9.009984e-003
1.492657e+003,9.095193e-003
1.494586e+003,9.154781e-003
1.496514e+003,9.225311e-003
1.498443e+003,9.334149e-003
1.500371e+003,9.465011e-003
1.502300e+003,9.575922e-003
1.504228e+003,9.669783e-003
1.506157e+003,9.752683e-003
1.508085e+003,9.820753e-003
1.510014e+003,9.912439e-003
1.511942e+003,9.947974e-003
1.513871e+003,9.942081e-003
1.515799e+003,9.917549e-003
1.517728e+003,9.868742e-003
1.519656e+003,9.812632e-003
1.521585e+003,9.729392e-003
1.523513e+003,9.706818e-003
1.525442e+003,9.721964e-003
1.527370e+003,9.695129e-003
1.529299e+003,9.680997e-003
1.531227e+003,9.703681e-003
1.533156e+003,9.757582e-003
1.535084e+003,9.738479e-003
1.537013e+003,9.701315e-003
1.538941e+003,9.705480e-003
1.540870e+003,9.685879e-003
1.542798e+003,9.643971e-003
1.544727e+003,9.603042e-003
1.546655e+003,9.567884e-003
1.548584e+003,9.532911e-003
1.550512e+003,9.523376e-003
1.552441e+003,9.476419e-003
1.554369e+003,9.405740e-003
1.556298e+003,9.382044e-003
1.558226e+003,9.330071e-003
1.560155e+003,9.331198e-003
1.562083e+003,9.346071e-003
1.564012e+003,9.288589e-003
1.565940e+003,9.246341e-003
1.567869e+003,9.257195e-003
1.569797e+003,9.300892e-003
1.571726e+003,9.380805e-003
1.573654e+003,9.405932e-003
1.575583e+003,9.418479e-003
1.577511e+003,9.455012e-003
1.579440e+003,9.501179e-003
1.581368e+003,9.529604e-003
1.583297e+003,9.588922e-003
1.585225e+003,9.672424e-003
1.587154e+003,9.779315e-003
1.589082e+003,9.872206e-003
1.591010e+003,9.953541e-003
1.592939e+003,1.000370e-002
1.594868e+003,1.003134e-002
1.596796e+003,1.008390e-002
1.598724e+003,1.014838e-002
1.600653e+003,1.024248e-002
1.602582e+003,1.032941e-002
1.604510e+003,1.032350e-002
1.606438e+003,1.034913e-002
1.608367e+003,1.037630e-002
1.610296e+003,1.041341e-002
1.612224e+003,1.050103e-002
1.614152e+003,1.060122e-002
1.616081e+003,1.067040e-002
1.618010e+003,1.073598e-002
1.619938e+003,1.088564e-002
1.621866e+003,1.100498e-002
1.623795e+003,1.109083e-002
1.625724e+003,1.114012e-002
1.627652e+003,1.116116e-002
1.629580e+003,1.122676e-002
1.631509e+003,1.123133e-002
1.633438e+003,1.116258e-002
1.635366e+003,1.109814e-002
1.637294e+003,1.109966e-002
1.639223e+003,1.102894e-002
1.641151e+003,1.096321e-002
1.643080e+003,1.093885e-002
1.645008e+003,1.092268e-002
1.646937e+003,1.085336e-002
1.648865e+003,1.080246e-002
1.650794e+003,1.075220e-002
1.652722e+003,1.070733e-002
1.654651e+003,1.064903e-002
1.656579e+003,1.058776e-002
1.658508e+003,1.044557e-002
1.660436e+003,1.033556e-002
1.662365e+003,1.024280e-002
1.664293e+003,1.012359e-002
1.666222e+003,9.961179e-003
1.668150e+003,9.781574e-003
1.670079e+003,9.631556e-003
1.672007e+003,9.475362e-003
1.673936e+003,9.362653e-003
1.675864e+003,9.253484e-003
1.677793e+003,9.087808e-003
1.679721e+003,8.941595e-003
1.681650e+003,8.799312e-003
1.683578e+003,8.695994e-003
1.685507e+003,8.576069e-003
1.687435e+003,8.430543e-003
1.689364e+003,8.290174e-003
1.691292e+003,8.215222e-003
1.693221e+003,8.137763e-003
1.695149e+003,8.068067e-003
1.697078e+003,8.010420e-003
1.699006e+003,7.897289e-003
1.700935e+003,7.766457e-003
1.702863e+003,7.667320e-003
1.704792e+003,7.601549e-003
1.706720e+003,7.531766e-003
1.708649e+003,7.474520e-003
1.710577e+003,7.471754e-003
1.712506e+003,7.462115e-003
1.714434e+003,7.439573e-003
1.716363e+003,7.463784e-003
1.718291e+003,7.450336e-003
1.720220e+003,7.413434e-003
1.722148e+003,7.391431e-003
1.724077e+003,7.428968e-003
1.726005e+003,7.414007e-003
1.727934e+003,7.377130e-003
1.729862e+003,7.384866e-003
1.731791e+003,7.354320e-003
1.733719e+003,7.280424e-003
1.735648e+003,7.222744e-003
1.737576e+003,7.173317e-003
1.739505e+003,7.145979e-003
1.741433e+003,7.088306e-003
1.743362e+003,7.037876e-003
1.745290e+003,6.900986e-003
1.747219e+003,6.792546e-003
1.749147e+003,6.748638e-003
1.751076e+003,6.691045e-003
1.753004e+003,6.643119e-003
1.754933e+003,6.653087e-003
1.756861e+003,6.615486e-003
1.758790e+003,6.536001e-003
1.760718e+003,6.496881e-003
1.762647e+003,6.458664e-003
1.764575e+003,6.464328e-003
1.766504e+003,6.452244e-003
1.768432e+003,6.399476e-003
1.770361e+003,6.350806e-003
1.772289e+003,6.333350e-003
1.774218e+003,6.292843e-003
1.776146e+003,6.271388e-003
1.778075e+003,6.263806e-003
1.780003e+003,6.305902e-003
1.781932e+003,6.298424e-003
1.783860e+003,6.328898e-003
1.785789e+003,6.367297e-003
1.787717e+003,6.371845e-003
1.789646e+003,6.368733e-003
1.791574e+003,6.402617e-003
1.793503e+003,6.357264e-003
1.795431e+003,6.340032e-003
1.797360e+003,6.340637e-003
1.799288e+003,6.305112e-003
1.801217e+003,6.272579e-003
1.803145e+003,6.279396e-003
1.805074e+003,6.267313e-003
1.807002e+003,6.250581e-003
1.808931e+003,6.273346e-003
1.810859e+003,6.296444e-003
1.812788e+003,6.289744e-003
1.814716e+003,6.325110e-003
1.816645e+003,6.316876e-003
1.818573e+003,6.267713e-003
1.820502e+003,6.318596e-003
1.822430e+003,6.366991e-003
1.824359e+003,6.347942e-003
1.826287e+003,6.282218e-003
1.828216e+003,6.318162e-003
1.830144e+003,6.262357e-003
1.832073e+003,6.187632e-003
1.834001e+003,6.195547e-003
1.835930e+003,6.222069e-003
1.837858e+003,6.332107e-003
1.839787e+003,6.355508e-003
1.841715e+003,6.268241e-003
1.843644e+003,6.186601e-003
1.845572e+003,6.177656e-003
1.847501e+003,6.143118e-003
1.849429e+003,6.132456e-003
1.851358e+003,6.165376e-003
1.853286e+003,6.239627e-003
1.855215e+003,6.171559e-003
1.857143e+003,6.135235e-003
1.859072e+003,6.229454e-003
1.861000e+003,6.178441e-003
1.862929e+003,6.143086e-003
1.864857e+003,6.188966e-003
1.866786e+003,6.173751e-003
1.868714e+003,6.204635e-003
1.870643e+003,6.137657e-003
1.872571e+003,6.159432e-003
1.874500e+003,5.986000e-003
1.876428e+003,5.885077e-003
1.878357e+003,6.014925e-003
1.880285e+003,6.218979e-003
1.882214e+003,6.255632e-003
1.884142e+003,6.233144e-003
1.886071e+003,6.093675e-003
1.887999e+003,5.870860e-003
1.889928e+003,5.945147e-003
1.891856e+003,5.971461e-003
1.893785e+003,5.890670e-003
1.895713e+003,5.792248e-003
1.897642e+003,5.800717e-003
1.899570e+003,5.953929e-003
1.901499e+003,6.031887e-003
1.903427e+003,5.912570e-003
1.905356e+003,5.751323e-003
1.907284e+003,5.731849e-003
1.909213e+003,5.818710e-003
1.911141e+003,5.715830e-003
1.913070e+003,5.536687e-003
1.914998e+003,5.536830e-003
1.916927e+003,5.623411e-003
1.918855e+003,5.791164e-003
1.920784e+003,5.738712e-003
1.922712e+003,5.330872e-003
1.924641e+003,5.084970e-003
1.926569e+003,5.193981e-003
1.928498e+003,5.344217e-003
1.930426e+003,5.341760e-003
1.932355e+003,5.040819e-003
1.934283e+003,5.254640e-003
1.936212e+003,5.120623e-003
1.938140e+003,4.668941e-003
1.940069e+003,4.305603e-003
1.941997e+003,4.647486e-003
1.943926e+003,4.698952e-003
1.945854e+003,4.091953e-003
1.947783e+003,4.254200e-003
1.949711e+003,4.244389e-003
1.951640e+003,4.087198e-003
1.953568e+003,4.354220e-003
1.955497e+003,4.626935e-003
1.957425e+003,4.055177e-003
1.959354e+003,4.000882e-003
1.961282e+003,3.962557e-003
1.963211e+003,3.011908e-003
1.965139e+003,2.539761e-003
1.967068e+003,2.869328e-003
1.968996e+003,2.636074e-003
1.970925e+003,2.661842e-003
1.972853e+003,2.335370e-003
1.974782e+003,2.104910e-003
1.976710e+003,1.878504e-003
1.978639e+003,1.617751e-003
1.980567e+003,2.141579e-003
1.982496e+003,3.031863e-003
1.984424e+003,2.585253e-003
1.986353e+003,2.339611e-003
1.988281e+003,2.647857e-003
1.990210e+003,2.510125e-003
1.992138e+003,1.842965e-003
1.994067e+003,2.322755e-003
1.995995e+003,2.903199e-003
1.997924e+003,2.974599e-003
1.999852e+003,2.783551e-003
2.001781e+003,2.739173e-003
2.003709e+003,1.548810e-003
2.005638e+003,1.029668e-003
2.007566e+003,1.209668e-003
2.009495e+003,8.597771e-004
2.011423e+003,9.017570e-004
2.013352e+003,1.415440e-003
2.015280e+003,1.286853e-003
2.017208e+003,9.793846e-005
2.019137e+003,-4.281499e-004
2.021066e+003,-5.429445e-004
2.022994e+003,5.677762e-004
2.024922e+003,1.691908e-003
2.026851e+003,5.889272e-004
2.028780e+003,-1.227551e-006
2.030708e+003,5.087022e-005
2.032636e+003,7.194228e-004
2.034565e+003,2.576194e-004
2.036494e+003,5.345323e-005
2.038422e+003,1.565698e-004
2.040350e+003,3.983470e-004
2.042279e+003,7.762657e-004
2.044208e+003,1.471976e-003
2.046136e+003,1.827270e-003
2.048064e+003,2.225250e-003
2.049993e+003,3.199494e-003
2.051921e+003,3.700515e-003
2.053850e+003,3.110672e-003
2.055778e+003,3.192123e-003
2.057707e+003,3.020829e-003
2.059635e+003,2.654722e-003
2.061564e+003,3.661124e-003
2.063492e+003,3.949450e-003
2.065421e+003,3.934210e-003
2.067349e+003,3.931100e-003
2.069278e+003,3.999503e-003
2.071206e+003,4.002011e-003
2.073135e+003,4.330303e-003
2.075063e+003,4.574097e-003
2.076992e+003,4.275415e-003
2.078920e+003,4.439399e-003
2.080849e+003,4.409289e-003
2.082777e+003,4.501930e-003
2.084706e+003,4.444821e-003
2.086634e+003,4.423112e-003
2.088563e+003,5.002635e-003
2.090491e+003,5.409721e-003
2.092420e+003,5.218650e-003
2.094348e+003,4.751989e-003
2.096277e+003,4.584632e-003
2.098205e+003,4.557929e-003
2.100134e+003,4.408082e-003
2.102062e+003,4.667334e-003
2.103991e+003,4.601661e-003
2.105919e+003,4.833219e-003
2.107848e+003,5.148949e-003
2.109776e+003,5.397069e-003
2.111705e+003,5.219165e-003
2.113633e+003,5.324208e-003
2.115562e+003,5.356343e-003
2.117490e+003,5.418440e-003
2.119419e+003,5.084477e-003
2.121347e+003,4.862570e-003
2.123276e+003,4.897117e-003
2.125204e+003,5.182245e-003
2.127133e+003,5.220104e-003
2.129061e+003,5.000809e-003
2.130990e+003,4.584684e-003
2.132918e+003,4.231486e-003
2.134847e+003,3.810315e-003
2.136775e+003,3.704033e-003
2.138704e+003,4.043725e-003
2.140632e+003,3.700123e-003
2.142561e+003,3.085742e-003
2.144489e+003,2.941640e-003
2.146418e+003,2.867122e-003
2.148346e+003,2.804888e-003
2.150275e+003,2.125540e-003
2.152203e+003,2.257914e-003
2.154132e+003,2.597276e-003
2.156060e+003,3.092717e-003
2.157989e+003,2.884499e-003
2.159917e+003,1.460794e-004
2.161846e+003,-2.324725e-004
2.163774e+003,7.340087e-004
2.165703e+003,9.464109e-004
2.167631e+003,1.134864e-003
2.169560e+003,1.477638e-003
2.171488e+003,2.033717e-003
2.173417e+003,2.131000e-003
2.175345e+003,1.782121e-003
2.177274e+003,1.366109e-003
2.179202e+003,1.722239e-003
2.181131e+003,2.310908e-003
2.183059e+003,2.125340e-003
2.184988e+003,2.375902e-003
2.186916e+003,2.513785e-003
2.188845e+003,2.178951e-003
2.190773e+003,2.882398e-003
2.192702e+003,3.321066e-003
2.194630e+003,3.353855e-003
2.196559e+003,3.346876e-003
2.198487e+003,3.045800e-003
2.200416e+003,3.396665e-003
2.202344e+003,3.790494e-003
2.204273e+003,3.744103e-003
2.206201e+003,3.356593e-003
2.208130e+003,3.516934e-003
2.210058e+003,3.481628e-003
2.211987e+003,3.368447e-003
2.213915e+003,3.348713e-003
2.215844e+003,3.044198e-003
2.217772e+003,3.864636e-003
2.219701e+003,4.190200e-003
2.221629e+003,4.470278e-003
2.223558e+003,4.557695e-003
2.225486e+003,4.446209e-003
2.227415e+003,4.386527e-003
2.229343e+003,4.238479e-003
2.231272e+003,4.299638e-003
2.233200e+003,4.348777e-003
2.235129e+003,4.620883e-003
2.237057e+003,5.072930e-003
2.238986e+003,5.036392e-003
2.240914e+003,4.952678e-003
2.242843e+003,4.674421e-003
2.244771e+003,4.465173e-003
2.246700e+003,4.593658e-003
2.248628e+003,4.994278e-003
2.250557e+003,5.119460e-003
2.252485e+003,5.074244e-003
2.254414e+003,5.018894e-003
2.256342e+003,5.183534e-003
2.258271e+003,5.222065e-003
2.260199e+003,5.110446e-003
2.262128e+003,4.959681e-003
2.264056e+003,5.107959e-003
2.265985e+003,5.208066e-003
2.267913e+003,5.290955e-003
2.269842e+003,5.171205e-003
2.271770e+003,5.345846e-003
2.273699e+003,5.348470e-003
2.275627e+003,5.309724e-003
2.277556e+003,5.564135e-003
2.279484e+003,6.081007e-003
2.281413e+003,6.022468e-003
2.283341e+003,6.088541e-003
2.285270e+003,6.222130e-003
2.287198e+003,6.115209e-003
2.289127e+003,6.016588e-003
2.291055e+003,6.126774e-003
2.292984e+003,6.326385e-003
2.294912e+003,6.279100e-003
2.296841e+003,6.171470e-003
2.298769e+003,6.247553e-003
2.300698e+003,6.338895e-003
2.302626e+003,6.258303e-003
2.304555e+003,6.096225e-003
2.306483e+003,6.059657e-003
2.308412e+003,6.249891e-003
2.310340e+003,6.246575e-003
2.312269e+003,6.329853e-003
2.314197e+003,6.380399e-003
2.316125e+003,6.337253e-003
2.318054e+003,6.227476e-003
2.319983e+003,6.078828e-003
2.321911e+003,6.174930e-003
2.323840e+003,6.244843e-003
2.325768e+003,6.036753e-003
2.327697e+003,5.843190e-003
2.329625e+003,5.697486e-003
2.331553e+003,5.703254e-003
2.333482e+003,5.730051e-003
2.335411e+003,5.845337e-003
2.337339e+003,5.980900e-003
2.339268e+003,6.057565e-003
2.341196e+003,5.920993e-003
2.343125e+003,5.962958e-003
2.345053e+003,6.035075e-003
2.346981e+003,5.964764e-003
2.348910e+003,6.139399e-003
2.350839e+003,6.141471e-003
2.352767e+003,5.983810e-003
2.354696e+003,6.311228e-003
2.356624e+003,6.671269e-003
2.358552e+003,6.577474e-003
2.360481e+003,6.472139e-003
2.362409e+003,6.329918e-003
2.364338e+003,6.501288e-003
2.366267e+003,6.649073e-003
2.368195e+003,6.656146e-003
2.370124e+003,6.750217e-003
2.372052e+003,6.884585e-003
2.373980e+003,7.022036e-003
2.375909e+003,6.766471e-003
2.377838e+003,6.600188e-003
2.379766e+003,6.716819e-003
2.381695e+003,6.624490e-003
2.383623e+003,6.662089e-003
2.385552e+003,6.688028e-003
2.387480e+003,6.622344e-003
2.389408e+003,6.696381e-003
2.391337e+003,6.610904e-003
2.393266e+003,6.613296e-003
2.395194e+003,6.711651e-003
2.397123e+003,6.704102e-003
2.399051e+003,6.618119e-003
2.400979e+003,6.683035e-003
2.402908e+003,6.722438e-003
2.404836e+003,6.714732e-003
2.406765e+003,6.687274e-003
2.408694e+003,6.763360e-003
2.410622e+003,6.879414e-003
2.412551e+003,6.716953e-003
2.414479e+003,6.665303e-003
2.416407e+003,6.673681e-003
2.418336e+003,6.700027e-003
2.420264e+003,6.856188e-003
2.422193e+003,6.886787e-003
2.424122e+003,6.819767e-003
2.426050e+003,6.745557e-003
2.427979e+003,6.806877e-003
2.429907e+003,6.822763e-003
2.431835e+003,6.885508e-003
2.433764e+003,6.910217e-003
2.435692e+003,6.860564e-003
2.437621e+003,6.820205e-003
2.439550e+003,6.801592e-003
2.441478e+003,6.809266e-003
2.443406e+003,6.768071e-003
2.445335e+003,6.713420e-003
2.447263e+003,6.719039e-003
2.449192e+003,6.799236e-003
2.451121e+003,6.800953e-003
2.453049e+003,6.806506e-003
2.454978e+003,6.835554e-003
2.456906e+003,6.666884e-003
2.458834e+003,6.637713e-003
2.460763e+003,6.697975e-003
2.462691e+003,6.848984e-003
2.464620e+003,6.807684e-003
2.466549e+003,6.786110e-003
2.468477e+003,6.887729e-003
2.470406e+003,6.978867e-003
2.472334e+003,6.934659e-003
2.474262e+003,6.929710e-003
2.476191e+003,6.937790e-003
2.478119e+003,6.926916e-003
2.480048e+003,6.873019e-003
2.481977e+003,6.807381e-003
2.483905e+003,6.805698e-003
2.485833e+003,6.769350e-003
2.487762e+003,6.923482e-003
2.489690e+003,7.026816e-003
2.491619e+003,6.945635e-003
2.493547e+003,6.782274e-003
2.495476e+003,6.759388e-003
2.497405e+003,6.804117e-003
2.499333e+003,6.916277e-003
2.501261e+003,6.940753e-003
2.503190e+003,7.011731e-003
2.505118e+003,6.964220e-003
2.507047e+003,7.008060e-003
2.508975e+003,7.058370e-003
2.510904e+003,6.960954e-003
2.512833e+003,6.838684e-003
2.514761e+003,6.826230e-003
2.516689e+003,6.834207e-003
2.518618e+003,6.862617e-003
2.520546e+003,6.848109e-003
2.522475e+003,6.833198e-003
2.524403e+003,6.687207e-003
2.526332e+003,6.715439e-003
2.528260e+003,6.705478e-003
2.530189e+003,6.715506e-003
2.532117e+003,6.845854e-003
2.534046e+003,6.873557e-003
2.535974e+003,6.717559e-003
2.537903e+003,6.661366e-003
2.539831e+003,6.813103e-003
2.541760e+003,6.868171e-003
2.543688e+003,6.768172e-003
2.545617e+003,6.650128e-003
2.547545e+003,6.697403e-003
2.549474e+003,6.716415e-003
2.551402e+003,6.788332e-003
2.553331e+003,6.758917e-003
2.555259e+003,6.616552e-003
2.557188e+003,6.582473e-003
2.559116e+003,6.587183e-003
2.561045e+003,6.582843e-003
2.562973e+003,6.622574e-003
2.564902e+003,6.618570e-003
2.566830e+003,6.540795e-003
2.568759e+003,6.583886e-003
2.570687e+003,6.616417e-003
2.572616e+003,6.637680e-003
2.574544e+003,6.583886e-003
2.576473e+003,6.523405e-003
2.578401e+003,6.552400e-003
2.580330e+003,6.565485e-003
2.582258e+003,6.550281e-003
2.584187e+003,6.535413e-003
2.586115e+003,6.552736e-003
2.588044e+003,6.576620e-003
2.589972e+003,6.622406e-003
2.591901e+003,6.617393e-003
2.593829e+003,6.601682e-003
2.595758e+003,6.678358e-003
2.597686e+003,6.759321e-003
2.599615e+003,6.709483e-003
2.601543e+003,6.599865e-003
2.603472e+003,6.639127e-003
2.605400e+003,6.746566e-003
2.607329e+003,6.682867e-003
2.609257e+003,6.729303e-003
2.611186e+003,6.805059e-003
2.613114e+003,6.724356e-003
2.615043e+003,6.725669e-003
2.616971e+003,6.822225e-003
2.618900e+003,6.839155e-003
2.620828e+003,6.843699e-003
2.622757e+003,6.920485e-003
2.624685e+003,6.884531e-003
2.626614e+003,6.815392e-003
2.628542e+003,6.827273e-003
2.630471e+003,6.871739e-003
2.632399e+003,6.888302e-003
2.634328e+003,6.888941e-003
2.636256e+003,6.987082e-003
2.638185e+003,6.995399e-003
2.640113e+003,7.013549e-003
2.642042e+003,7.011461e-003
2.643970e+003,7.074872e-003
2.645899e+003,7.116030e-003
2.647827e+003,7.142470e-003
2.649756e+003,7.169317e-003
2.651684e+003,7.179490e-003
2.653613e+003,7.191617e-003
2.655541e+003,7.223621e-003
2.657470e+003,7.225912e-003
2.659398e+003,7.259131e-003
2.661327e+003,7.283290e-003
2.663255e+003,7.277831e-003
2.665184e+003,7.282312e-003
2.667112e+003,7.303271e-003
2.669041e+003,7.358907e-003
2.670969e+003,7.391462e-003
2.672898e+003,7.371409e-003
2.674826e+003,7.356514e-003
2.676755e+003,7.399517e-003
2.678683e+003,7.389373e-003
2.680612e+003,7.377341e-003
2.682540e+003,7.419740e-003
2.684469e+003,7.467233e-003
2.686397e+003,7.476064e-003
2.688326e+003,7.455940e-003
2.690254e+003,7.451322e-003
2.692183e+003,7.510584e-003
2.694111e+003,7.545511e-003
2.696040e+003,7.526901e-003
2.697968e+003,7.539679e-003
2.699897e+003,7.563009e-003
2.701825e+003,7.566651e-003
2.703754e+003,7.539881e-003
2.705682e+003,7.600773e-003
2.707611e+003,7.636011e-003
2.709539e+003,7.571405e-003
2.711468e+003,7.561931e-003
2.713396e+003,7.614295e-003
2.715325e+003,7.629436e-003
2.717253e+003,7.622253e-003
2.719182e+003,7.620061e-003
2.721110e+003,7.604719e-003
2.723039e+003,7.602324e-003
2.724967e+003,7.621578e-003
2.726896e+003,7.662011e-003
2.728824e+003,7.670139e-003
2.730753e+003,7.640867e-003
2.732681e+003,7.647072e-003
2.734610e+003,7.650444e-003
2.736538e+003,7.686260e-003
2.738467e+003,7.735637e-003
2.740395e+003,7.688384e-003
2.742324e+003,7.646229e-003
2.744252e+003,7.687339e-003
2.746181e+003,7.717018e-003
2.748109e+003,7.739516e-003
2.750038e+003,7.704168e-003
2.751966e+003,7.670240e-003
2.753895e+003,7.659954e-003
2.755823e+003,7.700661e-003
2.757752e+003,7.761339e-003
2.759680e+003,7.757427e-003
2.761609e+003,7.687811e-003
2.763537e+003,7.658943e-003
2.765466e+003,7.721403e-003
2.767394e+003,7.762958e-003
2.769323e+003,7.760024e-003
2.771251e+003,7.735333e-003
2.773180e+003,7.745250e-003
2.775108e+003,7.727845e-003
2.777037e+003,7.731016e-003
2.778965e+003,7.764712e-003
2.780894e+003,7.731454e-003
2.782822e+003,7.753682e-003
2.784750e+003,7.790653e-003
2.786679e+003,7.752367e-003
2.788608e+003,7.730274e-003
2.790536e+003,7.759349e-003
2.792465e+003,7.793891e-003
2.794393e+003,7.776080e-003
2.796322e+003,7.777531e-003
2.798250e+003,7.808937e-003
2.800178e+003,7.808903e-003
2.802107e+003,7.832620e-003
2.804036e+003,7.817978e-003
2.805964e+003,7.839873e-003
2.807893e+003,7.837174e-003
2.809821e+003,7.828437e-003
2.811750e+003,7.805159e-003
2.813678e+003,7.857248e-003
2.815606e+003,7.898412e-003
2.817535e+003,7.860791e-003
2.819464e+003,7.824523e-003
2.821392e+003,7.864637e-003
2.823321e+003,7.982742e-003
2.825249e+003,7.973731e-003
2.827177e+003,7.904519e-003
2.829106e+003,7.881744e-003
2.831034e+003,7.899829e-003
2.832963e+003,7.890989e-003
2.834892e+003,7.931717e-003
2.836820e+003,7.953281e-003
2.838749e+003,8.008695e-003
2.840677e+003,8.114180e-003
2.842605e+003,8.155131e-003
2.844534e+003,8.126332e-003
2.846462e+003,8.171775e-003
2.848391e+003,8.211315e-003
2.850320e+003,8.206284e-003
2.852248e+003,8.225767e-003
2.854177e+003,8.251701e-003
2.856105e+003,8.279799e-003
2.858033e+003,8.296887e-003
2.859962e+003,8.301244e-003
2.861890e+003,8.303001e-003
2.863819e+003,8.300569e-003
2.865748e+003,8.309417e-003
2.867676e+003,8.353799e-003
2.869604e+003,8.410987e-003
2.871533e+003,8.420650e-003
2.873461e+003,8.408386e-003
2.875390e+003,8.424433e-003
2.877319e+003,8.447406e-003
2.879247e+003,8.448724e-003
2.881176e+003,8.392341e-003
2.883104e+003,8.332317e-003
2.885032e+003,8.398658e-003
2.886961e+003,8.437373e-003
2.888889e+003,8.447136e-003
2.890818e+003,8.424602e-003
2.892747e+003,8.377613e-003
2.894675e+003,8.396056e-003
2.896604e+003,8.410177e-003
2.898532e+003,8.394334e-003
2.900460e+003,8.420987e-003
2.902389e+003,8.435244e-003
2.904317e+003,8.382510e-003
2.906246e+003,8.412373e-003
2.908175e+003,8.450988e-003
2.910103e+003,8.475009e-003
2.912031e+003,8.412575e-003
2.913960e+003,8.320225e-003
2.915888e+003,8.346030e-003
2.917817e+003,8.381294e-003
2.919745e+003,8.337721e-003
2.921674e+003,8.296516e-003
2.923603e+003,8.309282e-003
2.925531e+003,8.308303e-003
2.927459e+003,8.302426e-003
2.929388e+003,8.364134e-003
2.931316e+003,8.351400e-003
2.933245e+003,8.243225e-003
2.935173e+003,8.264499e-003
2.937102e+003,8.236789e-003
2.939031e+003,8.158295e-003
2.940959e+003,8.142157e-003
2.942887e+003,8.140977e-003
2.944816e+003,8.082221e-003
2.946744e+003,8.052814e-003
2.948673e+003,8.053523e-003
2.950601e+003,8.041834e-003
2.952530e+003,8.027172e-003
2.954458e+003,8.027579e-003
2.956387e+003,8.040454e-003
2.958315e+003,7.957304e-003
2.960244e+003,7.949618e-003
2.962172e+003,7.981897e-003
2.964101e+003,7.982669e-003
2.966029e+003,7.970042e-003
2.967958e+003,7.887921e-003
2.969886e+003,7.864755e-003
2.971815e+003,7.837929e-003
2.973743e+003,7.786345e-003
2.975672e+003,7.791219e-003
2.977600e+003,7.779121e-003
2.979529e+003,7.833962e-003
2.981457e+003,7.804777e-003
2.983386e+003,7.768891e-003
2.985314e+003,7.756386e-003
2.987243e+003,7.691483e-003
2.989171e+003,7.686730e-003
2.991100e+003,7.751747e-003
2.993028e+003,7.686416e-003
2.994957e+003,7.648422e-003
2.996885e+003,7.711484e-003
2.998814e+003,7.675673e-003
3.000742e+003,7.670932e-003
3.002671e+003,7.733115e-003
3.004599e+003,7.695927e-003
3.006528e+003,7.645373e-003
3.008456e+003,7.643650e-003
3.010385e+003,7.642217e-003
3.012313e+003,7.674460e-003
3.014242e+003,7.750091e-003
3.016170e+003,7.708556e-003
3.018099e+003,7.640040e-003
3.020027e+003,7.737354e-003
3.021956e+003,7.814041e-003
3.023884e+003,7.818010e-003
3.025813e+003,7.780681e-003
3.027741e+003,7.812993e-003
3.029670e+003,7.751560e-003
3.031598e+003,7.683605e-003
3.033527e+003,7.734035e-003
3.035455e+003,7.757884e-003
3.037384e+003,7.811516e-003
3.039312e+003,7.849916e-003
3.041241e+003,7.801296e-003
3.043169e+003,7.802933e-003
3.045098e+003,7.835168e-003
3.047026e+003,7.796230e-003
3.048955e+003,7.860497e-003
3.050883e+003,7.941231e-003
3.052812e+003,7.926946e-003
3.054740e+003,7.938887e-003
3.056669e+003,7.882447e-003
3.058597e+003,7.897547e-003
3.060526e+003,7.932329e-003
3.062454e+003,7.868932e-003
3.064383e+003,7.851600e-003
3.066311e+003,7.900260e-003
3.068240e+003,7.886707e-003
3.070168e+003,7.963300e-003
3.072097e+003,8.045656e-003
3.074025e+003,7.993060e-003
3.075954e+003,7.994597e-003
3.077882e+003,8.039039e-003
3.079811e+003,8.010930e-003
3.081739e+003,8.023316e-003
3.083668e+003,7.978594e-003
3.085596e+003,7.995031e-003
3.087525e+003,8.039895e-003
3.089453e+003,8.062519e-003
3.091382e+003,8.075347e-003
3.093310e+003,8.071454e-003
3.095239e+003,8.050338e-003
3.097167e+003,8.014558e-003
3.099096e+003,7.980779e-003
3.101024e+003,8.007552e-003
3.102953e+003,8.033434e-003
3.104881e+003,8.031568e-003
3.106810e+003,8.075397e-003
3.108738e+003,8.095486e-003
3.110667e+003,8.089060e-003
3.112595e+003,8.094719e-003
3.114524e+003,8.104132e-003
3.116452e+003,8.096137e-003
3.118381e+003,8.080225e-003
3.120309e+003,8.137599e-003
3.122238e+003,8.187190e-003
3.124166e+003,8.189208e-003
3.126095e+003,8.201649e-003
3.128023e+003,8.226306e-003
3.129952e+003,8.218750e-003
3.131880e+003,8.188876e-003
3.133809e+003,8.201543e-003
3.135737e+003,8.253807e-003
3.137666e+003,8.228518e-003
3.139594e+003,8.197144e-003
3.141523e+003,8.225110e-003
3.143451e+003,8.314381e-003
3.145380e+003,8.351840e-003
3.147308e+003,8.331906e-003
3.149237e+003,8.364622e-003
3.151165e+003,8.409512e-003
3.153094e+003,8.470838e-003
3.155022e+003,8.431681e-003
3.156951e+003,8.434476e-003
3.158879e+003,8.553443e-003
3.160808e+003,8.617830e-003
3.162736e+003,8.571475e-003
3.164665e+003,8.560977e-003
3.166593e+003,8.603200e-003
3.168522e+003,8.561528e-003
3.170450e+003,8.500304e-003
3.172379e+003,8.485761e-003
3.174307e+003,8.605605e-003
3.176236e+003,8.692815e-003
3.178164e+003,8.670365e-003
3.180093e+003,8.689253e-003
3.182021e+003,8.752127e-003
3.183950e+003,8.770171e-003
3.185878e+003,8.743298e-003
3.187807e+003,8.708717e-003
3.189735e+003,8.758496e-003
3.191664e+003,8.750795e-003
3.193592e+003,8.756101e-003
3.195521e+003,8.785096e-003
3.197449e+003,8.726684e-003
3.199378e+003,8.723551e-003
3.201306e+003,8.876739e-003
3.203235e+003,8.936885e-003
3.205163e+003,8.896474e-003
3.207092e+003,8.950025e-003
3.209020e+003,8.932590e-003
3.210948e+003,8.918473e-003
3.212877e+003,8.979751e-003
3.214806e+003,9.028048e-003
3.216734e+003,8.985387e-003
3.218663e+003,8.988034e-003
3.220591e+003,9.044303e-003
3.222520e+003,9.012988e-003
3.224448e+003,8.989466e-003
3.226376e+003,9.062557e-003
3.228305e+003,9.014477e-003
3.230234e+003,9.066807e-003
3.232162e+003,9.123349e-003
3.234091e+003,9.111699e-003
3.236019e+003,9.141476e-003
3.237948e+003,9.224048e-003
3.239876e+003,9.210318e-003
3.241804e+003,9.224433e-003
3.243733e+003,9.237139e-003
3.245662e+003,9.260496e-003
3.247590e+003,9.264919e-003
3.249519e+003,9.312307e-003
3.251447e+003,9.395765e-003
3.253375e+003,9.481903e-003
3.255304e+003,9.508675e-003
3.257232e+003,9.497328e-003
3.259161e+003,9.562566e-003
3.261090e+003,9.504051e-003
3.263018e+003,9.422300e-003
3.264947e+003,9.477622e-003
3.266875e+003,9.518805e-003
3.268803e+003,9.588288e-003
3.270732e+003,9.623078e-003
3.272660e+003,9.643105e-003
3.274589e+003,9.663860e-003
3.276518e+003,9.705798e-003
3.278446e+003,9.705912e-003
3.280375e+003,9.639206e-003
3.282303e+003,9.599204e-003
3.284231e+003,9.612023e-003
3.286160e+003,9.625551e-003
3.288088e+003,9.628179e-003
3.290017e+003,9.654535e-003
3.291946e+003,9.615055e-003
3.293874e+003,9.554972e-003
3.295802e+003,9.564449e-003
3.297731e+003,9.653334e-003
3.299659e+003,9.665620e-003
3.301588e+003,9.688254e-003
3.303516e+003,9.619964e-003
3.305445e+003,9.606435e-003
3.307374e+003,9.714426e-003
3.309302e+003,9.692522e-003
3.311230e+003,9.661056e-003
3.313159e+003,9.676298e-003
3.315087e+003,9.673485e-003
3.317016e+003,9.707184e-003
3.318944e+003,9.708753e-003
3.320873e+003,9.668673e-003
3.322802e+003,9.604486e-003
3.324730e+003,9.566129e-003
3.326658e+003,9.615934e-003
3.328587e+003,9.624958e-003
3.330515e+003,9.594506e-003
3.332444e+003,9.623986e-003
3.334372e+003,9.736408e-003
3.336301e+003,9.729898e-003
3.338229e+003,9.645615e-003
3.340158e+003,9.656882e-003
3.342086e+003,9.670623e-003
3.344015e+003,9.660994e-003
3.345943e+003,9.615711e-003
3.347872e+003,9.638040e-003
3.349800e+003,9.645441e-003
3.351729e+003,9.592884e-003
3.353657e+003,9.606595e-003
3.355586e+003,9.537630e-003
3.357514e+003,9.432149e-003
3.359443e+003,9.426331e-003
3.361371e+003,9.446627e-003
3.363300e+003,9.405443e-003
3.365229e+003,9.348048e-003
3.367157e+003,9.376972e-003
3.369085e+003,9.400620e-003
3.371014e+003,9.342821e-003
3.372942e+003,9.312159e-003
3.374871e+003,9.387895e-003
3.376799e+003,9.381894e-003
3.378728e+003,9.320601e-003
3.380656e+003,9.240372e-003
3.382585e+003,9.188864e-003
3.384513e+003,9.203511e-003
3.386442e+003,9.155833e-003
3.388370e+003,9.086031e-003
3.390299e+003,9.091660e-003
3.392227e+003,9.090073e-003
3.394156e+003,9.021666e-003
3.396084e+003,9.056086e-003
3.398013e+003,9.087624e-003
3.399941e+003,9.109479e-003
3.401870e+003,9.035719e-003
3.403798e+003,8.986609e-003
3.405727e+003,8.972045e-003
3.407655e+003,8.953899e-003
3.409584e+003,8.956504e-003
3.411512e+003,8.958028e-003
3.413441e+003,8.902628e-003
3.415369e+003,8.761293e-003
3.417298e+003,8.771126e-003
3.419226e+003,8.779669e-003
3.421155e+003,8.756073e-003
3.423083e+003,8.729598e-003
3.425012e+003,8.703631e-003
3.426940e+003,8.661601e-003
3.428869e+003,8.679531e-003
3.430797e+003,8.727057e-003
3.432726e+003,8.587452e-003
3.434654e+003,8.492678e-003
3.436583e+003,8.460282e-003
3.438511e+003,8.402622e-003
3.440440e+003,8.460190e-003
3.442368e+003,8.455073e-003
3.444297e+003,8.318192e-003
3.446225e+003,8.358005e-003
3.448154e+003,8.324885e-003
3.450082e+003,8.194542e-003
3.452011e+003,8.188782e-003
3.453939e+003,8.235282e-003
3.455868e+003,8.167158e-003
3.457796e+003,8.094487e-003
3.459725e+003,8.112632e-003
3.461653e+003,8.083422e-003
3.463582e+003,7.965418e-003
3.465510e+003,7.966206e-003
3.467439e+003,7.951399e-003
3.469367e+003,7.867440e-003
3.471296e+003,7.834921e-003
3.473224e+003,7.831446e-003
3.475153e+003,7.807985e-003
3.477081e+003,7.809499e-003
3.479010e+003,7.834269e-003
3.480938e+003,7.773060e-003
3.482867e+003,7.720583e-003
3.484795e+003,7.718355e-003
3.486724e+003,7.668602e-003
3.488652e+003,7.580137e-003
3.490581e+003,7.604528e-003
3.492509e+003,7.576368e-003
3.494438e+003,7.498548e-003
3.496366e+003,7.464787e-003
3.498295e+003,7.423551e-003
3.500223e+003,7.433489e-003
3.502152e+003,7.378120e-003
3.504080e+003,7.380617e-003
3.506009e+003,7.375902e-003
3.507937e+003,7.296824e-003
3.509866e+003,7.214664e-003
3.511794e+003,7.204678e-003
3.513723e+003,7.212971e-003
3.515651e+003,7.099137e-003
3.517580e+003,6.963128e-003
3.519508e+003,7.028618e-003
3.521437e+003,7.035473e-003
3.523365e+003,6.973357e-003
3.525294e+003,6.903096e-003
3.527222e+003,6.924332e-003
3.529151e+003,6.962075e-003
3.531079e+003,6.895921e-003
3.533008e+003,6.771276e-003
3.534936e+003,6.708118e-003
3.536865e+003,6.809518e-003
3.538793e+003,6.817662e-003
3.540722e+003,6.727003e-003
3.542650e+003,6.710905e-003
3.544579e+003,6.667888e-003
3.546507e+003,6.652275e-003
3.548436e+003,6.662574e-003
3.550364e+003,6.701494e-003
3.552293e+003,6.554717e-003
3.554221e+003,6.434483e-003
3.556150e+003,6.520792e-003
3.558078e+003,6.518470e-003
3.560007e+003,6.503512e-003
3.561935e+003,6.584059e-003
3.563864e+003,6.504505e-003
3.565792e+003,6.440273e-003
3.567721e+003,6.411635e-003
3.569649e+003,6.414008e-003
3.571578e+003,6.365121e-003
3.573506e+003,6.354113e-003
3.575435e+003,6.398276e-003
3.577363e+003,6.404282e-003
3.579292e+003,6.394849e-003
3.581220e+003,6.409020e-003
3.583149e+003,6.422008e-003
3.585077e+003,6.396994e-003
3.587006e+003,6.363149e-003
3.588934e+003,6.458731e-003
3.590863e+003,6.475802e-003
3.592791e+003,6.473875e-003
3.594720e+003,6.479356e-003
3.596648e+003,6.442083e-003
3.598577e+003,6.487115e-003
3.600505e+003,6.447496e-003
3.602434e+003,6.461920e-003
3.604362e+003,6.410223e-003
3.606291e+003,6.220027e-003
3.608219e+003,6.090114e-003
3.610148e+003,5.960755e-003
3.612076e+003,5.945361e-003
3.614005e+003,5.944556e-003
3.615933e+003,6.033340e-003
3.617862e+003,6.136111e-003
3.619790e+003,6.184098e-003
3.621719e+003,6.252710e-003
3.623647e+003,6.406636e-003
3.625576e+003,6.416428e-003
3.627504e+003,6.335553e-003
3.629433e+003,6.298832e-003
3.631361e+003,6.288250e-003
3.633290e+003,6.203312e-003
3.635218e+003,6.083264e-003
3.637146e+003,5.864821e-003
3.639075e+003,5.744248e-003
3.641004e+003,5.648928e-003
3.642932e+003,5.623793e-003
3.644861e+003,5.592890e-003
3.646789e+003,5.480698e-003
3.648718e+003,5.412063e-003
3.650646e+003,5.438742e-003
3.652574e+003,5.390157e-003
3.654503e+003,5.356773e-003
3.656432e+003,5.397182e-003
3.658360e+003,5.493786e-003
3.660289e+003,5.521669e-003
3.662217e+003,5.425728e-003
3.664146e+003,5.382341e-003
3.666074e+003,5.461283e-003
3.668002e+003,5.425347e-003
3.669931e+003,5.364741e-003
3.671860e+003,5.408251e-003
3.673788e+003,5.502187e-003
3.675717e+003,5.494865e-003
3.677645e+003,5.502725e-003
3.679573e+003,5.565311e-003
3.681502e+003,5.638533e-003
3.683430e+003,5.676780e-003
3.685359e+003,5.681213e-003
3.687288e+003,5.702171e-003
3.689216e+003,5.816447e-003
3.691145e+003,5.757693e-003
3.693073e+003,5.734885e-003
3.695001e+003,5.812383e-003
3.696930e+003,5.989911e-003
3.698858e+003,6.126449e-003
3.700787e+003,6.169441e-003
3.702716e+003,6.141589e-003
3.704644e+003,6.203423e-003
3.706573e+003,6.101764e-003
3.708501e+003,5.912611e-003
3.710429e+003,5.808966e-003
3.712358e+003,5.640784e-003
3.714286e+003,5.477161e-003
3.716215e+003,5.616696e-003
3.718144e+003,5.891755e-003
3.720072e+003,6.037700e-003
3.722000e+003,6.161090e-003
3.723929e+003,6.368305e-003
3.725857e+003,6.441530e-003
3.727786e+003,6.495843e-003
3.729714e+003,6.484254e-003
3.731643e+003,6.316243e-003
3.733572e+003,6.292008e-003
3.735500e+003,6.193511e-003
3.737428e+003,5.948586e-003
3.739357e+003,5.749074e-003
3.741285e+003,5.613690e-003
3.743214e+003,5.524108e-003
3.745142e+003,5.530050e-003
3.747071e+003,5.388002e-003
3.749000e+003,5.288425e-003
3.750928e+003,5.402634e-003
3.752856e+003,5.484472e-003
3.754785e+003,5.439154e-003
3.756713e+003,5.488672e-003
3.758642e+003,5.465067e-003
3.760570e+003,5.487761e-003
3.762499e+003,5.469925e-003
3.764427e+003,5.369894e-003
3.766356e+003,5.387948e-003
3.768284e+003,5.385082e-003
3.770213e+003,5.375057e-003
3.772141e+003,5.444732e-003
3.774070e+003,5.510051e-003
3.775998e+003,5.492336e-003
3.777927e+003,5.477138e-003
3.779855e+003,5.540486e-003
3.781784e+003,5.538745e-003
3.783712e+003,5.582035e-003
3.785641e+003,5.610712e-003
3.787569e+003,5.543998e-003
3.789498e+003,5.491467e-003
3.791426e+003,5.535149e-003
3.793355e+003,5.581092e-003
3.795283e+003,5.558131e-003
3.797212e+003,5.592089e-003
3.799140e+003,5.634075e-003
3.801069e+003,5.705415e-003
3.802997e+003,5.607574e-003
3.804926e+003,5.556218e-003
3.806854e+003,5.555245e-003
3.808783e+003,5.572034e-003
3.810711e+003,5.589398e-003
3.812640e+003,5.603421e-003
3.814568e+003,5.593380e-003
3.816497e+003,5.652352e-003
3.818425e+003,5.580191e-003
3.820354e+003,5.488425e-003
3.822282e+003,5.533638e-003
3.824211e+003,5.659114e-003
3.826139e+003,5.657179e-003
3.828068e+003,5.641907e-003
3.829996e+003,5.677296e-003
3.831925e+003,5.676517e-003
3.833853e+003,5.644526e-003
3.835782e+003,5.662586e-003
3.837710e+003,5.736787e-003
3.839639e+003,5.728380e-003
3.841567e+003,5.774268e-003
3.843496e+003,5.752977e-003
3.845424e+003,5.685897e-003
3.847353e+003,5.634952e-003
3.849281e+003,5.668861e-003
3.851210e+003,5.738400e-003
3.853138e+003,5.728355e-003
3.855067e+003,5.684969e-003
3.856995e+003,5.694765e-003
3.858924e+003,5.687728e-003
3.860852e+003,5.710641e-003
3.862781e+003,5.752456e-003
3.864709e+003,5.784226e-003
3.866638e+003,5.717879e-003
3.868566e+003,5.681266e-003
3.870495e+003,5.689158e-003
3.872423e+003,5.656986e-003
3.874352e+003,5.675793e-003
3.876280e+003,5.736569e-003
3.878209e+003,5.810549e-003
3.880137e+003,5.808191e-003
3.882066e+003,5.764842e-003
3.883994e+003,5.738158e-003
3.885923e+003,5.729503e-003
3.887851e+003,5.639714e-003
3.889780e+003,5.715686e-003
3.891708e+003,5.810701e-003
3.893637e+003,5.830999e-003
3.895565e+003,5.782128e-003
3.897494e+003,5.745550e-003
3.899422e+003,5.805665e-003
3.901351e+003,5.817722e-003
3.903279e+003,5.807007e-003
3.905208e+003,5.846989e-003
3.907136e+003,5.848714e-003
3.909065e+003,5.812509e-003
3.910993e+003,5.788424e-003
3.912922e+003,5.871391e-003
3.914850e+003,5.873872e-003
3.916779e+003,5.827405e-003
3.918707e+003,5.909703e-003
3.920636e+003,5.940995e-003
3.922564e+003,5.800358e-003
3.924493e+003,5.760839e-003
3.926421e+003,5.876984e-003
3.928350e+003,5.886366e-003
3.930278e+003,5.816146e-003
3.932207e+003,5.816096e-003
3.934135e+003,5.826900e-003
3.936064e+003,5.812693e-003
3.937992e+003,5.853186e-003
3.939921e+003,5.872960e-003
3.941849e+003,5.854407e-003
3.943778e+003,5.845324e-003
3.945706e+003,5.850109e-003
3.947635e+003,5.911705e-003
3.949563e+003,5.997512e-003
3.951492e+003,5.929924e-003
3.953420e+003,5.879055e-003
3.955349e+003,5.898222e-003
3.957277e+003,5.834567e-003
3.959206e+003,5.744250e-003
3.961134e+003,5.837756e-003
3.963063e+003,5.954107e-003
3.964991e+003,5.942224e-003
3.966920e+003,5.836433e-003
3.968848e+003,5.848704e-003
3.970777e+003,5.813110e-003
3.972705e+003,5.837614e-003
3.974634e+003,5.886979e-003
3.976562e+003,5.863696e-003
3.978491e+003,5.886529e-003
3.980419e+003,5.874548e-003
3.982348e+003,5.852745e-003
3.984276e+003,5.888692e-003
3.986205e+003,5.916930e-003
3.988133e+003,5.837236e-003
3.990062e+003,5.789767e-003
3.991990e+003,5.807905e-003
3.993919e+003,5.899093e-003
3.995847e+003,5.973657e-003
3.997776e+003,5.898929e-003
3.999704e+003,5.898705e-003
4.001633e+003,0.000000e+000
