3.991989e+002,2.657718e-002
4.011274e+002,2.845099e-002
4.030559e+002,2.845099e-002
4.049844e+002,2.794356e-002
4.069129e+002,2.774445e-002
4.088414e+002,2.735547e-002
4.107699e+002,2.685026e-002
4.126984e+002,2.866954e-002
4.146269e+002,2.731877e-002
4.165554e+002,2.679528e-002
4.184839e+002,2.758999e-002
4.204124e+002,2.739238e-002
4.223409e+002,2.843037e-002
4.242694e+002,2.945943e-002
4.261979e+002,2.911504e-002
4.281264e+002,2.800999e-002
4.300549e+002,2.795006e-002
4.319834e+002,2.815361e-002
4.339119e+002,2.822793e-002
4.358404e+002,2.843975e-002
4.377689e+002,2.833586e-002
4.396974e+002,2.788656e-002
4.416259e+002,2.817814e-002
4.435544e+002,2.820979e-002
4.454829e+002,2.779128e-002
4.474114e+002,2.746269e-002
4.493399e+002,2.764080e-002
4.512684e+002,2.749160e-002
4.531969e+002,2.725798e-002
4.551254e+002,2.790939e-002
4.570539e+002,2.739658e-002
4.589824e+002,2.732269e-002
4.609109e+002,2.730275e-002
4.628394e+002,2.737780e-002
4.647679e+002,2.776868e-002
4.666964e+002,2.734566e-002
4.686249e+002,2.707219e-002
4.705533e+002,2.712548e-002
4.724819e+002,2.653512e-002
4.744103e+002,2.640221e-002
4.763389e+002,2.720580e-002
4.782673e+002,2.766124e-002
4.801959e+002,2.735960e-002
4.821243e+002,2.696260e-002
4.840529e+002,2.708387e-002
4.859813e+002,2.722150e-002
4.879099e+002,2.727442e-002
4.898383e+002,2.757293e-002
4.917668e+002,2.731185e-002
4.936953e+002,2.732978e-002
4.956238e+002,2.752005e-002
4.975523e+002,2.739326e-002
4.994808e+002,2.737156e-002
5.014093e+002,2.718784e-002
5.033378e+002,2.717035e-002
5.052663e+002,2.716601e-002
5.071948e+002,2.702311e-002
5.091233e+002,2.692622e-002
5.110518e+002,2.714795e-002
5.129803e+002,2.733701e-002
5.149088e+002,2.782516e-002
5.168373e+002,2.805074e-002
5.187658e+002,2.794511e-002
5.206943e+002,2.795144e-002
5.226228e+002,2.822902e-002
5.245513e+002,2.837154e-002
5.264798e+002,2.848874e-002
5.284083e+002,2.864342e-002
5.303368e+002,2.836097e-002
5.322653e+002,2.787805e-002
5.341938e+002,2.782618e-002
5.361223e+002,2.785915e-002
5.380508e+002,2.763317e-002
5.399792e+002,2.735427e-002
5.419078e+002,2.727403e-002
5.438363e+002,2.727703e-002
5.457648e+002,2.636560e-002
5.476932e+002,2.671038e-002
5.496218e+002,2.766873e-002
5.515503e+002,2.773661e-002
5.534788e+002,2.788306e-002
5.554072e+002,2.811543e-002
5.573358e+002,2.838746e-002
5.592643e+002,2.809924e-002
5.611927e+002,2.791734e-002
5.631212e+002,2.788875e-002
5.650497e+002,2.789395e-002
5.669783e+002,2.758137e-002
5.689067e+002,2.726475e-002
5.708352e+002,2.721360e-002
5.727637e+002,2.732279e-002
5.746923e+002,2.717010e-002
5.766207e+002,2.692576e-002
5.785492e+002,2.684980e-002
5.804777e+002,2.686281e-002
5.824063e+002,2.662258e-002
5.843347e+002,2.654734e-002
5.862632e+002,2.674520e-002
5.881917e+002,2.664086e-002
5.901202e+002,2.652989e-002
5.920487e+002,2.642344e-002
5.939772e+002,2.668434e-002
5.959057e+002,2.674451e-002
5.978342e+002,2.645978e-002
5.997627e+002,2.615103e-002
6.016912e+002,2.611043e-002
6.036197e+002,2.617281e-002
6.055482e+002,2.626988e-002
6.074767e+002,2.617819e-002
6.094052e+002,2.615712e-002
6.113337e+002,2.586728e-002
6.132622e+002,2.553765e-002
6.151907e+002,2.512334e-002
6.171192e+002,2.490240e-002
6.190477e+002,2.463156e-002
6.209762e+002,2.429533e-002
6.229047e+002,2.411039e-002
6.248332e+002,2.378205e-002
6.267617e+002,2.339440e-002
6.286902e+002,2.310634e-002
6.306187e+002,2.309662e-002
6.325472e+002,2.298806e-002
6.344756e+002,2.258484e-002
6.364042e+002,2.243844e-002
6.383326e+002,2.249003e-002
6.402612e+002,2.231418e-002
6.421896e+002,2.227410e-002
6.441182e+002,2.220819e-002
6.460466e+002,2.203017e-002
6.479752e+002,2.198851e-002
6.499036e+002,2.199355e-002
6.518322e+002,2.173251e-002
6.537606e+002,2.159897e-002
6.556891e+002,2.169311e-002
6.576177e+002,2.168797e-002
6.595461e+002,2.157225e-002
6.614746e+002,2.162689e-002
6.634031e+002,2.162268e-002
6.653317e+002,2.156568e-002
6.672601e+002,2.131004e-002
6.691886e+002,2.105303e-002
6.711171e+002,2.081177e-002
6.730457e+002,2.033245e-002
6.749741e+002,2.006376e-002
6.769026e+002,1.993884e-002
6.788311e+002,1.948065e-002
6.807596e+002,1.902154e-002
6.826881e+002,1.850915e-002
6.846166e+002,1.801385e-002
6.865451e+002,1.792917e-002
6.884736e+002,1.793951e-002
6.904021e+002,1.791626e-002
6.923306e+002,1.780875e-002
6.942591e+002,1.753593e-002
6.961876e+002,1.730164e-002
6.981161e+002,1.731136e-002
7.000446e+002,1.730194e-002
7.019731e+002,1.726040e-002
7.039016e+002,1.707570e-002
7.058301e+002,1.697369e-002
7.077585e+002,1.682262e-002
7.096871e+002,1.669364e-002
7.116156e+002,1.656126e-002
7.135441e+002,1.637699e-002
7.154725e+002,1.640298e-002
7.174011e+002,1.634438e-002
7.193296e+002,1.616937e-002
7.212581e+002,1.616251e-002
7.231865e+002,1.610074e-002
7.251151e+002,1.596840e-002
7.270436e+002,1.580451e-002
7.289720e+002,1.570865e-002
7.309005e+002,1.560727e-002
7.328290e+002,1.535052e-002
7.347576e+002,1.512893e-002
7.366860e+002,1.500263e-002
7.386145e+002,1.479562e-002
7.405430e+002,1.469236e-002
7.424716e+002,1.470940e-002
7.444000e+002,1.450374e-002
7.463285e+002,1.434218e-002
7.482570e+002,1.427494e-002
7.501855e+002,1.415373e-002
7.521140e+002,1.408307e-002
7.540425e+002,1.399866e-002
7.559710e+002,1.387574e-002
7.578995e+002,1.372043e-002
7.598280e+002,1.364233e-002
7.617565e+002,1.354315e-002
7.636850e+002,1.343668e-002
7.656135e+002,1.343067e-002
7.675420e+002,1.329830e-002
7.694705e+002,1.331042e-002
7.713990e+002,1.329122e-002
7.733275e+002,1.317761e-002
7.752560e+002,1.311125e-002
7.771844e+002,1.303418e-002
7.791130e+002,1.302128e-002
7.810415e+002,1.298127e-002
7.829700e+002,1.293706e-002
7.848984e+002,1.286074e-002
7.868270e+002,1.271032e-002
7.887555e+002,1.269899e-002
7.906840e+002,1.276262e-002
7.926124e+002,1.270039e-002
7.945410e+002,1.258758e-002
7.964695e+002,1.265178e-002
7.983979e+002,1.269803e-002
8.003264e+002,1.265341e-002
8.022549e+002,1.262384e-002
8.041835e+002,1.268098e-002
8.061119e+002,1.265444e-002
8.080404e+002,1.271840e-002
8.099689e+002,1.275914e-002
8.118975e+002,1.271827e-002
8.138259e+002,1.274700e-002
8.157545e+002,1.272680e-002
8.176830e+002,1.274461e-002
8.196115e+002,1.272628e-002
8.215399e+002,1.271264e-002
8.234684e+002,1.271738e-002
8.253970e+002,1.272833e-002
8.273254e+002,1.283012e-002
8.292539e+002,1.284070e-002
8.311824e+002,1.283917e-002
8.331110e+002,1.283487e-002
8.350394e+002,1.288149e-002
8.369679e+002,1.290326e-002
8.388964e+002,1.292484e-002
8.408250e+002,1.290176e-002
8.427534e+002,1.283804e-002
8.446819e+002,1.274399e-002
8.466104e+002,1.263533e-002
8.485389e+002,1.259883e-002
8.504674e+002,1.259621e-002
8.523959e+002,1.259160e-002
8.543244e+002,1.261326e-002
8.562529e+002,1.256872e-002
8.581814e+002,1.257039e-002
8.601099e+002,1.265689e-002
8.620384e+002,1.271363e-002
8.639669e+002,1.277750e-002
8.658954e+002,1.274085e-002
8.678239e+002,1.286391e-002
8.697524e+002,1.299414e-002
8.716809e+002,1.301069e-002
8.736094e+002,1.306454e-002
8.755378e+002,1.310821e-002
8.774664e+002,1.313096e-002
8.793949e+002,1.337295e-002
8.813234e+002,1.365803e-002
8.832518e+002,1.376670e-002
8.851804e+002,1.408677e-002
8.871089e+002,1.443034e-002
8.890374e+002,1.469616e-002
8.909658e+002,1.520903e-002
8.928943e+002,1.568785e-002
8.948229e+002,1.594479e-002
8.967513e+002,1.609949e-002
8.986798e+002,1.598188e-002
9.006083e+002,1.570005e-002
9.025369e+002,1.544635e-002
9.044653e+002,1.510679e-002
9.063938e+002,1.471878e-002
9.083223e+002,1.442828e-002
9.102509e+002,1.434139e-002
9.121793e+002,1.427465e-002
9.141078e+002,1.420545e-002
9.160364e+002,1.414582e-002
9.179648e+002,1.413753e-002
9.198933e+002,1.424352e-002
9.218218e+002,1.439283e-002
9.237504e+002,1.448220e-002
9.256788e+002,1.465900e-002
9.276073e+002,1.479337e-002
9.295358e+002,1.489976e-002
9.314644e+002,1.506716e-002
9.333928e+002,1.537227e-002
9.353213e+002,1.570427e-002
9.372498e+002,1.590626e-002
9.391783e+002,1.615785e-002
9.411068e+002,1.651462e-002
9.430353e+002,1.701938e-002
9.449637e+002,1.754722e-002
9.468923e+002,1.802480e-002
9.488208e+002,1.852323e-002
9.507493e+002,1.920158e-002
9.526777e+002,1.978618e-002
9.546063e+002,2.039279e-002
9.565348e+002,2.102924e-002
9.584633e+002,2.163546e-002
9.603917e+002,2.230266e-002
9.623203e+002,2.298569e-002
9.642488e+002,2.363506e-002
9.661772e+002,2.425989e-002
9.681057e+002,2.478939e-002
9.700343e+002,2.536428e-002
9.719628e+002,2.597996e-002
9.738912e+002,2.654618e-002
9.758197e+002,2.716259e-002
9.777483e+002,2.796144e-002
9.796768e+002,2.876133e-002
9.816052e+002,2.953390e-002
9.835337e+002,3.029669e-002
9.854623e+002,3.103428e-002
9.873907e+002,3.171198e-002
9.893192e+002,3.214252e-002
9.912477e+002,3.225132e-002
9.931763e+002,3.225671e-002
9.951047e+002,3.221203e-002
9.970332e+002,3.230108e-002
9.989617e+002,3.260978e-002
1.000890e+003,3.296285e-002
1.002819e+003,3.335482e-002
1.004747e+003,3.380998e-002
1.006676e+003,3.419092e-002
1.008604e+003,3.452389e-002
1.010533e+003,3.491407e-002
1.012461e+003,3.542408e-002
1.014390e+003,3.601943e-002
1.016318e+003,3.666325e-002
1.018247e+003,3.734918e-002
1.020175e+003,3.806073e-002
1.022104e+003,3.878852e-002
1.024032e+003,3.947205e-002
1.025961e+003,4.013450e-002
1.027889e+003,4.078758e-002
1.029818e+003,4.141522e-002
1.031746e+003,4.197782e-002
1.033675e+003,4.232610e-002
1.035603e+003,4.243602e-002
1.037532e+003,4.223596e-002
1.039460e+003,4.187889e-002
1.041389e+003,4.141089e-002
1.043317e+003,4.085783e-002
1.045246e+003,4.034701e-002
1.047174e+003,3.989169e-002
1.049103e+003,3.939056e-002
1.051031e+003,3.887874e-002
1.052960e+003,3.827074e-002
1.054888e+003,3.758750e-002
1.056817e+003,3.685390e-002
1.058745e+003,3.606263e-002
1.060674e+003,3.534047e-002
1.062602e+003,3.458582e-002
1.064531e+003,3.380841e-002
1.066459e+003,3.302727e-002
1.068388e+003,3.232446e-002
1.070316e+003,3.174902e-002
1.072245e+003,3.122112e-002
1.074173e+003,3.064728e-002
1.076102e+003,3.007715e-002
1.078030e+003,2.948847e-002
1.079959e+003,2.881628e-002
1.081887e+003,2.817977e-002
1.083816e+003,2.767364e-002
1.085744e+003,2.726313e-002
1.087673e+003,2.689932e-002
1.089601e+003,2.658165e-002
1.091530e+003,2.624415e-002
1.093458e+003,2.596040e-002
1.095387e+003,2.568953e-002
1.097315e+003,2.541082e-002
1.099244e+003,2.522365e-002
1.101172e+003,2.516020e-002
1.103101e+003,2.506047e-002
1.105029e+003,2.485204e-002
1.106958e+003,2.457447e-002
1.108886e+003,2.415892e-002
1.110815e+003,2.359934e-002
1.112743e+003,2.290238e-002
1.114672e+003,2.219294e-002
1.116600e+003,2.154008e-002
1.118529e+003,2.090855e-002
1.120457e+003,2.033066e-002
1.122386e+003,1.974734e-002
1.124314e+003,1.917946e-002
1.126243e+003,1.858450e-002
1.128171e+003,1.792092e-002
1.130100e+003,1.728445e-002
1.132028e+003,1.671884e-002
1.133957e+003,1.617621e-002
1.135885e+003,1.565429e-002
1.137814e+003,1.528930e-002
1.139742e+003,1.509409e-002
1.141671e+003,1.501729e-002
1.143599e+003,1.510562e-002
1.145528e+003,1.524929e-002
1.147456e+003,1.542771e-002
1.149385e+003,1.568380e-002
1.151313e+003,1.608361e-002
1.153242e+003,1.642280e-002
1.155170e+003,1.675014e-002
1.157099e+003,1.707910e-002
1.159027e+003,1.730189e-002
1.160956e+003,1.742080e-002
1.162884e+003,1.730227e-002
1.164813e+003,1.703089e-002
1.166741e+003,1.658663e-002
1.168670e+003,1.596111e-002
1.170598e+003,1.528275e-002
1.172526e+003,1.453222e-002
1.174455e+003,1.371099e-002
1.176384e+003,1.301046e-002
1.178312e+003,1.240960e-002
1.180240e+003,1.185572e-002
1.182169e+003,1.141991e-002
1.184098e+003,1.107437e-002
1.186026e+003,1.075535e-002
1.187954e+003,1.053499e-002
1.189883e+003,1.042689e-002
1.191812e+003,1.042902e-002
1.193740e+003,1.053516e-002
1.195668e+003,1.069127e-002
1.197597e+003,1.091335e-002
1.199526e+003,1.111975e-002
1.201454e+003,1.125181e-002
1.203382e+003,1.138655e-002
1.205311e+003,1.142701e-002
1.207240e+003,1.146199e-002
1.209168e+003,1.154346e-002
1.211096e+003,1.162532e-002
1.213025e+003,1.180449e-002
1.214953e+003,1.200314e-002
1.216882e+003,1.224636e-002
1.218810e+003,1.248261e-002
1.220739e+003,1.272211e-002
1.222667e+003,1.303245e-002
1.224596e+003,1.334860e-002
1.226524e+003,1.374538e-002
1.228453e+003,1.416318e-002
1.230381e+003,1.454039e-002
1.232310e+003,1.483182e-002
1.234238e+003,1.500676e-002
1.236167e+003,1.517226e-002
1.238095e+003,1.531388e-002
1.240024e+003,1.541796e-002
1.241952e+003,1.544919e-002
1.243881e+003,1.542375e-002
1.245809e+003,1.531619e-002
1.247738e+003,1.518910e-002
1.249666e+003,1.508760e-002
1.251595e+003,1.490856e-002
1.253523e+003,1.466079e-002
1.255452e+003,1.439660e-002
1.257380e+003,1.413102e-002
1.259309e+003,1.385553e-002
1.261237e+003,1.353783e-002
1.263166e+003,1.321308e-002
1.265094e+003,1.287834e-002
1.267023e+003,1.255547e-002
1.268951e+003,1.223235e-002
1.270880e+003,1.195208e-002
1.272808e+003,1.167369e-002
1.274737e+003,1.143361e-002
1.276665e+003,1.122597e-002
1.278594e+003,1.106101e-002
1.280522e+003,1.090918e-002
1.282451e+003,1.080469e-002
1.284379e+003,1.070544e-002
1.286308e+003,1.056069e-002
1.288236e+003,1.047211e-002
1.290165e+003,1.045058e-002
1.292093e+003,1.043413e-002
1.294022e+003,1.046623e-002
1.295950e+003,1.055970e-002
1.297879e+003,1.064059e-002
1.299807e+003,1.070153e-002
1.301736e+003,1.084322e-002
1.303664e+003,1.100414e-002
1.305593e+003,1.115264e-002
1.307521e+003,1.133491e-002
1.309450e+003,1.153981e-002
1.311378e+003,1.167937e-002
1.313307e+003,1.176981e-002
1.315235e+003,1.180222e-002
1.317164e+003,1.175441e-002
1.319092e+003,1.173995e-002
1.321021e+003,1.172055e-002
1.322949e+003,1.163675e-002
1.324878e+003,1.153528e-002
1.326806e+003,1.144501e-002
1.328735e+003,1.142210e-002
1.330663e+003,1.136847e-002
1.332592e+003,1.132609e-002
1.334520e+003,1.133847e-002
1.336449e+003,1.130645e-002
1.338377e+003,1.123944e-002
1.340306e+003,1.117057e-002
1.342234e+003,1.115349e-002
1.344163e+003,1.111126e-002
1.346091e+003,1.109660e-002
1.348020e+003,1.112607e-002
1.349948e+003,1.117945e-002
1.351877e+003,1.130037e-002
1.353805e+003,1.140774e-002
1.355734e+003,1.148594e-002
1.357662e+003,1.161237e-002
1.359591e+003,1.179748e-002
1.361519e+003,1.195938e-002
1.363448e+003,1.210538e-002
1.365376e+003,1.222191e-002
1.367305e+003,1.227850e-002
1.369233e+003,1.226649e-002
1.371162e+003,1.225081e-002
1.373090e+003,1.220937e-002
1.375019e+003,1.207583e-002
1.376947e+003,1.186762e-002
1.378876e+003,1.165483e-002
1.380804e+003,1.140822e-002
1.382733e+003,1.110625e-002
1.384661e+003,1.079446e-002
1.386590e+003,1.053320e-002
1.388518e+003,1.034631e-002
1.390447e+003,1.022562e-002
1.392375e+003,1.010919e-002
1.394304e+003,9.996604e-003
1.396232e+003,9.928361e-003
1.398161e+003,9.888954e-003
1.400089e+003,9.856807e-003
1.402018e+003,9.879703e-003
1.403946e+003,9.966826e-003
1.405875e+003,1.000287e-002
1.407803e+003,1.003844e-002
1.409732e+003,1.015083e-002
1.411660e+003,1.022546e-002
1.413589e+003,1.025900e-002
1.415517e+003,1.034092e-002
1.417446e+003,1.046237e-002
1.419374e+003,1.057997e-002
1.421303e+003,1.061040e-002
1.423231e+003,1.062188e-002
1.425160e+003,1.063619e-002
1.427088e+003,1.060954e-002
1.429017e+003,1.054295e-002
1.430945e+003,1.044731e-002
1.432874e+003,1.032196e-002
1.434802e+003,1.019940e-002
1.436731e+003,1.007993e-002
1.438659e+003,9.951642e-003
1.440588e+003,9.832780e-003
1.442516e+003,9.771500e-003
1.444445e+003,9.744617e-003
1.446373e+003,9.738213e-003
1.448302e+003,9.707763e-003
1.450230e+003,9.682401e-003
1.452159e+003,9.622249e-003
1.454087e+003,9.560842e-003
1.456016e+003,9.557279e-003
1.457944e+003,9.501007e-003
1.459873e+003,9.444276e-003
1.461801e+003,9.376601e-003
1.463730e+003,9.244668e-003
1.465658e+003,9.077464e-003
1.467587e+003,8.860511e-003
1.469515e+003,8.585345e-003
1.471444e+003,8.233554e-003
1.473372e+003,7.904042e-003
1.475301e+003,7.663165e-003
1.477229e+003,7.475891e-003
1.479158e+003,7.325739e-003
1.481086e+003,7.268829e-003
1.483015e+003,7.247903e-003
1.484943e+003,7.238525e-003
1.486872e+003,7.241045e-003
1.488800e+003,7.295837e-003
1.490729e+003,7.395260e-003
1.492657e+003,7.460375e-003
1.494586e+003,7.580364e-003
1.496514e+003,7.713041e-003
1.498443e+003,7.803373e-003
1.500371e+003,7.870600e-003
1.502300e+003,7.952730e-003
1.504228e+003,8.028701e-003
1.506157e+003,8.119893e-003
1.508085e+003,8.178391e-003
1.510014e+003,8.218345e-003
1.511942e+003,8.283311e-003
1.513871e+003,8.317345e-003
1.515799e+003,8.262462e-003
1.517728e+003,8.141516e-003
1.519656e+003,7.966781e-003
1.521585e+003,7.797786e-003
1.523513e+003,7.655242e-003
1.525442e+003,7.586808e-003
1.527370e+003,7.553915e-003
1.529299e+003,7.532890e-003
1.531227e+003,7.481935e-003
1.533156e+003,7.491139e-003
1.535084e+003,7.502230e-003
1.537013e+003,7.529845e-003
1.538941e+003,7.532363e-003
1.540870e+003,7.493693e-003
1.542798e+003,7.481658e-003
1.544727e+003,7.493451e-003
1.546655e+003,7.484676e-003
1.548584e+003,7.447858e-003
1.550512e+003,7.468016e-003
1.552441e+003,7.491155e-003
1.554369e+003,7.495780e-003
1.556298e+003,7.470819e-003
1.558226e+003,7.464448e-003
1.560155e+003,7.477308e-003
1.562083e+003,7.517111e-003
1.564012e+003,7.557736e-003
1.565940e+003,7.593107e-003
1.567869e+003,7.654367e-003
1.569797e+003,7.730428e-003
1.571726e+003,7.824410e-003
1.573654e+003,7.933421e-003
1.575583e+003,7.963284e-003
1.577511e+003,8.060080e-003
1.579440e+003,8.194685e-003
1.581368e+003,8.364907e-003
1.583297e+003,8.531996e-003
1.585225e+003,8.673239e-003
1.587154e+003,8.783008e-003
1.589082e+003,8.915827e-003
1.591010e+003,9.074038e-003
1.592939e+003,9.206325e-003
1.594868e+003,9.258884e-003
1.596796e+003,9.332439e-003
1.598724e+003,9.433678e-003
1.600653e+003,9.469058e-003
1.602582e+003,9.476908e-003
1.604510e+003,9.517380e-003
1.606438e+003,9.512638e-003
1.608367e+003,9.487596e-003
1.610296e+003,9.453963e-003
1.612224e+003,9.447535e-003
1.614152e+003,9.473335e-003
1.616081e+003,9.566309e-003
1.618010e+003,9.632595e-003
1.619938e+003,9.729302e-003
1.621866e+003,9.835451e-003
1.623795e+003,9.932231e-003
1.625724e+003,1.000364e-002
1.627652e+003,9.999338e-003
1.629580e+003,9.968929e-003
1.631509e+003,9.984861e-003
1.633438e+003,9.936492e-003
1.635366e+003,9.845587e-003
1.637294e+003,9.837336e-003
1.639223e+003,9.816607e-003
1.641151e+003,9.754430e-003
1.643080e+003,9.659854e-003
1.645008e+003,9.650390e-003
1.646937e+003,9.628773e-003
1.648865e+003,9.624282e-003
1.650794e+003,9.583157e-003
1.652722e+003,9.541877e-003
1.654651e+003,9.499647e-003
1.656579e+003,9.440563e-003
1.658508e+003,9.324627e-003
1.660436e+003,9.142925e-003
1.662365e+003,8.995235e-003
1.664293e+003,8.885475e-003
1.666222e+003,8.767878e-003
1.668150e+003,8.643283e-003
1.670079e+003,8.517291e-003
1.672007e+003,8.428103e-003
1.673936e+003,8.306103e-003
1.675864e+003,8.204412e-003
1.677793e+003,8.128515e-003
1.679721e+003,8.053204e-003
1.681650e+003,7.966496e-003
1.683578e+003,7.880143e-003
1.685507e+003,7.827396e-003
1.687435e+003,7.753907e-003
1.689364e+003,7.664889e-003
1.691292e+003,7.647310e-003
1.693221e+003,7.625312e-003
1.695149e+003,7.623474e-003
1.697078e+003,7.636568e-003
1.699006e+003,7.616440e-003
1.700935e+003,7.584334e-003
1.702863e+003,7.594133e-003
1.704792e+003,7.676745e-003
1.706720e+003,7.774333e-003
1.708649e+003,7.841870e-003
1.710577e+003,7.921523e-003
1.712506e+003,8.075112e-003
1.714434e+003,8.222490e-003
1.716363e+003,8.335220e-003
1.718291e+003,8.479572e-003
1.720220e+003,8.661568e-003
1.722148e+003,8.759296e-003
1.724077e+003,8.830945e-003
1.726005e+003,8.903168e-003
1.727934e+003,8.978806e-003
1.729862e+003,9.010577e-003
1.731791e+003,8.951965e-003
1.733719e+003,8.815623e-003
1.735648e+003,8.608934e-003
1.737576e+003,8.382820e-003
1.739505e+003,8.136413e-003
1.741433e+003,7.846241e-003
1.743362e+003,7.536573e-003
1.745290e+003,7.309122e-003
1.747219e+003,7.000915e-003
1.749147e+003,6.703536e-003
1.751076e+003,6.473993e-003
1.753004e+003,6.219276e-003
1.754933e+003,6.093086e-003
1.756861e+003,5.967956e-003
1.758790e+003,5.795419e-003
1.760718e+003,5.626125e-003
1.762647e+003,5.490639e-003
1.764575e+003,5.307552e-003
1.766504e+003,5.220320e-003
1.768432e+003,5.210628e-003
1.770361e+003,5.172746e-003
1.772289e+003,5.210751e-003
1.774218e+003,5.152468e-003
1.776146e+003,5.080751e-003
1.778075e+003,5.083444e-003
1.780003e+003,5.075009e-003
1.781932e+003,5.075984e-003
1.783860e+003,5.074861e-003
1.785789e+003,5.076227e-003
1.787717e+003,5.007328e-003
1.789646e+003,5.032790e-003
1.791574e+003,5.047513e-003
1.793503e+003,5.063353e-003
1.795431e+003,5.091265e-003
1.797360e+003,5.061613e-003
1.799288e+003,4.993849e-003
1.801217e+003,4.966710e-003
1.803145e+003,5.056151e-003
1.805074e+003,5.087506e-003
1.807002e+003,5.053241e-003
1.808931e+003,4.991059e-003
1.810859e+003,4.973460e-003
1.812788e+003,4.994377e-003
1.814716e+003,4.978377e-003
1.816645e+003,4.872820e-003
1.818573e+003,4.708714e-003
1.820502e+003,4.660459e-003
1.822430e+003,4.794054e-003
1.824359e+003,4.818535e-003
1.826287e+003,4.747501e-003
1.828216e+003,4.756582e-003
1.830144e+003,4.733674e-003
1.832073e+003,4.738634e-003
1.834001e+003,4.754256e-003
1.835930e+003,4.619700e-003
1.837858e+003,4.515979e-003
1.839787e+003,4.552282e-003
1.841715e+003,4.710314e-003
1.843644e+003,4.761104e-003
1.845572e+003,4.748580e-003
1.847501e+003,4.644381e-003
1.849429e+003,4.518813e-003
1.851358e+003,4.486522e-003
1.853286e+003,4.417919e-003
1.855215e+003,4.419504e-003
1.857143e+003,4.486764e-003
1.859072e+003,4.678298e-003
1.861000e+003,4.704220e-003
1.862929e+003,4.644145e-003
1.864857e+003,4.483967e-003
1.866786e+003,4.524630e-003
1.868714e+003,4.590908e-003
1.870643e+003,4.656670e-003
1.872571e+003,4.594381e-003
1.874500e+003,4.489680e-003
1.876428e+003,4.501692e-003
1.878357e+003,4.486193e-003
1.880285e+003,4.529691e-003
1.882214e+003,4.517173e-003
1.884142e+003,4.439348e-003
1.886071e+003,4.334194e-003
1.887999e+003,4.542924e-003
1.889928e+003,4.627411e-003
1.891856e+003,4.534904e-003
1.893785e+003,4.352967e-003
1.895713e+003,4.199612e-003
1.897642e+003,4.260596e-003
1.899570e+003,4.348723e-003
1.901499e+003,4.154075e-003
1.903427e+003,4.095609e-003
1.905356e+003,4.140817e-003
1.907284e+003,4.200526e-003
1.909213e+003,4.284973e-003
1.911141e+003,4.205847e-003
1.913070e+003,3.967985e-003
1.914998e+003,4.001311e-003
1.916927e+003,4.038346e-003
1.918855e+003,3.997056e-003
1.920784e+003,3.555750e-003
1.922712e+003,3.466517e-003
1.924641e+003,3.734299e-003
1.926569e+003,3.904576e-003
1.928498e+003,3.997762e-003
1.930426e+003,3.741003e-003
1.932355e+003,3.414356e-003
1.934283e+003,3.242014e-003
1.936212e+003,3.441408e-003
1.938140e+003,3.257168e-003
1.940069e+003,2.487717e-003
1.941997e+003,2.424863e-003
1.943926e+003,2.639285e-003
1.945854e+003,2.567082e-003
1.947783e+003,2.398741e-003
1.949711e+003,2.381477e-003
1.951640e+003,2.612113e-003
1.953568e+003,2.203078e-003
1.955497e+003,1.266128e-003
1.957425e+003,1.176326e-003
1.959354e+003,1.140568e-003
1.961282e+003,5.063473e-004
1.963211e+003,-1.581739e-004
1.965139e+003,-5.330998e-004
1.967068e+003,-1.012490e-003
1.968996e+003,-7.068106e-004
1.970925e+003,-1.094931e-003
1.972853e+003,-1.593636e-003
1.974782e+003,-1.702122e-003
1.976710e+003,-1.721510e-003
1.978639e+003,-1.584684e-003
1.980567e+003,-2.332641e-003
1.982496e+003,-2.032325e-003
1.984424e+003,-7.863877e-004
1.986353e+003,5.303374e-004
1.988281e+003,9.674743e-004
1.990210e+003,1.021679e-003
1.992138e+003,1.266048e-003
1.994067e+003,6.637723e-004
1.995995e+003,5.798589e-004
1.997924e+003,9.120723e-004
1.999852e+003,7.358730e-004
2.001781e+003,3.306450e-004
2.003709e+003,3.366581e-004
2.005638e+003,-5.020239e-004
2.007566e+003,-1.146460e-003
2.009495e+003,-1.318188e-003
2.011423e+003,-1.558611e-003
2.013352e+003,-1.775757e-003
2.015280e+003,-2.211206e-003
2.017208e+003,-2.143854e-003
2.019137e+003,-1.557881e-003
2.021066e+003,-4.378135e-004
2.022994e+003,-6.499825e-004
2.024922e+003,-1.766258e-003
2.026851e+003,-1.195844e-003
2.028780e+003,-1.136070e-003
2.030708e+003,-1.731767e-003
2.032636e+003,-2.206681e-003
2.034565e+003,-1.140311e-003
2.036494e+003,-6.537949e-004
2.038422e+003,-7.467662e-004
2.040350e+003,-2.167000e-004
2.042279e+003,2.179465e-004
2.044208e+003,-8.137843e-005
2.046136e+003,-1.205890e-005
2.048064e+003,5.334379e-004
2.049993e+003,1.158854e-003
2.051921e+003,2.145117e-003
2.053850e+003,2.343039e-003
2.055778e+003,2.325422e-003
2.057707e+003,2.280260e-003
2.059635e+003,2.167130e-003
2.061564e+003,1.972245e-003
2.063492e+003,2.176613e-003
2.065421e+003,3.019939e-003
2.067349e+003,3.081603e-003
2.069278e+003,2.899744e-003
2.071206e+003,2.980659e-003
2.073135e+003,3.160645e-003
2.075063e+003,3.125221e-003
2.076992e+003,2.976049e-003
2.078920e+003,3.517448e-003
2.080849e+003,3.934163e-003
2.082777e+003,3.955798e-003
2.084706e+003,3.971714e-003
2.086634e+003,4.027577e-003
2.088563e+003,3.870852e-003
2.090491e+003,3.956053e-003
2.092420e+003,4.272749e-003
2.094348e+003,4.086696e-003
2.096277e+003,3.775406e-003
2.098205e+003,3.717735e-003
2.100134e+003,3.823485e-003
2.102062e+003,4.135103e-003
2.103991e+003,4.356873e-003
2.105919e+003,4.109849e-003
2.107848e+003,3.965473e-003
2.109776e+003,4.278732e-003
2.111705e+003,4.326619e-003
2.113633e+003,4.540016e-003
2.115562e+003,4.667033e-003
2.117490e+003,4.509682e-003
2.119419e+003,4.215193e-003
2.121347e+003,4.266653e-003
2.123276e+003,4.408217e-003
2.125204e+003,4.414442e-003
2.127133e+003,4.516479e-003
2.129061e+003,4.086636e-003
2.130990e+003,3.527055e-003
2.132918e+003,3.441248e-003
2.134847e+003,3.466698e-003
2.136775e+003,3.261639e-003
2.138704e+003,2.931132e-003
2.140632e+003,2.479027e-003
2.142561e+003,1.856453e-003
2.144489e+003,1.868000e-003
2.146418e+003,1.566483e-003
2.148346e+003,1.036476e-003
2.150275e+003,3.983544e-004
2.152203e+003,1.151229e-004
2.154132e+003,-2.736785e-005
2.156060e+003,-1.474972e-003
2.157989e+003,-3.525592e-003
2.159917e+003,-4.105687e-003
2.161846e+003,-2.366139e-003
2.163774e+003,-9.210105e-004
2.165703e+003,-6.197274e-004
2.167631e+003,-7.187449e-004
2.169560e+003,-6.497099e-005
2.171488e+003,7.050679e-004
2.173417e+003,8.407280e-004
2.175345e+003,1.027907e-003
2.177274e+003,8.166599e-004
2.179202e+003,7.183433e-004
2.181131e+003,1.006618e-003
2.183059e+003,1.398219e-003
2.184988e+003,1.659803e-003
2.186916e+003,1.199284e-003
2.188845e+003,9.927362e-004
2.190773e+003,2.020435e-003
2.192702e+003,2.202362e-003
2.194630e+003,1.919749e-003
2.196559e+003,1.610879e-003
2.198487e+003,2.078328e-003
2.200416e+003,2.297950e-003
2.202344e+003,2.364142e-003
2.204273e+003,2.772341e-003
2.206201e+003,2.696285e-003
2.208130e+003,2.949946e-003
2.210058e+003,2.962957e-003
2.211987e+003,2.572310e-003
2.213915e+003,2.267306e-003
2.215844e+003,2.437908e-003
2.217772e+003,2.899242e-003
2.219701e+003,3.343003e-003
2.221629e+003,3.139672e-003
2.223558e+003,3.576563e-003
2.225486e+003,3.649198e-003
2.227415e+003,3.200518e-003
2.229343e+003,3.286344e-003
2.231272e+003,3.416420e-003
2.233200e+003,3.503472e-003
2.235129e+003,3.948600e-003
2.237057e+003,4.032681e-003
2.238986e+003,3.929604e-003
2.240914e+003,4.169363e-003
2.242843e+003,4.096942e-003
2.244771e+003,3.997153e-003
2.246700e+003,4.164455e-003
2.248628e+003,4.274911e-003
2.250557e+003,4.202100e-003
2.252485e+003,4.144160e-003
2.254414e+003,4.173451e-003
2.256342e+003,4.380977e-003
2.258271e+003,4.322874e-003
2.260199e+003,4.247410e-003
2.262128e+003,4.316004e-003
2.264056e+003,4.508190e-003
2.265985e+003,4.721077e-003
2.267913e+003,4.619040e-003
2.269842e+003,4.844463e-003
2.271770e+003,5.257048e-003
2.273699e+003,5.437118e-003
2.275627e+003,5.315199e-003
2.277556e+003,5.294619e-003
2.279484e+003,5.321309e-003
2.281413e+003,5.368980e-003
2.283341e+003,5.331034e-003
2.285270e+003,5.304744e-003
2.287198e+003,5.440869e-003
2.289127e+003,5.603348e-003
2.291055e+003,5.604726e-003
2.292984e+003,5.577096e-003
2.294912e+003,5.727333e-003
2.296841e+003,5.964392e-003
2.298769e+003,5.863918e-003
2.300698e+003,5.852882e-003
2.302626e+003,5.869751e-003
2.304555e+003,5.917437e-003
2.306483e+003,5.911643e-003
2.308412e+003,5.814681e-003
2.310340e+003,5.665294e-003
2.312269e+003,5.696965e-003
2.314197e+003,5.843257e-003
2.316125e+003,5.926233e-003
2.318054e+003,5.908005e-003
2.319983e+003,6.144168e-003
2.321911e+003,6.316296e-003
2.323840e+003,6.193948e-003
2.325768e+003,6.091006e-003
2.327697e+003,6.251356e-003
2.329625e+003,6.166324e-003
2.331553e+003,5.922424e-003
2.333482e+003,6.090822e-003
2.335411e+003,6.010865e-003
2.337339e+003,5.823022e-003
2.339268e+003,5.869925e-003
2.341196e+003,5.988087e-003
2.343125e+003,5.993513e-003
2.345053e+003,5.835410e-003
2.346981e+003,5.717787e-003
2.348910e+003,5.704278e-003
2.350839e+003,5.587919e-003
2.352767e+003,5.501724e-003
2.354696e+003,5.613609e-003
2.356624e+003,5.575315e-003
2.358552e+003,5.597962e-003
2.360481e+003,5.693166e-003
2.362409e+003,5.814791e-003
2.364338e+003,5.723756e-003
2.366267e+003,5.711053e-003
2.368195e+003,5.730963e-003
2.370124e+003,5.832943e-003
2.372052e+003,6.060437e-003
2.373980e+003,6.046109e-003
2.375909e+003,6.088655e-003
2.377838e+003,6.093174e-003
2.379766e+003,6.020408e-003
2.381695e+003,6.030739e-003
2.383623e+003,6.048631e-003
2.385552e+003,6.096344e-003
2.387480e+003,6.039741e-003
2.389408e+003,6.031263e-003
2.391337e+003,6.117113e-003
2.393266e+003,6.037848e-003
2.395194e+003,5.956682e-003
2.397123e+003,5.947061e-003
2.399051e+003,5.867331e-003
2.400979e+003,5.824820e-003
2.402908e+003,5.762598e-003
2.404836e+003,5.752794e-003
2.406765e+003,5.907572e-003
2.408694e+003,5.929842e-003
2.410622e+003,5.984999e-003
2.412551e+003,6.026490e-003
2.414479e+003,6.063683e-003
2.416407e+003,5.947342e-003
2.418336e+003,5.908949e-003
2.420264e+003,5.848663e-003
2.422193e+003,5.699310e-003
2.424122e+003,5.815854e-003
2.426050e+003,5.945192e-003
2.427979e+003,5.907068e-003
2.429907e+003,5.895011e-003
2.431835e+003,5.935754e-003
2.433764e+003,5.974955e-003
2.435692e+003,6.056022e-003
2.437621e+003,5.930110e-003
2.439550e+003,5.776868e-003
2.441478e+003,5.697195e-003
2.443406e+003,5.625124e-003
2.445335e+003,5.662987e-003
2.447263e+003,5.606193e-003
2.449192e+003,5.584175e-003
2.451121e+003,5.701191e-003
2.453049e+003,5.675207e-003
2.454978e+003,5.629185e-003
2.456906e+003,5.677691e-003
2.458834e+003,5.810984e-003
2.460763e+003,5.724154e-003
2.462691e+003,5.746213e-003
2.464620e+003,5.781670e-003
2.466549e+003,5.703440e-003
2.468477e+003,5.738524e-003
2.470406e+003,5.697598e-003
2.472334e+003,5.645431e-003
2.474262e+003,5.714015e-003
2.476191e+003,5.745374e-003
2.478119e+003,5.720226e-003
2.480048e+003,5.660470e-003
2.481977e+003,5.722375e-003
2.483905e+003,5.713377e-003
2.485833e+003,5.741579e-003
2.487762e+003,5.674401e-003
2.489690e+003,5.572394e-003
2.491619e+003,5.602937e-003
2.493547e+003,5.577529e-003
2.495476e+003,5.581423e-003
2.497405e+003,5.473700e-003
2.499333e+003,5.473969e-003
2.501261e+003,5.505477e-003
2.503190e+003,5.390997e-003
2.505118e+003,5.415990e-003
2.507047e+003,5.602366e-003
2.508975e+003,5.599681e-003
2.510904e+003,5.613275e-003
2.512833e+003,5.705521e-003
2.514761e+003,5.665069e-003
2.516689e+003,5.671883e-003
2.518618e+003,5.668728e-003
2.520546e+003,5.732951e-003
2.522475e+003,5.796411e-003
2.524403e+003,5.740505e-003
2.526332e+003,5.759778e-003
2.528260e+003,5.868277e-003
2.530189e+003,5.750276e-003
2.532117e+003,5.646271e-003
2.534046e+003,5.689306e-003
2.535974e+003,5.718883e-003
2.537903e+003,5.861929e-003
2.539831e+003,5.861224e-003
2.541760e+003,5.779185e-003
2.543688e+003,5.759576e-003
2.545617e+003,5.750544e-003
2.547545e+003,5.792516e-003
2.549474e+003,5.742150e-003
2.551402e+003,5.734529e-003
2.553331e+003,5.875027e-003
2.555259e+003,5.848361e-003
2.557188e+003,5.845103e-003
2.559116e+003,5.809977e-003
2.561045e+003,5.715089e-003
2.562973e+003,5.754909e-003
2.564902e+003,5.828245e-003
2.566830e+003,5.840368e-003
2.568759e+003,5.882584e-003
2.570687e+003,5.879863e-003
2.572616e+003,5.875632e-003
2.574544e+003,6.004383e-003
2.576473e+003,6.000150e-003
2.578401e+003,5.947409e-003
2.580330e+003,5.946334e-003
2.582258e+003,5.926919e-003
2.584187e+003,5.975761e-003
2.586115e+003,5.979658e-003
2.588044e+003,5.877143e-003
2.589972e+003,5.916876e-003
2.591901e+003,5.874926e-003
2.593829e+003,5.824383e-003
2.595758e+003,5.813973e-003
2.597686e+003,5.913853e-003
2.599615e+003,5.958730e-003
2.601543e+003,5.940960e-003
2.603472e+003,5.918757e-003
2.605400e+003,5.953825e-003
2.607329e+003,6.040601e-003
2.609257e+003,6.057198e-003
2.611186e+003,6.047085e-003
2.613114e+003,6.121882e-003
2.615043e+003,6.124268e-003
2.616971e+003,6.153706e-003
2.618900e+003,6.265195e-003
2.620828e+003,6.192995e-003
2.622757e+003,6.165671e-003
2.624685e+003,6.197297e-003
2.626614e+003,6.241429e-003
2.628542e+003,6.299282e-003
2.630471e+003,6.382663e-003
2.632399e+003,6.382361e-003
2.634328e+003,6.396113e-003
2.636256e+003,6.401998e-003
2.638185e+003,6.443125e-003
2.640113e+003,6.503325e-003
2.642042e+003,6.513483e-003
2.643970e+003,6.503796e-003
2.645899e+003,6.538104e-003
2.647827e+003,6.656958e-003
2.649756e+003,6.710526e-003
2.651684e+003,6.735562e-003
2.653613e+003,6.739028e-003
2.655541e+003,6.774937e-003
2.657470e+003,6.853192e-003
2.659398e+003,6.900488e-003
2.661327e+003,6.858881e-003
2.663255e+003,6.846493e-003
2.665184e+003,6.921900e-003
2.667112e+003,6.946477e-003
2.669041e+003,6.956005e-003
2.670969e+003,6.957789e-003
2.672898e+003,6.906952e-003
2.674826e+003,6.876890e-003
2.676755e+003,6.881636e-003
2.678683e+003,6.843632e-003
2.680612e+003,6.892240e-003
2.682540e+003,6.928128e-003
2.684469e+003,6.935535e-003
2.686397e+003,6.940551e-003
2.688326e+003,7.002268e-003
2.690254e+003,7.027827e-003
2.692183e+003,6.986207e-003
2.694111e+003,6.983378e-003
2.696040e+003,6.997184e-003
2.697968e+003,6.964759e-003
2.699897e+003,6.963513e-003
2.701825e+003,6.957890e-003
2.703754e+003,6.942807e-003
2.705682e+003,6.943480e-003
2.707611e+003,6.945971e-003
2.709539e+003,6.927185e-003
2.711468e+003,6.948429e-003
2.713396e+003,6.947285e-003
2.715325e+003,6.977486e-003
2.717253e+003,6.978429e-003
2.719182e+003,6.972671e-003
2.721110e+003,6.968766e-003
2.723039e+003,6.984490e-003
2.724967e+003,6.974388e-003
2.726896e+003,6.946510e-003
2.728824e+003,6.892981e-003
2.730753e+003,6.928430e-003
2.732681e+003,6.947419e-003
2.734610e+003,6.923650e-003
2.736538e+003,6.917590e-003
2.738467e+003,6.929946e-003
2.740395e+003,6.968597e-003
2.742324e+003,6.955769e-003
2.744252e+003,6.911665e-003
2.746181e+003,6.925703e-003
2.748109e+003,6.931797e-003
2.750038e+003,6.950921e-003
2.751966e+003,6.965533e-003
2.753895e+003,7.003076e-003
2.755823e+003,6.990584e-003
2.757752e+003,6.955432e-003
2.759680e+003,6.985668e-003
2.761609e+003,7.017388e-003
2.763537e+003,6.970752e-003
2.765466e+003,6.985567e-003
2.767394e+003,7.022135e-003
2.769323e+003,7.037458e-003
2.771251e+003,7.026917e-003
2.773180e+003,7.041533e-003
2.775108e+003,7.017286e-003
2.777037e+003,7.067463e-003
2.778965e+003,7.112190e-003
2.780894e+003,7.069181e-003
2.782822e+003,7.048941e-003
2.784750e+003,7.063489e-003
2.786679e+003,7.134655e-003
2.788608e+003,7.172112e-003
2.790536e+003,7.160592e-003
2.792465e+003,7.149544e-003
2.794393e+003,7.157358e-003
2.796322e+003,7.134150e-003
2.798250e+003,7.172719e-003
2.800178e+003,7.189461e-003
2.802107e+003,7.211998e-003
2.804036e+003,7.226518e-003
2.805964e+003,7.238411e-003
2.807893e+003,7.322478e-003
2.809821e+003,7.321838e-003
2.811750e+003,7.271430e-003
2.813678e+003,7.330364e-003
2.815606e+003,7.397664e-003
2.817535e+003,7.390653e-003
2.819464e+003,7.412022e-003
2.821392e+003,7.416909e-003
2.823321e+003,7.444008e-003
2.825249e+003,7.495144e-003
2.827177e+003,7.565740e-003
2.829106e+003,7.642486e-003
2.831034e+003,7.627143e-003
2.832963e+003,7.592748e-003
2.834892e+003,7.684236e-003
2.836820e+003,7.799626e-003
2.838749e+003,7.867978e-003
2.840677e+003,7.897197e-003
2.842605e+003,7.960569e-003
2.844534e+003,8.083764e-003
2.846462e+003,8.200441e-003
2.848391e+003,8.321812e-003
2.850320e+003,8.393489e-003
2.852248e+003,8.472239e-003
2.854177e+003,8.499506e-003
2.856105e+003,8.478523e-003
2.858033e+003,8.425582e-003
2.859962e+003,8.444129e-003
2.861890e+003,8.465786e-003
2.863819e+003,8.435109e-003
2.865748e+003,8.418589e-003
2.867676e+003,8.458286e-003
2.869604e+003,8.470144e-003
2.871533e+003,8.482307e-003
2.873461e+003,8.455075e-003
2.875390e+003,8.440886e-003
2.877319e+003,8.490180e-003
2.879247e+003,8.502580e-003
2.881176e+003,8.518124e-003
2.883104e+003,8.471022e-003
2.885032e+003,8.470549e-003
2.886961e+003,8.444501e-003
2.888889e+003,8.528497e-003
2.890818e+003,8.646411e-003
2.892747e+003,8.636879e-003
2.894675e+003,8.667131e-003
2.896604e+003,8.698636e-003
2.898532e+003,8.650636e-003
2.900460e+003,8.658579e-003
2.902389e+003,8.716214e-003
2.904317e+003,8.686365e-003
2.906246e+003,8.660742e-003
2.908175e+003,8.693633e-003
2.910103e+003,8.701069e-003
2.912031e+003,8.723719e-003
2.913960e+003,8.753233e-003
2.915888e+003,8.783594e-003
2.917817e+003,8.776088e-003
2.919745e+003,8.769765e-003
2.921674e+003,8.796442e-003
2.923603e+003,8.734098e-003
2.925531e+003,8.647763e-003
2.927459e+003,8.669700e-003
2.929388e+003,8.640800e-003
2.931316e+003,8.526639e-003
2.933245e+003,8.438521e-003
2.935173e+003,8.391605e-003
2.937102e+003,8.287169e-003
2.939031e+003,8.202950e-003
2.940959e+003,8.154870e-003
2.942887e+003,8.089354e-003
2.944816e+003,7.971642e-003
2.946744e+003,7.893793e-003
2.948673e+003,7.807781e-003
2.950601e+003,7.692426e-003
2.952530e+003,7.605711e-003
2.954458e+003,7.586869e-003
2.956387e+003,7.504886e-003
2.958315e+003,7.400600e-003
2.960244e+003,7.398392e-003
2.962172e+003,7.388933e-003
2.964101e+003,7.323339e-003
2.966029e+003,7.245059e-003
2.967958e+003,7.154327e-003
2.969886e+003,7.103155e-003
2.971815e+003,7.115938e-003
2.973743e+003,7.173899e-003
2.975672e+003,7.182054e-003
2.977600e+003,7.152587e-003
2.979529e+003,7.094694e-003
2.981457e+003,7.062322e-003
2.983386e+003,7.008055e-003
2.985314e+003,6.909558e-003
2.987243e+003,6.888588e-003
2.989171e+003,6.893057e-003
2.991100e+003,6.928270e-003
2.993028e+003,6.966475e-003
2.994957e+003,6.916195e-003
2.996885e+003,6.873440e-003
2.998814e+003,6.891190e-003
3.000742e+003,6.903309e-003
3.002671e+003,6.942539e-003
3.004599e+003,6.973413e-003
3.006528e+003,6.954029e-003
3.008456e+003,6.907855e-003
3.010385e+003,6.970933e-003
3.012313e+003,6.985439e-003
3.014242e+003,6.992052e-003
3.016170e+003,6.990599e-003
3.018099e+003,7.003065e-003
3.020027e+003,6.967237e-003
3.021956e+003,6.953429e-003
3.023884e+003,7.017515e-003
3.025813e+003,7.082238e-003
3.027741e+003,7.062178e-003
3.029670e+003,7.050001e-003
3.031598e+003,7.025720e-003
3.033527e+003,7.016534e-003
3.035455e+003,6.966121e-003
3.037384e+003,7.038613e-003
3.039312e+003,7.105436e-003
3.041241e+003,7.148473e-003
3.043169e+003,7.188647e-003
3.045098e+003,7.150432e-003
3.047026e+003,7.138882e-003
3.048955e+003,7.171838e-003
3.050883e+003,7.262832e-003
3.052812e+003,7.229984e-003
3.054740e+003,7.195859e-003
3.056669e+003,7.277281e-003
3.058597e+003,7.412549e-003
3.060526e+003,7.371737e-003
3.062454e+003,7.347641e-003
3.064383e+003,7.354795e-003
3.066311e+003,7.330867e-003
3.068240e+003,7.339798e-003
3.070168e+003,7.431677e-003
3.072097e+003,7.422303e-003
3.074025e+003,7.380467e-003
3.075954e+003,7.365817e-003
3.077882e+003,7.435512e-003
3.079811e+003,7.460809e-003
3.081739e+003,7.510581e-003
3.083668e+003,7.579723e-003
3.085596e+003,7.587196e-003
3.087525e+003,7.557173e-003
3.089453e+003,7.583115e-003
3.091382e+003,7.647926e-003
3.093310e+003,7.621991e-003
3.095239e+003,7.639509e-003
3.097167e+003,7.608582e-003
3.099096e+003,7.620733e-003
3.101024e+003,7.710877e-003
3.102953e+003,7.677774e-003
3.104881e+003,7.670957e-003
3.106810e+003,7.697055e-003
3.108738e+003,7.652779e-003
3.110667e+003,7.790267e-003
3.112595e+003,7.927460e-003
3.114524e+003,7.892030e-003
3.116452e+003,7.819448e-003
3.118381e+003,7.818881e-003
3.120309e+003,7.900787e-003
3.122238e+003,7.926608e-003
3.124166e+003,7.973772e-003
3.126095e+003,7.982758e-003
3.128023e+003,7.977970e-003
3.129952e+003,8.038954e-003
3.131880e+003,8.138346e-003
3.133809e+003,8.152745e-003
3.135737e+003,8.169805e-003
3.137666e+003,8.195539e-003
3.139594e+003,8.225980e-003
3.141523e+003,8.238425e-003
3.143451e+003,8.217638e-003
3.145380e+003,8.265941e-003
3.147308e+003,8.341158e-003
3.149237e+003,8.434313e-003
3.151165e+003,8.405017e-003
3.153094e+003,8.403157e-003
3.155022e+003,8.436472e-003
3.156951e+003,8.476785e-003
3.158879e+003,8.544544e-003
3.160808e+003,8.512628e-003
3.162736e+003,8.533939e-003
3.164665e+003,8.622050e-003
3.166593e+003,8.685627e-003
3.168522e+003,8.710477e-003
3.170450e+003,8.730853e-003
3.172379e+003,8.705752e-003
3.174307e+003,8.701826e-003
3.176236e+003,8.770232e-003
3.178164e+003,8.824904e-003
3.180093e+003,8.858766e-003
3.182021e+003,8.842744e-003
3.183950e+003,8.868948e-003
3.185878e+003,8.944557e-003
3.187807e+003,9.082976e-003
3.189735e+003,9.088675e-003
3.191664e+003,9.056828e-003
3.193592e+003,9.060941e-003
3.195521e+003,9.083679e-003
3.197449e+003,9.125634e-003
3.199378e+003,9.197080e-003
3.201306e+003,9.265447e-003
3.203235e+003,9.315607e-003
3.205163e+003,9.368466e-003
3.207092e+003,9.387685e-003
3.209020e+003,9.454621e-003
3.210948e+003,9.497910e-003
3.212877e+003,9.530731e-003
3.214806e+003,9.499539e-003
3.216734e+003,9.516394e-003
3.218663e+003,9.572561e-003
3.220591e+003,9.571044e-003
3.222520e+003,9.601159e-003
3.224448e+003,9.682269e-003
3.226376e+003,9.815044e-003
3.228305e+003,9.800043e-003
3.230234e+003,9.840843e-003
3.232162e+003,9.900948e-003
3.234091e+003,9.887730e-003
3.236019e+003,9.905005e-003
3.237948e+003,9.982506e-003
3.239876e+003,1.001667e-002
3.241804e+003,1.004825e-002
3.243733e+003,1.009271e-002
3.245662e+003,1.014268e-002
3.247590e+003,1.025612e-002
3.249519e+003,1.032743e-002
3.251447e+003,1.032481e-002
3.253375e+003,1.033675e-002
3.255304e+003,1.035050e-002
3.257232e+003,1.034650e-002
3.259161e+003,1.041754e-002
3.261090e+003,1.054140e-002
3.263018e+003,1.060452e-002
3.264947e+003,1.058633e-002
3.266875e+003,1.057730e-002
3.268803e+003,1.062211e-002
3.270732e+003,1.071437e-002
3.272660e+003,1.078422e-002
3.274589e+003,1.076279e-002
3.276518e+003,1.065623e-002
3.278446e+003,1.069922e-002
3.280375e+003,1.079636e-002
3.282303e+003,1.085506e-002
3.284231e+003,1.080040e-002
3.286160e+003,1.080973e-002
3.288088e+003,1.084497e-002
3.290017e+003,1.087867e-002
3.291946e+003,1.088299e-002
3.293874e+003,1.086288e-002
3.295802e+003,1.082004e-002
3.297731e+003,1.086285e-002
3.299659e+003,1.088927e-002
3.301588e+003,1.088495e-002
3.303516e+003,1.094695e-002
3.305445e+003,1.102731e-002
3.307374e+003,1.100005e-002
3.309302e+003,1.094357e-002
3.311230e+003,1.095410e-002
3.313159e+003,1.102494e-002
3.315087e+003,1.099059e-002
3.317016e+003,1.104839e-002
3.318944e+003,1.104656e-002
3.320873e+003,1.095677e-002
3.322802e+003,1.094552e-002
3.324730e+003,1.106096e-002
3.326658e+003,1.107747e-002
3.328587e+003,1.110007e-002
3.330515e+003,1.115987e-002
3.332444e+003,1.116326e-002
3.334372e+003,1.109213e-002
3.336301e+003,1.111354e-002
3.338229e+003,1.112912e-002
3.340158e+003,1.118504e-002
3.342086e+003,1.111439e-002
3.344015e+003,1.101662e-002
3.345943e+003,1.102761e-002
3.347872e+003,1.105618e-002
3.349800e+003,1.102510e-002
3.351729e+003,1.102216e-002
3.353657e+003,1.100068e-002
3.355586e+003,1.097866e-002
3.357514e+003,1.096538e-002
3.359443e+003,1.093878e-002
3.361371e+003,1.091652e-002
3.363300e+003,1.094531e-002
3.365229e+003,1.093467e-002
3.367157e+003,1.091329e-002
3.369085e+003,1.085030e-002
3.371014e+003,1.082080e-002
3.372942e+003,1.079486e-002
3.374871e+003,1.076274e-002
3.376799e+003,1.076528e-002
3.378728e+003,1.077768e-002
3.380656e+003,1.074884e-002
3.382585e+003,1.077709e-002
3.384513e+003,1.081068e-002
3.386442e+003,1.077411e-002
3.388370e+003,1.066196e-002
3.390299e+003,1.057396e-002
3.392227e+003,1.055479e-002
3.394156e+003,1.057677e-002
3.396084e+003,1.049079e-002
3.398013e+003,1.048383e-002
3.399941e+003,1.047431e-002
3.401870e+003,1.043519e-002
3.403798e+003,1.030528e-002
3.405727e+003,1.020803e-002
3.407655e+003,1.019231e-002
3.409584e+003,1.013024e-002
3.411512e+003,1.007723e-002
3.413441e+003,1.008049e-002
3.415369e+003,1.001148e-002
3.417298e+003,1.003751e-002
3.419226e+003,9.915161e-003
3.421155e+003,9.871353e-003
3.423083e+003,9.899827e-003
3.425012e+003,9.829667e-003
3.426940e+003,9.787387e-003
3.428869e+003,9.726717e-003
3.430797e+003,9.652955e-003
3.432726e+003,9.540106e-003
3.434654e+003,9.529178e-003
3.436583e+003,9.462660e-003
3.438511e+003,9.389585e-003
3.440440e+003,9.379938e-003
3.442368e+003,9.318822e-003
3.444297e+003,9.237841e-003
3.446225e+003,9.167215e-003
3.448154e+003,9.107129e-003
3.450082e+003,9.047608e-003
3.452011e+003,8.906739e-003
3.453939e+003,8.882689e-003
3.455868e+003,8.826936e-003
3.457796e+003,8.771307e-003
3.459725e+003,8.685582e-003
3.461653e+003,8.565273e-003
3.463582e+003,8.449945e-003
3.465510e+003,8.443113e-003
3.467439e+003,8.384299e-003
3.469367e+003,8.357954e-003
3.471296e+003,8.338017e-003
3.473224e+003,8.179194e-003
3.475153e+003,8.097040e-003
3.477081e+003,8.027470e-003
3.479010e+003,8.012036e-003
3.480938e+003,8.047105e-003
3.482867e+003,8.057005e-003
3.484795e+003,8.027931e-003
3.486724e+003,7.948607e-003
3.488652e+003,7.878751e-003
3.490581e+003,7.780506e-003
3.492509e+003,7.704820e-003
3.494438e+003,7.735369e-003
3.496366e+003,7.628238e-003
3.498295e+003,7.583308e-003
3.500223e+003,7.550639e-003
3.502152e+003,7.407055e-003
3.504080e+003,7.362789e-003
3.506009e+003,7.314691e-003
3.507937e+003,7.275149e-003
3.509866e+003,7.233238e-003
3.511794e+003,7.135881e-003
3.513723e+003,7.143448e-003
3.515651e+003,7.177050e-003
3.517580e+003,7.203627e-003
3.519508e+003,7.105285e-003
3.521437e+003,6.992686e-003
3.523365e+003,7.001755e-003
3.525294e+003,6.988996e-003
3.527222e+003,6.929080e-003
3.529151e+003,6.876896e-003
3.531079e+003,6.826223e-003
3.533008e+003,6.698577e-003
3.534936e+003,6.603945e-003
3.536865e+003,6.588591e-003
3.538793e+003,6.484343e-003
3.540722e+003,6.418178e-003
3.542650e+003,6.475808e-003
3.544579e+003,6.487805e-003
3.546507e+003,6.424505e-003
3.548436e+003,6.430109e-003
3.550364e+003,6.347389e-003
3.552293e+003,6.246940e-003
3.554221e+003,6.211763e-003
3.556150e+003,6.148671e-003
3.558078e+003,6.187113e-003
3.560007e+003,6.258597e-003
3.561935e+003,6.204714e-003
3.563864e+003,6.099442e-003
3.565792e+003,6.061645e-003
3.567721e+003,6.080155e-003
3.569649e+003,5.952582e-003
3.571578e+003,5.792333e-003
3.573506e+003,5.833932e-003
3.575435e+003,5.739996e-003
3.577363e+003,5.686393e-003
3.579292e+003,5.625942e-003
3.581220e+003,5.586781e-003
3.583149e+003,5.575910e-003
3.585077e+003,5.673646e-003
3.587006e+003,5.738557e-003
3.588934e+003,5.752579e-003
3.590863e+003,5.741533e-003
3.592791e+003,5.717188e-003
3.594720e+003,5.687337e-003
3.596648e+003,5.658217e-003
3.598577e+003,5.683220e-003
3.600505e+003,5.674812e-003
3.602434e+003,5.573820e-003
3.604362e+003,5.488268e-003
3.606291e+003,5.335222e-003
3.608219e+003,5.266380e-003
3.610148e+003,5.190020e-003
3.612076e+003,5.099420e-003
3.614005e+003,5.151070e-003
3.615933e+003,5.134400e-003
3.617862e+003,5.159801e-003
3.619790e+003,5.304658e-003
3.621719e+003,5.323648e-003
3.623647e+003,5.316457e-003
3.625576e+003,5.222139e-003
3.627504e+003,5.219464e-003
3.629433e+003,5.166922e-003
3.631361e+003,5.125317e-003
3.633290e+003,5.082911e-003
3.635218e+003,5.004829e-003
3.637146e+003,4.907330e-003
3.639075e+003,4.777017e-003
3.641004e+003,4.761005e-003
3.642932e+003,4.771868e-003
3.644861e+003,4.739323e-003
3.646789e+003,4.703389e-003
3.648718e+003,4.712638e-003
3.650646e+003,4.676301e-003
3.652574e+003,4.735210e-003
3.654503e+003,4.787567e-003
3.656432e+003,4.694513e-003
3.658360e+003,4.671416e-003
3.660289e+003,4.653019e-003
3.662217e+003,4.654335e-003
3.664146e+003,4.717156e-003
3.666074e+003,4.669779e-003
3.668002e+003,4.542608e-003
3.669931e+003,4.474162e-003
3.671860e+003,4.440374e-003
3.673788e+003,4.417609e-003
3.675717e+003,4.530561e-003
3.677645e+003,4.605519e-003
3.679573e+003,4.650154e-003
3.681502e+003,4.628038e-003
3.683430e+003,4.696591e-003
3.685359e+003,4.738218e-003
3.687288e+003,4.670332e-003
3.689216e+003,4.734027e-003
3.691145e+003,4.775785e-003
3.693073e+003,4.923477e-003
3.695001e+003,4.970910e-003
3.696930e+003,5.089046e-003
3.698858e+003,5.097479e-003
3.700787e+003,5.026931e-003
3.702716e+003,5.038660e-003
3.704644e+003,5.021561e-003
3.706573e+003,4.915751e-003
3.708501e+003,4.885310e-003
3.710429e+003,4.972492e-003
3.712358e+003,4.805865e-003
3.714286e+003,4.583579e-003
3.716215e+003,4.605609e-003
3.718144e+003,4.820586e-003
3.720072e+003,4.999791e-003
3.722000e+003,5.105944e-003
3.723929e+003,5.117791e-003
3.725857e+003,5.144343e-003
3.727786e+003,5.242971e-003
3.729714e+003,5.164870e-003
3.731643e+003,5.150269e-003
3.733572e+003,5.128196e-003
3.735500e+003,5.070795e-003
3.737428e+003,4.957480e-003
3.739357e+003,4.913480e-003
3.741285e+003,4.884462e-003
3.743214e+003,4.775004e-003
3.745142e+003,4.658129e-003
3.747071e+003,4.593303e-003
3.749000e+003,4.627741e-003
3.750928e+003,4.650383e-003
3.752856e+003,4.663857e-003
3.754785e+003,4.635600e-003
3.756713e+003,4.668665e-003
3.758642e+003,4.674301e-003
3.760570e+003,4.607071e-003
3.762499e+003,4.578274e-003
3.764427e+003,4.663943e-003
3.766356e+003,4.726978e-003
3.768284e+003,4.701710e-003
3.770213e+003,4.672690e-003
3.772141e+003,4.739103e-003
3.774070e+003,4.771227e-003
3.775998e+003,4.740351e-003
3.777927e+003,4.784564e-003
3.779855e+003,4.821348e-003
3.781784e+003,4.778965e-003
3.783712e+003,4.783074e-003
3.785641e+003,4.716645e-003
3.787569e+003,4.743640e-003
3.789498e+003,4.748016e-003
3.791426e+003,4.788194e-003
3.793355e+003,4.782412e-003
3.795283e+003,4.835432e-003
3.797212e+003,4.910367e-003
3.799140e+003,4.855075e-003
3.801069e+003,4.786024e-003
3.802997e+003,4.764964e-003
3.804926e+003,4.815505e-003
3.806854e+003,4.900624e-003
3.808783e+003,4.874561e-003
3.810711e+003,4.817357e-003
3.812640e+003,4.802480e-003
3.814568e+003,4.856267e-003
3.816497e+003,4.881874e-003
3.818425e+003,4.901182e-003
3.820354e+003,4.893031e-003
3.822282e+003,4.952164e-003
3.824211e+003,4.957617e-003
3.826139e+003,4.923505e-003
3.828068e+003,4.921634e-003
3.829996e+003,4.970225e-003
3.831925e+003,4.948305e-003
3.833853e+003,4.855983e-003
3.835782e+003,4.848116e-003
3.837710e+003,4.872609e-003
3.839639e+003,4.906250e-003
3.841567e+003,4.896313e-003
3.843496e+003,4.919487e-003
3.845424e+003,4.912110e-003
3.847353e+003,4.903609e-003
3.849281e+003,4.911073e-003
3.851210e+003,4.940738e-003
3.853138e+003,4.955632e-003
3.855067e+003,5.004045e-003
3.856995e+003,5.009641e-003
3.858924e+003,4.964819e-003
3.860852e+003,4.954804e-003
3.862781e+003,4.916988e-003
3.864709e+003,4.869675e-003
3.866638e+003,4.952080e-003
3.868566e+003,5.040838e-003
3.870495e+003,5.008761e-003
3.872423e+003,4.910856e-003
3.874352e+003,4.909460e-003
3.876280e+003,4.940798e-003
3.878209e+003,4.915458e-003
3.880137e+003,4.800977e-003
3.882066e+003,4.876832e-003
3.883994e+003,4.951499e-003
3.885923e+003,4.980688e-003
3.887851e+003,4.965646e-003
3.889780e+003,5.011868e-003
3.891708e+003,4.977627e-003
3.893637e+003,4.984157e-003
3.895565e+003,4.977003e-003
3.897494e+003,5.000462e-003
3.899422e+003,4.966728e-003
3.901351e+003,4.888204e-003
3.903279e+003,4.879977e-003
3.905208e+003,5.038296e-003
3.907136e+003,5.132399e-003
3.909065e+003,5.029574e-003
3.910993e+003,5.023302e-003
3.912922e+003,5.097805e-003
3.914850e+003,5.000254e-003
3.916779e+003,4.932555e-003
3.918707e+003,4.955057e-003
3.920636e+003,4.992879e-003
3.922564e+003,4.966599e-003
3.924493e+003,4.919224e-003
3.926421e+003,4.920252e-003
3.928350e+003,4.912143e-003
3.930278e+003,4.979083e-003
3.932207e+003,5.001465e-003
3.934135e+003,4.974148e-003
3.936064e+003,4.984525e-003
3.937992e+003,4.959588e-003
3.939921e+003,4.952952e-003
3.941849e+003,4.920475e-003
3.943778e+003,4.943696e-003
3.945706e+003,5.022992e-003
3.947635e+003,5.143413e-003
3.949563e+003,5.108919e-003
3.951492e+003,5.069138e-003
3.953420e+003,5.076359e-003
3.955349e+003,4.988733e-003
3.957277e+003,5.063987e-003
3.959206e+003,5.165882e-003
3.961134e+003,5.070744e-003
3.963063e+003,5.016312e-003
3.964991e+003,5.016541e-003
3.966920e+003,5.003532e-003
3.968848e+003,5.012396e-003
3.970777e+003,5.044099e-003
3.972705e+003,4.988174e-003
3.974634e+003,4.965906e-003
3.976562e+003,5.022243e-003
3.978491e+003,4.985267e-003
3.980419e+003,4.997690e-003
3.982348e+003,5.053214e-003
3.984276e+003,5.001802e-003
3.986205e+003,4.934341e-003
3.988133e+003,4.993679e-003
3.990062e+003,5.054775e-003
3.991990e+003,5.038246e-003
3.993919e+003,4.988920e-003
3.995847e+003,4.977584e-003
3.997776e+003,4.972441e-003
3.999704e+003,4.972319e-003
4.001633e+003,0.000000e+000
