3.991989e+002,3.397180e-002
4.011274e+002,3.503229e-002
4.030559e+002,3.503229e-002
4.049844e+002,3.654173e-002
4.069129e+002,3.806550e-002
4.088414e+002,3.650742e-002
4.107699e+002,3.620752e-002
4.126984e+002,3.690790e-002
4.146269e+002,3.628352e-002
4.165554e+002,3.647620e-002
4.184839e+002,3.728237e-002
4.204124e+002,3.793739e-002
4.223409e+002,3.820828e-002
4.242694e+002,3.858281e-002
4.261979e+002,3.882445e-002
4.281264e+002,3.919277e-002
4.300549e+002,3.902819e-002
4.319834e+002,3.989798e-002
4.339119e+002,3.961166e-002
4.358404e+002,3.853902e-002
4.377689e+002,3.865055e-002
4.396974e+002,3.880407e-002
4.416259e+002,3.889060e-002
4.435544e+002,3.838715e-002
4.454829e+002,3.874408e-002
4.474114e+002,3.907766e-002
4.493399e+002,3.854677e-002
4.512684e+002,3.796940e-002
4.531969e+002,3.757043e-002
4.551254e+002,3.787629e-002
4.570539e+002,3.823970e-002
4.589824e+002,3.822780e-002
4.609109e+002,3.789147e-002
4.628394e+002,3.806196e-002
4.647679e+002,3.847215e-002
4.666964e+002,3.817174e-002
4.686249e+002,3.822847e-002
4.705533e+002,3.805622e-002
4.724819e+002,3.703985e-002
4.744103e+002,3.687181e-002
4.763389e+002,3.706224e-002
4.782673e+002,3.667615e-002
4.801959e+002,3.622837e-002
4.821243e+002,3.621436e-002
4.840529e+002,3.647947e-002
4.859813e+002,3.663842e-002
4.879099e+002,3.626424e-002
4.898383e+002,3.611897e-002
4.917668e+002,3.568678e-002
4.936953e+002,3.563247e-002
4.956238e+002,3.536595e-002
4.975523e+002,3.516915e-002
4.994808e+002,3.526622e-002
5.014093e+002,3.526232e-002
5.033378e+002,3.539450e-002
5.052663e+002,3.541504e-002
5.071948e+002,3.524257e-002
5.091233e+002,3.546088e-002
5.110518e+002,3.544695e-002
5.129803e+002,3.536467e-002
5.149088e+002,3.574686e-002
5.168373e+002,3.610906e-002
5.187658e+002,3.609790e-002
5.206943e+002,3.595668e-002
5.226228e+002,3.617149e-002
5.245513e+002,3.645433e-002
5.264798e+002,3.647453e-002
5.284083e+002,3.638861e-002
5.303368e+002,3.594472e-002
5.322653e+002,3.571861e-002
5.341938e+002,3.575911e-002
5.361223e+002,3.563023e-002
5.380508e+002,3.559756e-002
5.399792e+002,3.549425e-002
5.419078e+002,3.534352e-002
5.438363e+002,3.516894e-002
5.457648e+002,3.465145e-002
5.476932e+002,3.493384e-002
5.496218e+002,3.560281e-002
5.515503e+002,3.590082e-002
5.534788e+002,3.587502e-002
5.554072e+002,3.556550e-002
5.573358e+002,3.568118e-002
5.592643e+002,3.597958e-002
5.611927e+002,3.592045e-002
5.631212e+002,3.588874e-002
5.650497e+002,3.583281e-002
5.669783e+002,3.533915e-002
5.689067e+002,3.524493e-002
5.708352e+002,3.500447e-002
5.727637e+002,3.481530e-002
5.746923e+002,3.467620e-002
5.766207e+002,3.473928e-002
5.785492e+002,3.466094e-002
5.804777e+002,3.466629e-002
5.824063e+002,3.453480e-002
5.843347e+002,3.455877e-002
5.862632e+002,3.459529e-002
5.881917e+002,3.449105e-002
5.901202e+002,3.435852e-002
5.920487e+002,3.433804e-002
5.939772e+002,3.417341e-002
5.959057e+002,3.413979e-002
5.978342e+002,3.404284e-002
5.997627e+002,3.386929e-002
6.016912e+002,3.394344e-002
6.036197e+002,3.391534e-002
6.055482e+002,3.389537e-002
6.074767e+002,3.374856e-002
6.094052e+002,3.369845e-002
6.113337e+002,3.334831e-002
6.132622e+002,3.279058e-002
6.151907e+002,3.225231e-002
6.171192e+002,3.205366e-002
6.190477e+002,3.202866e-002
6.209762e+002,3.188386e-002
6.229047e+002,3.150368e-002
6.248332e+002,3.090778e-002
6.267617e+002,3.023391e-002
6.286902e+002,2.983495e-002
6.306187e+002,2.969338e-002
6.325472e+002,2.954849e-002
6.344756e+002,2.944190e-002
6.364042e+002,2.922358e-002
6.383326e+002,2.901610e-002
6.402612e+002,2.870828e-002
6.421896e+002,2.852753e-002
6.441182e+002,2.836616e-002
6.460466e+002,2.821854e-002
6.479752e+002,2.833795e-002
6.499036e+002,2.830115e-002
6.518322e+002,2.797178e-002
6.537606e+002,2.783258e-002
6.556891e+002,2.796548e-002
6.576177e+002,2.801827e-002
6.595461e+002,2.789810e-002
6.614746e+002,2.784124e-002
6.634031e+002,2.780961e-002
6.653317e+002,2.779956e-002
6.672601e+002,2.751950e-002
6.691886e+002,2.729403e-002
6.711171e+002,2.703733e-002
6.730457e+002,2.640855e-002
6.749741e+002,2.576587e-002
6.769026e+002,2.542937e-002
6.788311e+002,2.505535e-002
6.807596e+002,2.453457e-002
6.826881e+002,2.395182e-002
6.846166e+002,2.369040e-002
6.865451e+002,2.346778e-002
6.884736e+002,2.327310e-002
6.904021e+002,2.324526e-002
6.923306e+002,2.317167e-002
6.942591e+002,2.287928e-002
6.961876e+002,2.260757e-002
6.981161e+002,2.259007e-002
7.000446e+002,2.258541e-002
7.019731e+002,2.257857e-002
7.039016e+002,2.230799e-002
7.058301e+002,2.215114e-002
7.077585e+002,2.195548e-002
7.096871e+002,2.183107e-002
7.116156e+002,2.175258e-002
7.135441e+002,2.151389e-002
7.154725e+002,2.132274e-002
7.174011e+002,2.131954e-002
7.193296e+002,2.116506e-002
7.212581e+002,2.100456e-002
7.231865e+002,2.099312e-002
7.251151e+002,2.080755e-002
7.270436e+002,2.045103e-002
7.289720e+002,2.016229e-002
7.309005e+002,2.006642e-002
7.328290e+002,1.997231e-002
7.347576e+002,1.967431e-002
7.366860e+002,1.962980e-002
7.386145e+002,1.954196e-002
7.405430e+002,1.928712e-002
7.424716e+002,1.911065e-002
7.444000e+002,1.894239e-002
7.463285e+002,1.872446e-002
7.482570e+002,1.861091e-002
7.501855e+002,1.846887e-002
7.521140e+002,1.828695e-002
7.540425e+002,1.808806e-002
7.559710e+002,1.784871e-002
7.578995e+002,1.782295e-002
7.598280e+002,1.773633e-002
7.617565e+002,1.756510e-002
7.636850e+002,1.754422e-002
7.656135e+002,1.742997e-002
7.675420e+002,1.728579e-002
7.694705e+002,1.731586e-002
7.713990e+002,1.737452e-002
7.733275e+002,1.721763e-002
7.752560e+002,1.718440e-002
7.771844e+002,1.720839e-002
7.791130e+002,1.717402e-002
7.810415e+002,1.690227e-002
7.829700e+002,1.676340e-002
7.848984e+002,1.670685e-002
7.868270e+002,1.677273e-002
7.887555e+002,1.665011e-002
7.906840e+002,1.650746e-002
7.926124e+002,1.649301e-002
7.945410e+002,1.647008e-002
7.964695e+002,1.649342e-002
7.983979e+002,1.653021e-002
8.003264e+002,1.647721e-002
8.022549e+002,1.628972e-002
8.041835e+002,1.634476e-002
8.061119e+002,1.637996e-002
8.080404e+002,1.626633e-002
8.099689e+002,1.614753e-002
8.118975e+002,1.604929e-002
8.138259e+002,1.607288e-002
8.157545e+002,1.602588e-002
8.176830e+002,1.592097e-002
8.196115e+002,1.580859e-002
8.215399e+002,1.572080e-002
8.234684e+002,1.566515e-002
8.253970e+002,1.561658e-002
8.273254e+002,1.572647e-002
8.292539e+002,1.573921e-002
8.311824e+002,1.564701e-002
8.331110e+002,1.567665e-002
8.350394e+002,1.560092e-002
8.369679e+002,1.557945e-002
8.388964e+002,1.558731e-002
8.408250e+002,1.559006e-002
8.427534e+002,1.550218e-002
8.446819e+002,1.541247e-002
8.466104e+002,1.537453e-002
8.485389e+002,1.530090e-002
8.504674e+002,1.526288e-002
8.523959e+002,1.538346e-002
8.543244e+002,1.538157e-002
8.562529e+002,1.538380e-002
8.581814e+002,1.546125e-002
8.601099e+002,1.551880e-002
8.620384e+002,1.549198e-002
8.639669e+002,1.551798e-002
8.658954e+002,1.555462e-002
8.678239e+002,1.562094e-002
8.697524e+002,1.562139e-002
8.716809e+002,1.573543e-002
8.736094e+002,1.597428e-002
8.755378e+002,1.605741e-002
8.774664e+002,1.607553e-002
8.793949e+002,1.626072e-002
8.813234e+002,1.664742e-002
8.832518e+002,1.694768e-002
8.851804e+002,1.722714e-002
8.871089e+002,1.756572e-002
8.890374e+002,1.804424e-002
8.909658e+002,1.861511e-002
8.928943e+002,1.908506e-002
8.948229e+002,1.949772e-002
8.967513e+002,1.960894e-002
8.986798e+002,1.958762e-002
9.006083e+002,1.942536e-002
9.025369e+002,1.901859e-002
9.044653e+002,1.867380e-002
9.063938e+002,1.840796e-002
9.083223e+002,1.808441e-002
9.102509e+002,1.780798e-002
9.121793e+002,1.776121e-002
9.141078e+002,1.775621e-002
9.160364e+002,1.767544e-002
9.179648e+002,1.773308e-002
9.198933e+002,1.790061e-002
9.218218e+002,1.803226e-002
9.237504e+002,1.816007e-002
9.256788e+002,1.835445e-002
9.276073e+002,1.849349e-002
9.295358e+002,1.864786e-002
9.314644e+002,1.894134e-002
9.333928e+002,1.923442e-002
9.353213e+002,1.952693e-002
9.372498e+002,1.988191e-002
9.391783e+002,2.033400e-002
9.411068e+002,2.078437e-002
9.430353e+002,2.129235e-002
9.449637e+002,2.185761e-002
9.468923e+002,2.248571e-002
9.488208e+002,2.316247e-002
9.507493e+002,2.392012e-002
9.526777e+002,2.458348e-002
9.546063e+002,2.519205e-002
9.565348e+002,2.590588e-002
9.584633e+002,2.664872e-002
9.603917e+002,2.740276e-002
9.623203e+002,2.809874e-002
9.642488e+002,2.871102e-002
9.661772e+002,2.942493e-002
9.681057e+002,3.015712e-002
9.700343e+002,3.080187e-002
9.719628e+002,3.147063e-002
9.738912e+002,3.224733e-002
9.758197e+002,3.301880e-002
9.777483e+002,3.391616e-002
9.796768e+002,3.493583e-002
9.816052e+002,3.598534e-002
9.835337e+002,3.704944e-002
9.854623e+002,3.820843e-002
9.873907e+002,3.928765e-002
9.893192e+002,4.003718e-002
9.912477e+002,4.053983e-002
9.931763e+002,4.088328e-002
9.951047e+002,4.106785e-002
9.970332e+002,4.139795e-002
9.989617e+002,4.184499e-002
1.000890e+003,4.240255e-002
1.002819e+003,4.309741e-002
1.004747e+003,4.383772e-002
1.006676e+003,4.452727e-002
1.008604e+003,4.515211e-002
1.010533e+003,4.574302e-002
1.012461e+003,4.645818e-002
1.014390e+003,4.736533e-002
1.016318e+003,4.833237e-002
1.018247e+003,4.938198e-002
1.020175e+003,5.044916e-002
1.022104e+003,5.147819e-002
1.024032e+003,5.262186e-002
1.025961e+003,5.382241e-002
1.027889e+003,5.503614e-002
1.029818e+003,5.622109e-002
1.031746e+003,5.730474e-002
1.033675e+003,5.811901e-002
1.035603e+003,5.849106e-002
1.037532e+003,5.847677e-002
1.039460e+003,5.820220e-002
1.041389e+003,5.766781e-002
1.043317e+003,5.700140e-002
1.045246e+003,5.650569e-002
1.047174e+003,5.608527e-002
1.049103e+003,5.555634e-002
1.051031e+003,5.505159e-002
1.052960e+003,5.443204e-002
1.054888e+003,5.369326e-002
1.056817e+003,5.283481e-002
1.058745e+003,5.190579e-002
1.060674e+003,5.087742e-002
1.062602e+003,4.984850e-002
1.064531e+003,4.877330e-002
1.066459e+003,4.766948e-002
1.068388e+003,4.665137e-002
1.070316e+003,4.581316e-002
1.072245e+003,4.495370e-002
1.074173e+003,4.403613e-002
1.076102e+003,4.315683e-002
1.078030e+003,4.224641e-002
1.079959e+003,4.128140e-002
1.081887e+003,4.032483e-002
1.083816e+003,3.949466e-002
1.085744e+003,3.882652e-002
1.087673e+003,3.827458e-002
1.089601e+003,3.779783e-002
1.091530e+003,3.737883e-002
1.093458e+003,3.699816e-002
1.095387e+003,3.664021e-002
1.097315e+003,3.636703e-002
1.099244e+003,3.615351e-002
1.101172e+003,3.600553e-002
1.103101e+003,3.580150e-002
1.105029e+003,3.549354e-002
1.106958e+003,3.504311e-002
1.108886e+003,3.446327e-002
1.110815e+003,3.364690e-002
1.112743e+003,3.263589e-002
1.114672e+003,3.158500e-002
1.116600e+003,3.066776e-002
1.118529e+003,2.973117e-002
1.120457e+003,2.880898e-002
1.122386e+003,2.791002e-002
1.124314e+003,2.703136e-002
1.126243e+003,2.613674e-002
1.128171e+003,2.516968e-002
1.130100e+003,2.426806e-002
1.132028e+003,2.343956e-002
1.133957e+003,2.265837e-002
1.135885e+003,2.202357e-002
1.137814e+003,2.147425e-002
1.139742e+003,2.113616e-002
1.141671e+003,2.103018e-002
1.143599e+003,2.108774e-002
1.145528e+003,2.125324e-002
1.147456e+003,2.147428e-002
1.149385e+003,2.168151e-002
1.151313e+003,2.202535e-002
1.153242e+003,2.236060e-002
1.155170e+003,2.276782e-002
1.157099e+003,2.308936e-002
1.159027e+003,2.329770e-002
1.160956e+003,2.338316e-002
1.162884e+003,2.318644e-002
1.164813e+003,2.276814e-002
1.166741e+003,2.210392e-002
1.168670e+003,2.117158e-002
1.170598e+003,2.015733e-002
1.172526e+003,1.911332e-002
1.174455e+003,1.805467e-002
1.176384e+003,1.714242e-002
1.178312e+003,1.636991e-002
1.180240e+003,1.566123e-002
1.182169e+003,1.503413e-002
1.184098e+003,1.454404e-002
1.186026e+003,1.415385e-002
1.187954e+003,1.388318e-002
1.189883e+003,1.371858e-002
1.191812e+003,1.367519e-002
1.193740e+003,1.375367e-002
1.195668e+003,1.392412e-002
1.197597e+003,1.417759e-002
1.199526e+003,1.443797e-002
1.201454e+003,1.461228e-002
1.203382e+003,1.476181e-002
1.205311e+003,1.479825e-002
1.207240e+003,1.475453e-002
1.209168e+003,1.480066e-002
1.211096e+003,1.492865e-002
1.213025e+003,1.505239e-002
1.214953e+003,1.524482e-002
1.216882e+003,1.547840e-002
1.218810e+003,1.573840e-002
1.220739e+003,1.606961e-002
1.222667e+003,1.641119e-002
1.224596e+003,1.675102e-002
1.226524e+003,1.717346e-002
1.228453e+003,1.761225e-002
1.230381e+003,1.795804e-002
1.232310e+003,1.829890e-002
1.234238e+003,1.857817e-002
1.236167e+003,1.877300e-002
1.238095e+003,1.889959e-002
1.240024e+003,1.898434e-002
1.241952e+003,1.904660e-002
1.243881e+003,1.905571e-002
1.245809e+003,1.900695e-002
1.247738e+003,1.889602e-002
1.249666e+003,1.873855e-002
1.251595e+003,1.847791e-002
1.253523e+003,1.818361e-002
1.255452e+003,1.792211e-002
1.257380e+003,1.759619e-002
1.259309e+003,1.727254e-002
1.261237e+003,1.688133e-002
1.263166e+003,1.648278e-002
1.265094e+003,1.610574e-002
1.267023e+003,1.570453e-002
1.268951e+003,1.531208e-002
1.270880e+003,1.497362e-002
1.272808e+003,1.470372e-002
1.274737e+003,1.441499e-002
1.276665e+003,1.414558e-002
1.278594e+003,1.389883e-002
1.280522e+003,1.367177e-002
1.282451e+003,1.350820e-002
1.284379e+003,1.336820e-002
1.286308e+003,1.321475e-002
1.288236e+003,1.305642e-002
1.290165e+003,1.295044e-002
1.292093e+003,1.292581e-002
1.294022e+003,1.298445e-002
1.295950e+003,1.305017e-002
1.297879e+003,1.313998e-002
1.299807e+003,1.327778e-002
1.301736e+003,1.344238e-002
1.303664e+003,1.366602e-002
1.305593e+003,1.389713e-002
1.307521e+003,1.409861e-002
1.309450e+003,1.434244e-002
1.311378e+003,1.457554e-002
1.313307e+003,1.472473e-002
1.315235e+003,1.480267e-002
1.317164e+003,1.484445e-002
1.319092e+003,1.480485e-002
1.321021e+003,1.472159e-002
1.322949e+003,1.458291e-002
1.324878e+003,1.447540e-002
1.326806e+003,1.435288e-002
1.328735e+003,1.431292e-002
1.330663e+003,1.428535e-002
1.332592e+003,1.422251e-002
1.334520e+003,1.419212e-002
1.336449e+003,1.412779e-002
1.338377e+003,1.401001e-002
1.340306e+003,1.392117e-002
1.342234e+003,1.385738e-002
1.344163e+003,1.379899e-002
1.346091e+003,1.377295e-002
1.348020e+003,1.379573e-002
1.349948e+003,1.383345e-002
1.351877e+003,1.399732e-002
1.353805e+003,1.412635e-002
1.355734e+003,1.421887e-002
1.357662e+003,1.439091e-002
1.359591e+003,1.458327e-002
1.361519e+003,1.479794e-002
1.363448e+003,1.501895e-002
1.365376e+003,1.521263e-002
1.367305e+003,1.531732e-002
1.369233e+003,1.539064e-002
1.371162e+003,1.537958e-002
1.373090e+003,1.531504e-002
1.375019e+003,1.522534e-002
1.376947e+003,1.503276e-002
1.378876e+003,1.481379e-002
1.380804e+003,1.451879e-002
1.382733e+003,1.413692e-002
1.384661e+003,1.379761e-002
1.386590e+003,1.352970e-002
1.388518e+003,1.326145e-002
1.390447e+003,1.306199e-002
1.392375e+003,1.293383e-002
1.394304e+003,1.282560e-002
1.396232e+003,1.277032e-002
1.398161e+003,1.276160e-002
1.400089e+003,1.275654e-002
1.402018e+003,1.280091e-002
1.403946e+003,1.284539e-002
1.405875e+003,1.288085e-002
1.407803e+003,1.293323e-002
1.409732e+003,1.299627e-002
1.411660e+003,1.307177e-002
1.413589e+003,1.317404e-002
1.415517e+003,1.328244e-002
1.417446e+003,1.332482e-002
1.419374e+003,1.339016e-002
1.421303e+003,1.341804e-002
1.423231e+003,1.341811e-002
1.425160e+003,1.340669e-002
1.427088e+003,1.334950e-002
1.429017e+003,1.329120e-002
1.430945e+003,1.320035e-002
1.432874e+003,1.305897e-002
1.434802e+003,1.288219e-002
1.436731e+003,1.272388e-002
1.438659e+003,1.257169e-002
1.440588e+003,1.240879e-002
1.442516e+003,1.230985e-002
1.444445e+003,1.225955e-002
1.446373e+003,1.217793e-002
1.448302e+003,1.209625e-002
1.450230e+003,1.208560e-002
1.452159e+003,1.204387e-002
1.454087e+003,1.194547e-002
1.456016e+003,1.186442e-002
1.457944e+003,1.176536e-002
1.459873e+003,1.165537e-002
1.461801e+003,1.160371e-002
1.463730e+003,1.143853e-002
1.465658e+003,1.124853e-002
1.467587e+003,1.095969e-002
1.469515e+003,1.057832e-002
1.471444e+003,1.014304e-002
1.473372e+003,9.750854e-003
1.475301e+003,9.416644e-003
1.477229e+003,9.184253e-003
1.479158e+003,8.972346e-003
1.481086e+003,8.851209e-003
1.483015e+003,8.796146e-003
1.484943e+003,8.784424e-003
1.486872e+003,8.801643e-003
1.488800e+003,8.807188e-003
1.490729e+003,8.891325e-003
1.492657e+003,9.020095e-003
1.494586e+003,9.196994e-003
1.496514e+003,9.399701e-003
1.498443e+003,9.474572e-003
1.500371e+003,9.581665e-003
1.502300e+003,9.792794e-003
1.504228e+003,1.000826e-002
1.506157e+003,1.014838e-002
1.508085e+003,1.028884e-002
1.510014e+003,1.039015e-002
1.511942e+003,1.050831e-002
1.513871e+003,1.057397e-002
1.515799e+003,1.054587e-002
1.517728e+003,1.044976e-002
1.519656e+003,1.032731e-002
1.521585e+003,1.018107e-002
1.523513e+003,1.004514e-002
1.525442e+003,9.954970e-003
1.527370e+003,9.919560e-003
1.529299e+003,9.934254e-003
1.531227e+003,9.893887e-003
1.533156e+003,9.870406e-003
1.535084e+003,9.918751e-003
1.537013e+003,9.995591e-003
1.538941e+003,1.008053e-002
1.540870e+003,1.002461e-002
1.542798e+003,9.981390e-003
1.544727e+003,9.955005e-003
1.546655e+003,9.945991e-003
1.548584e+003,9.958501e-003
1.550512e+003,9.954100e-003
1.552441e+003,9.903935e-003
1.554369e+003,9.877090e-003
1.556298e+003,9.839756e-003
1.558226e+003,9.835401e-003
1.560155e+003,9.885957e-003
1.562083e+003,9.869883e-003
1.564012e+003,9.866970e-003
1.565940e+003,9.893945e-003
1.567869e+003,9.918871e-003
1.569797e+003,9.978812e-003
1.571726e+003,1.009825e-002
1.573654e+003,1.018795e-002
1.575583e+003,1.028681e-002
1.577511e+003,1.046023e-002
1.579440e+003,1.059579e-002
1.581368e+003,1.076461e-002
1.583297e+003,1.099466e-002
1.585225e+003,1.120689e-002
1.587154e+003,1.134525e-002
1.589082e+003,1.153893e-002
1.591010e+003,1.173401e-002
1.592939e+003,1.190642e-002
1.594868e+003,1.201646e-002
1.596796e+003,1.212634e-002
1.598724e+003,1.224267e-002
1.600653e+003,1.237033e-002
1.602582e+003,1.245505e-002
1.604510e+003,1.249583e-002
1.606438e+003,1.251468e-002
1.608367e+003,1.255817e-002
1.610296e+003,1.258923e-002
1.612224e+003,1.262889e-002
1.614152e+003,1.275640e-002
1.616081e+003,1.296005e-002
1.618010e+003,1.313294e-002
1.619938e+003,1.329397e-002
1.621866e+003,1.348346e-002
1.623795e+003,1.371944e-002
1.625724e+003,1.386861e-002
1.627652e+003,1.388566e-002
1.629580e+003,1.388393e-002
1.631509e+003,1.385632e-002
1.633438e+003,1.374689e-002
1.635366e+003,1.360137e-002
1.637294e+003,1.354571e-002
1.639223e+003,1.343461e-002
1.641151e+003,1.337069e-002
1.643080e+003,1.327018e-002
1.645008e+003,1.317480e-002
1.646937e+003,1.310701e-002
1.648865e+003,1.311488e-002
1.650794e+003,1.305293e-002
1.652722e+003,1.298351e-002
1.654651e+003,1.292876e-002
1.656579e+003,1.275491e-002
1.658508e+003,1.261034e-002
1.660436e+003,1.245038e-002
1.662365e+003,1.225012e-002
1.664293e+003,1.202967e-002
1.666222e+003,1.178441e-002
1.668150e+003,1.159389e-002
1.670079e+003,1.140738e-002
1.672007e+003,1.117980e-002
1.673936e+003,1.095210e-002
1.675864e+003,1.079379e-002
1.677793e+003,1.061343e-002
1.679721e+003,1.040350e-002
1.681650e+003,1.021603e-002
1.683578e+003,1.007363e-002
1.685507e+003,9.966723e-003
1.687435e+003,9.790882e-003
1.689364e+003,9.629244e-003
1.691292e+003,9.515997e-003
1.693221e+003,9.414973e-003
1.695149e+003,9.409615e-003
1.697078e+003,9.367217e-003
1.699006e+003,9.168716e-003
1.700935e+003,9.090086e-003
1.702863e+003,9.018846e-003
1.704792e+003,9.043404e-003
1.706720e+003,9.109142e-003
1.708649e+003,9.214936e-003
1.710577e+003,9.298343e-003
1.712506e+003,9.426618e-003
1.714434e+003,9.588121e-003
1.716363e+003,9.721827e-003
1.718291e+003,9.904971e-003
1.720220e+003,1.006433e-002
1.722148e+003,1.014472e-002
1.724077e+003,1.022638e-002
1.726005e+003,1.028926e-002
1.727934e+003,1.032945e-002
1.729862e+003,1.036871e-002
1.731791e+003,1.036622e-002
1.733719e+003,1.026348e-002
1.735648e+003,1.007584e-002
1.737576e+003,9.753874e-003
1.739505e+003,9.475621e-003
1.741433e+003,9.180102e-003
1.743362e+003,8.802909e-003
1.745290e+003,8.451531e-003
1.747219e+003,8.096900e-003
1.749147e+003,7.788913e-003
1.751076e+003,7.529918e-003
1.753004e+003,7.258200e-003
1.754933e+003,7.058809e-003
1.756861e+003,6.902469e-003
1.758790e+003,6.651333e-003
1.760718e+003,6.371369e-003
1.762647e+003,6.211295e-003
1.764575e+003,6.131455e-003
1.766504e+003,6.048455e-003
1.768432e+003,5.975499e-003
1.770361e+003,5.893217e-003
1.772289e+003,5.862132e-003
1.774218e+003,5.870813e-003
1.776146e+003,5.853355e-003
1.778075e+003,5.846926e-003
1.780003e+003,5.831288e-003
1.781932e+003,5.811981e-003
1.783860e+003,5.751377e-003
1.785789e+003,5.762189e-003
1.787717e+003,5.745613e-003
1.789646e+003,5.716944e-003
1.791574e+003,5.699924e-003
1.793503e+003,5.727028e-003
1.795431e+003,5.718934e-003
1.797360e+003,5.710796e-003
1.799288e+003,5.716273e-003
1.801217e+003,5.774605e-003
1.803145e+003,5.785819e-003
1.805074e+003,5.767887e-003
1.807002e+003,5.711568e-003
1.808931e+003,5.690529e-003
1.810859e+003,5.679775e-003
1.812788e+003,5.689629e-003
1.814716e+003,5.708062e-003
1.816645e+003,5.628113e-003
1.818573e+003,5.495879e-003
1.820502e+003,5.492701e-003
1.822430e+003,5.544135e-003
1.824359e+003,5.535327e-003
1.826287e+003,5.468430e-003
1.828216e+003,5.389400e-003
1.830144e+003,5.431344e-003
1.832073e+003,5.466358e-003
1.834001e+003,5.532856e-003
1.835930e+003,5.501426e-003
1.837858e+003,5.349293e-003
1.839787e+003,5.360424e-003
1.841715e+003,5.400146e-003
1.843644e+003,5.420992e-003
1.845572e+003,5.430466e-003
1.847501e+003,5.288230e-003
1.849429e+003,5.244992e-003
1.851358e+003,5.342959e-003
1.853286e+003,5.300321e-003
1.855215e+003,5.388129e-003
1.857143e+003,5.441910e-003
1.859072e+003,5.373622e-003
1.861000e+003,5.317122e-003
1.862929e+003,5.295478e-003
1.864857e+003,5.173358e-003
1.866786e+003,5.202808e-003
1.868714e+003,5.222013e-003
1.870643e+003,5.240134e-003
1.872571e+003,5.264370e-003
1.874500e+003,5.201438e-003
1.876428e+003,5.247667e-003
1.878357e+003,5.261519e-003
1.880285e+003,5.211364e-003
1.882214e+003,5.153374e-003
1.884142e+003,5.126213e-003
1.886071e+003,5.138952e-003
1.887999e+003,5.229171e-003
1.889928e+003,5.152742e-003
1.891856e+003,4.993767e-003
1.893785e+003,5.005375e-003
1.895713e+003,5.012941e-003
1.897642e+003,5.116165e-003
1.899570e+003,5.221587e-003
1.901499e+003,4.984387e-003
1.903427e+003,4.843542e-003
1.905356e+003,4.829813e-003
1.907284e+003,4.828454e-003
1.909213e+003,4.817628e-003
1.911141e+003,4.929799e-003
1.913070e+003,4.964236e-003
1.914998e+003,4.845239e-003
1.916927e+003,4.502133e-003
1.918855e+003,4.524185e-003
1.920784e+003,4.540967e-003
1.922712e+003,4.565828e-003
1.924641e+003,4.503579e-003
1.926569e+003,4.531286e-003
1.928498e+003,4.539618e-003
1.930426e+003,4.538777e-003
1.932355e+003,4.371396e-003
1.934283e+003,3.861987e-003
1.936212e+003,4.068295e-003
1.938140e+003,4.266840e-003
1.940069e+003,3.754922e-003
1.941997e+003,3.637532e-003
1.943926e+003,3.617816e-003
1.945854e+003,3.578093e-003
1.947783e+003,3.359739e-003
1.949711e+003,3.144376e-003
1.951640e+003,2.901864e-003
1.953568e+003,2.851612e-003
1.955497e+003,2.735747e-003
1.957425e+003,2.560391e-003
1.959354e+003,1.946962e-003
1.961282e+003,7.523298e-004
1.963211e+003,3.655890e-004
1.965139e+003,2.955127e-004
1.967068e+003,-3.170439e-004
1.968996e+003,-1.255926e-004
1.970925e+003,-3.259922e-004
1.972853e+003,-1.026120e-003
1.974782e+003,-1.584374e-003
1.976710e+003,-1.773640e-003
1.978639e+003,-3.572545e-004
1.980567e+003,-2.661177e-004
1.982496e+003,-4.628545e-004
1.984424e+003,4.427061e-004
1.986353e+003,1.593507e-003
1.988281e+003,1.317113e-003
1.990210e+003,1.132281e-003
1.992138e+003,1.563331e-003
1.994067e+003,1.855002e-003
1.995995e+003,1.935227e-003
1.997924e+003,2.082157e-003
1.999852e+003,1.405528e-003
2.001781e+003,9.722908e-004
2.003709e+003,2.322666e-004
2.005638e+003,-5.621438e-005
2.007566e+003,-8.531536e-005
2.009495e+003,-5.961634e-004
2.011423e+003,-3.328010e-004
2.013352e+003,-8.458769e-004
2.015280e+003,-2.029566e-003
2.017208e+003,-2.069906e-003
2.019137e+003,-1.697893e-003
2.021066e+003,-9.082195e-004
2.022994e+003,-3.955613e-004
2.024922e+003,-1.307964e-003
2.026851e+003,-1.223262e-003
2.028780e+003,-1.589950e-003
2.030708e+003,-1.077954e-003
2.032636e+003,-1.461768e-003
2.034565e+003,-1.139715e-003
2.036494e+003,-9.120033e-004
2.038422e+003,-5.121157e-004
2.040350e+003,5.228311e-005
2.042279e+003,2.871431e-005
2.044208e+003,-1.718730e-004
2.046136e+003,5.233334e-004
2.048064e+003,1.849906e-003
2.049993e+003,2.113966e-003
2.051921e+003,2.083709e-003
2.053850e+003,2.384913e-003
2.055778e+003,2.896293e-003
2.057707e+003,2.827789e-003
2.059635e+003,2.780261e-003
2.061564e+003,2.362120e-003
2.063492e+003,2.757713e-003
2.065421e+003,3.073136e-003
2.067349e+003,3.589040e-003
2.069278e+003,3.693626e-003
2.071206e+003,3.734828e-003
2.073135e+003,3.736288e-003
2.075063e+003,3.672517e-003
2.076992e+003,3.808720e-003
2.078920e+003,4.133757e-003
2.080849e+003,4.367387e-003
2.082777e+003,4.544473e-003
2.084706e+003,4.648774e-003
2.086634e+003,4.579906e-003
2.088563e+003,4.671844e-003
2.090491e+003,4.598035e-003
2.092420e+003,4.374663e-003
2.094348e+003,4.112860e-003
2.096277e+003,4.053606e-003
2.098205e+003,4.289574e-003
2.100134e+003,4.452603e-003
2.102062e+003,4.773081e-003
2.103991e+003,4.895609e-003
2.105919e+003,5.002049e-003
2.107848e+003,4.936526e-003
2.109776e+003,4.873862e-003
2.111705e+003,5.069425e-003
2.113633e+003,5.259509e-003
2.115562e+003,5.208568e-003
2.117490e+003,5.173191e-003
2.119419e+003,5.457225e-003
2.121347e+003,5.595754e-003
2.123276e+003,5.296872e-003
2.125204e+003,5.095507e-003
2.127133e+003,5.284462e-003
2.129061e+003,5.245926e-003
2.130990e+003,5.006942e-003
2.132918e+003,4.404903e-003
2.134847e+003,4.255109e-003
2.136775e+003,4.283016e-003
2.138704e+003,4.053658e-003
2.140632e+003,4.184413e-003
2.142561e+003,4.127209e-003
2.144489e+003,3.232196e-003
2.146418e+003,2.174222e-003
2.148346e+003,1.949236e-003
2.150275e+003,1.793100e-003
2.152203e+003,1.783751e-003
2.154132e+003,9.118777e-004
2.156060e+003,-1.118092e-003
2.157989e+003,-2.360240e-003
2.159917e+003,-3.134473e-003
2.161846e+003,-2.262848e-003
2.163774e+003,-1.547482e-003
2.165703e+003,-2.787666e-004
2.167631e+003,1.197856e-003
2.169560e+003,2.246023e-003
2.171488e+003,2.012279e-003
2.173417e+003,1.811566e-003
2.175345e+003,1.696824e-003
2.177274e+003,1.231082e-003
2.179202e+003,1.691968e-003
2.181131e+003,2.454601e-003
2.183059e+003,2.145718e-003
2.184988e+003,1.655346e-003
2.186916e+003,1.795562e-003
2.188845e+003,2.858416e-003
2.190773e+003,3.318963e-003
2.192702e+003,2.700786e-003
2.194630e+003,3.111672e-003
2.196559e+003,3.611041e-003
2.198487e+003,3.720943e-003
2.200416e+003,3.406316e-003
2.202344e+003,3.686589e-003
2.204273e+003,4.098710e-003
2.206201e+003,3.977410e-003
2.208130e+003,3.977979e-003
2.210058e+003,3.849826e-003
2.211987e+003,3.766496e-003
2.213915e+003,4.148618e-003
2.215844e+003,4.974766e-003
2.217772e+003,4.722532e-003
2.219701e+003,4.293489e-003
2.221629e+003,4.871047e-003
2.223558e+003,4.985324e-003
2.225486e+003,4.558097e-003
2.227415e+003,4.613583e-003
2.229343e+003,5.018640e-003
2.231272e+003,5.021154e-003
2.233200e+003,5.004000e-003
2.235129e+003,4.964557e-003
2.237057e+003,4.841170e-003
2.238986e+003,4.793911e-003
2.240914e+003,5.002247e-003
2.242843e+003,5.106406e-003
2.244771e+003,5.245100e-003
2.246700e+003,5.571622e-003
2.248628e+003,5.491709e-003
2.250557e+003,5.014061e-003
2.252485e+003,4.986159e-003
2.254414e+003,4.996391e-003
2.256342e+003,5.135168e-003
2.258271e+003,5.056385e-003
2.260199e+003,5.205550e-003
2.262128e+003,5.252433e-003
2.264056e+003,4.943571e-003
2.265985e+003,5.357861e-003
2.267913e+003,5.563592e-003
2.269842e+003,5.752135e-003
2.271770e+003,6.054376e-003
2.273699e+003,6.204703e-003
2.275627e+003,6.163279e-003
2.277556e+003,6.157845e-003
2.279484e+003,6.236308e-003
2.281413e+003,6.409022e-003
2.283341e+003,6.576668e-003
2.285270e+003,6.752113e-003
2.287198e+003,6.816341e-003
2.289127e+003,6.726114e-003
2.291055e+003,6.661217e-003
2.292984e+003,6.687524e-003
2.294912e+003,6.873997e-003
2.296841e+003,7.132502e-003
2.298769e+003,7.073058e-003
2.300698e+003,6.998197e-003
2.302626e+003,6.953823e-003
2.304555e+003,7.100686e-003
2.306483e+003,7.146714e-003
2.308412e+003,7.167791e-003
2.310340e+003,7.394058e-003
2.312269e+003,7.481739e-003
2.314197e+003,7.519515e-003
2.316125e+003,7.792884e-003
2.318054e+003,7.770785e-003
2.319983e+003,7.908292e-003
2.321911e+003,8.135015e-003
2.323840e+003,7.961088e-003
2.325768e+003,7.837438e-003
2.327697e+003,7.799136e-003
2.329625e+003,7.696381e-003
2.331553e+003,7.703438e-003
2.333482e+003,7.712200e-003
2.335411e+003,7.691981e-003
2.337339e+003,7.623367e-003
2.339268e+003,7.385116e-003
2.341196e+003,7.303223e-003
2.343125e+003,7.331248e-003
2.345053e+003,7.248669e-003
2.346981e+003,7.183767e-003
2.348910e+003,7.131888e-003
2.350839e+003,7.065134e-003
2.352767e+003,6.969607e-003
2.354696e+003,6.911982e-003
2.356624e+003,7.072596e-003
2.358552e+003,7.210611e-003
2.360481e+003,6.997226e-003
2.362409e+003,6.907373e-003
2.364338e+003,6.747917e-003
2.366267e+003,6.569937e-003
2.368195e+003,6.999657e-003
2.370124e+003,7.274071e-003
2.372052e+003,7.214191e-003
2.373980e+003,7.067562e-003
2.375909e+003,7.010953e-003
2.377838e+003,7.062309e-003
2.379766e+003,7.177772e-003
2.381695e+003,7.270159e-003
2.383623e+003,7.358489e-003
2.385552e+003,7.282094e-003
2.387480e+003,7.071726e-003
2.389408e+003,7.152106e-003
2.391337e+003,7.230677e-003
2.393266e+003,7.177359e-003
2.395194e+003,7.130577e-003
2.397123e+003,7.091927e-003
2.399051e+003,7.037250e-003
2.400979e+003,6.951863e-003
2.402908e+003,6.967082e-003
2.404836e+003,7.072886e-003
2.406765e+003,7.221802e-003
2.408694e+003,7.281639e-003
2.410622e+003,7.214458e-003
2.412551e+003,7.132601e-003
2.414479e+003,7.138495e-003
2.416407e+003,7.084707e-003
2.418336e+003,7.059313e-003
2.420264e+003,7.084740e-003
2.422193e+003,7.064500e-003
2.424122e+003,7.072077e-003
2.426050e+003,7.098044e-003
2.427979e+003,7.119936e-003
2.429907e+003,7.068238e-003
2.431835e+003,7.045910e-003
2.433764e+003,7.042239e-003
2.435692e+003,7.044428e-003
2.437621e+003,6.965095e-003
2.439550e+003,6.877058e-003
2.441478e+003,6.704435e-003
2.443406e+003,6.627620e-003
2.445335e+003,6.713151e-003
2.447263e+003,6.633945e-003
2.449192e+003,6.642054e-003
2.451121e+003,6.702854e-003
2.453049e+003,6.782543e-003
2.454978e+003,6.720453e-003
2.456906e+003,6.730515e-003
2.458834e+003,6.876116e-003
2.460763e+003,6.917792e-003
2.462691e+003,6.851576e-003
2.464620e+003,6.764403e-003
2.466549e+003,6.770629e-003
2.468477e+003,6.826095e-003
2.470406e+003,6.768879e-003
2.472334e+003,6.724861e-003
2.474262e+003,6.790688e-003
2.476191e+003,6.809906e-003
2.478119e+003,6.726241e-003
2.480048e+003,6.690707e-003
2.481977e+003,6.721126e-003
2.483905e+003,6.819868e-003
2.485833e+003,6.849422e-003
2.487762e+003,6.754845e-003
2.489690e+003,6.701542e-003
2.491619e+003,6.678021e-003
2.493547e+003,6.750100e-003
2.495476e+003,6.753466e-003
2.497405e+003,6.739163e-003
2.499333e+003,6.790183e-003
2.501261e+003,6.758211e-003
2.503190e+003,6.646899e-003
2.505118e+003,6.675397e-003
2.507047e+003,6.823436e-003
2.508975e+003,6.758244e-003
2.510904e+003,6.627284e-003
2.512833e+003,6.744480e-003
2.514761e+003,6.849153e-003
2.516689e+003,6.828148e-003
2.518618e+003,6.858375e-003
2.520546e+003,6.898468e-003
2.522475e+003,6.810108e-003
2.524403e+003,6.854235e-003
2.526332e+003,6.906481e-003
2.528260e+003,6.846325e-003
2.530189e+003,6.769182e-003
2.532117e+003,6.600202e-003
2.534046e+003,6.665673e-003
2.535974e+003,6.874836e-003
2.537903e+003,6.964321e-003
2.539831e+003,6.895809e-003
2.541760e+003,6.948766e-003
2.543688e+003,6.966442e-003
2.545617e+003,6.987789e-003
2.547545e+003,6.981392e-003
2.549474e+003,7.006781e-003
2.551402e+003,6.933514e-003
2.553331e+003,6.964557e-003
2.555259e+003,7.089321e-003
2.557188e+003,7.146916e-003
2.559116e+003,7.029072e-003
2.561045e+003,7.010990e-003
2.562973e+003,7.152777e-003
2.564902e+003,7.166992e-003
2.566830e+003,7.107272e-003
2.568759e+003,7.136845e-003
2.570687e+003,7.110135e-003
2.572616e+003,7.155539e-003
2.574544e+003,7.336530e-003
2.576473e+003,7.278000e-003
2.578401e+003,7.249159e-003
2.580330e+003,7.253101e-003
2.582258e+003,7.226182e-003
2.584187e+003,7.324669e-003
2.586115e+003,7.301182e-003
2.588044e+003,7.311325e-003
2.589972e+003,7.441008e-003
2.591901e+003,7.324736e-003
2.593829e+003,7.274967e-003
2.595758e+003,7.295791e-003
2.597686e+003,7.425840e-003
2.599615e+003,7.480312e-003
2.601543e+003,7.426683e-003
2.603472e+003,7.411853e-003
2.605400e+003,7.393754e-003
2.607329e+003,7.393586e-003
2.609257e+003,7.474783e-003
2.611186e+003,7.478525e-003
2.613114e+003,7.495245e-003
2.615043e+003,7.459648e-003
2.616971e+003,7.439424e-003
2.618900e+003,7.552558e-003
2.620828e+003,7.590219e-003
2.622757e+003,7.567258e-003
2.624685e+003,7.635134e-003
2.626614e+003,7.683663e-003
2.628542e+003,7.736514e-003
2.630471e+003,7.839502e-003
2.632399e+003,7.900403e-003
2.634328e+003,7.935361e-003
2.636256e+003,7.889335e-003
2.638185e+003,7.917207e-003
2.640113e+003,8.015075e-003
2.642042e+003,8.057603e-003
2.643970e+003,8.053080e-003
2.645899e+003,8.114348e-003
2.647827e+003,8.173869e-003
2.649756e+003,8.203818e-003
2.651684e+003,8.259198e-003
2.653613e+003,8.307999e-003
2.655541e+003,8.380382e-003
2.657470e+003,8.412880e-003
2.659398e+003,8.457373e-003
2.661327e+003,8.500587e-003
2.663255e+003,8.554281e-003
2.665184e+003,8.596187e-003
2.667112e+003,8.563033e-003
2.669041e+003,8.570738e-003
2.670969e+003,8.624204e-003
2.672898e+003,8.649216e-003
2.674826e+003,8.663920e-003
2.676755e+003,8.683931e-003
2.678683e+003,8.649588e-003
2.680612e+003,8.648709e-003
2.682540e+003,8.671120e-003
2.684469e+003,8.687784e-003
2.686397e+003,8.708878e-003
2.688326e+003,8.739676e-003
2.690254e+003,8.733523e-003
2.692183e+003,8.753436e-003
2.694111e+003,8.797118e-003
2.696040e+003,8.767501e-003
2.697968e+003,8.736363e-003
2.699897e+003,8.755599e-003
2.701825e+003,8.742989e-003
2.703754e+003,8.736802e-003
2.705682e+003,8.767974e-003
2.707611e+003,8.772775e-003
2.709539e+003,8.723246e-003
2.711468e+003,8.711380e-003
2.713396e+003,8.721792e-003
2.715325e+003,8.697012e-003
2.717253e+003,8.690692e-003
2.719182e+003,8.668280e-003
2.721110e+003,8.682950e-003
2.723039e+003,8.727235e-003
2.724967e+003,8.757729e-003
2.726896e+003,8.752353e-003
2.728824e+003,8.788497e-003
2.730753e+003,8.823121e-003
2.732681e+003,8.801987e-003
2.734610e+003,8.789477e-003
2.736538e+003,8.779435e-003
2.738467e+003,8.806856e-003
2.740395e+003,8.806215e-003
2.742324e+003,8.762666e-003
2.744252e+003,8.768380e-003
2.746181e+003,8.839116e-003
2.748109e+003,8.854873e-003
2.750038e+003,8.870970e-003
2.751966e+003,8.921701e-003
2.753895e+003,8.923459e-003
2.755823e+003,8.903234e-003
2.757752e+003,8.891803e-003
2.759680e+003,8.916390e-003
2.761609e+003,8.959176e-003
2.763537e+003,8.955591e-003
2.765466e+003,8.916965e-003
2.767394e+003,8.900934e-003
2.769323e+003,8.935804e-003
2.771251e+003,8.943719e-003
2.773180e+003,8.995675e-003
2.775108e+003,9.022061e-003
2.777037e+003,9.015464e-003
2.778965e+003,9.029402e-003
2.780894e+003,9.045945e-003
2.782822e+003,9.040295e-003
2.784750e+003,9.077680e-003
2.786679e+003,9.078357e-003
2.788608e+003,9.123359e-003
2.790536e+003,9.145624e-003
2.792465e+003,9.136488e-003
2.794393e+003,9.163525e-003
2.796322e+003,9.169177e-003
2.798250e+003,9.157772e-003
2.800178e+003,9.189245e-003
2.802107e+003,9.215373e-003
2.804036e+003,9.269865e-003
2.805964e+003,9.322470e-003
2.807893e+003,9.363807e-003
2.809821e+003,9.400948e-003
2.811750e+003,9.375148e-003
2.813678e+003,9.391163e-003
2.815606e+003,9.458614e-003
2.817535e+003,9.493698e-003
2.819464e+003,9.486620e-003
2.821392e+003,9.551241e-003
2.823321e+003,9.584131e-003
2.825249e+003,9.630810e-003
2.827177e+003,9.728862e-003
2.829106e+003,9.767052e-003
2.831034e+003,9.742043e-003
2.832963e+003,9.766678e-003
2.834892e+003,9.886555e-003
2.836820e+003,1.003529e-002
2.838749e+003,1.015907e-002
2.840677e+003,1.020676e-002
2.842605e+003,1.030586e-002
2.844534e+003,1.049652e-002
2.846462e+003,1.069341e-002
2.848391e+003,1.085414e-002
2.850320e+003,1.099297e-002
2.852248e+003,1.104014e-002
2.854177e+003,1.106407e-002
2.856105e+003,1.106730e-002
2.858033e+003,1.101907e-002
2.859962e+003,1.097578e-002
2.861890e+003,1.100575e-002
2.863819e+003,1.103100e-002
2.865748e+003,1.105639e-002
2.867676e+003,1.106893e-002
2.869604e+003,1.108790e-002
2.871533e+003,1.107654e-002
2.873461e+003,1.111169e-002
2.875390e+003,1.114263e-002
2.877319e+003,1.115656e-002
2.879247e+003,1.114776e-002
2.881176e+003,1.117496e-002
2.883104e+003,1.114059e-002
2.885032e+003,1.113073e-002
2.886961e+003,1.115952e-002
2.888889e+003,1.125391e-002
2.890818e+003,1.137596e-002
2.892747e+003,1.141297e-002
2.894675e+003,1.141059e-002
2.896604e+003,1.145604e-002
2.898532e+003,1.148652e-002
2.900460e+003,1.150466e-002
2.902389e+003,1.145458e-002
2.904317e+003,1.144515e-002
2.906246e+003,1.154018e-002
2.908175e+003,1.160779e-002
2.910103e+003,1.164720e-002
2.912031e+003,1.170925e-002
2.913960e+003,1.178486e-002
2.915888e+003,1.187591e-002
2.917817e+003,1.192897e-002
2.919745e+003,1.190312e-002
2.921674e+003,1.189998e-002
2.923603e+003,1.185442e-002
2.925531e+003,1.178255e-002
2.927459e+003,1.165935e-002
2.929388e+003,1.153007e-002
2.931316e+003,1.141181e-002
2.933245e+003,1.134389e-002
2.935173e+003,1.129597e-002
2.937102e+003,1.119362e-002
2.939031e+003,1.105228e-002
2.940959e+003,1.096800e-002
2.942887e+003,1.088803e-002
2.944816e+003,1.073263e-002
2.946744e+003,1.058090e-002
2.948673e+003,1.047375e-002
2.950601e+003,1.032378e-002
2.952530e+003,1.022997e-002
2.954458e+003,1.020886e-002
2.956387e+003,1.013054e-002
2.958315e+003,1.007155e-002
2.960244e+003,1.004620e-002
2.962172e+003,9.968628e-003
2.964101e+003,9.850100e-003
2.966029e+003,9.762659e-003
2.967958e+003,9.707895e-003
2.969886e+003,9.622528e-003
2.971815e+003,9.575190e-003
2.973743e+003,9.566456e-003
2.975672e+003,9.564668e-003
2.977600e+003,9.509436e-003
2.979529e+003,9.402775e-003
2.981457e+003,9.341725e-003
2.983386e+003,9.349753e-003
2.985314e+003,9.320803e-003
2.987243e+003,9.303526e-003
2.989171e+003,9.291675e-003
2.991100e+003,9.279750e-003
2.993028e+003,9.302314e-003
2.994957e+003,9.292693e-003
2.996885e+003,9.232202e-003
2.998814e+003,9.251047e-003
3.000742e+003,9.258341e-003
3.002671e+003,9.233347e-003
3.004599e+003,9.237741e-003
3.006528e+003,9.277599e-003
3.008456e+003,9.302829e-003
3.010385e+003,9.356521e-003
3.012313e+003,9.310221e-003
3.014242e+003,9.303104e-003
3.016170e+003,9.298607e-003
3.018099e+003,9.329068e-003
3.020027e+003,9.345312e-003
3.021956e+003,9.328785e-003
3.023884e+003,9.388968e-003
3.025813e+003,9.421790e-003
3.027741e+003,9.376912e-003
3.029670e+003,9.424878e-003
3.031598e+003,9.499808e-003
3.033527e+003,9.545356e-003
3.035455e+003,9.537102e-003
3.037384e+003,9.586929e-003
3.039312e+003,9.653893e-003
3.041241e+003,9.657675e-003
3.043169e+003,9.626059e-003
3.045098e+003,9.626972e-003
3.047026e+003,9.713704e-003
3.048955e+003,9.733909e-003
3.050883e+003,9.767345e-003
3.052812e+003,9.752688e-003
3.054740e+003,9.799120e-003
3.056669e+003,9.886188e-003
3.058597e+003,9.884982e-003
3.060526e+003,9.894113e-003
3.062454e+003,9.965888e-003
3.064383e+003,9.933067e-003
3.066311e+003,9.966740e-003
3.068240e+003,9.992303e-003
3.070168e+003,1.007270e-002
3.072097e+003,1.011050e-002
3.074025e+003,1.015283e-002
3.075954e+003,1.008322e-002
3.077882e+003,1.011559e-002
3.079811e+003,1.013985e-002
3.081739e+003,1.024866e-002
3.083668e+003,1.033544e-002
3.085596e+003,1.032733e-002
3.087525e+003,1.031807e-002
3.089453e+003,1.033175e-002
3.091382e+003,1.043197e-002
3.093310e+003,1.044738e-002
3.095239e+003,1.039295e-002
3.097167e+003,1.043731e-002
3.099096e+003,1.049979e-002
3.101024e+003,1.053552e-002
3.102953e+003,1.056593e-002
3.104881e+003,1.060105e-002
3.106810e+003,1.065958e-002
3.108738e+003,1.070359e-002
3.110667e+003,1.071993e-002
3.112595e+003,1.082726e-002
3.114524e+003,1.091653e-002
3.116452e+003,1.090662e-002
3.118381e+003,1.089871e-002
3.120309e+003,1.087970e-002
3.122238e+003,1.092372e-002
3.124166e+003,1.108261e-002
3.126095e+003,1.110851e-002
3.128023e+003,1.115708e-002
3.129952e+003,1.116317e-002
3.131880e+003,1.117197e-002
3.133809e+003,1.120783e-002
3.135737e+003,1.128153e-002
3.137666e+003,1.128142e-002
3.139594e+003,1.124379e-002
3.141523e+003,1.131149e-002
3.143451e+003,1.141987e-002
3.145380e+003,1.147929e-002
3.147308e+003,1.151062e-002
3.149237e+003,1.165336e-002
3.151165e+003,1.166520e-002
3.153094e+003,1.168584e-002
3.155022e+003,1.177284e-002
3.156951e+003,1.186834e-002
3.158879e+003,1.195630e-002
3.160808e+003,1.196208e-002
3.162736e+003,1.195212e-002
3.164665e+003,1.195834e-002
3.166593e+003,1.206562e-002
3.168522e+003,1.208688e-002
3.170450e+003,1.213297e-002
3.172379e+003,1.226320e-002
3.174307e+003,1.232516e-002
3.176236e+003,1.231966e-002
3.178164e+003,1.241109e-002
3.180093e+003,1.242993e-002
3.182021e+003,1.246520e-002
3.183950e+003,1.248710e-002
3.185878e+003,1.254562e-002
3.187807e+003,1.264602e-002
3.189735e+003,1.267756e-002
3.191664e+003,1.272693e-002
3.193592e+003,1.282432e-002
3.195521e+003,1.292478e-002
3.197449e+003,1.299246e-002
3.199378e+003,1.298575e-002
3.201306e+003,1.299709e-002
3.203235e+003,1.306861e-002
3.205163e+003,1.307279e-002
3.207092e+003,1.317420e-002
3.209020e+003,1.328517e-002
3.210948e+003,1.328662e-002
3.212877e+003,1.337635e-002
3.214806e+003,1.346803e-002
3.216734e+003,1.353649e-002
3.218663e+003,1.360437e-002
3.220591e+003,1.360754e-002
3.222520e+003,1.369853e-002
3.224448e+003,1.382257e-002
3.226376e+003,1.389392e-002
3.228305e+003,1.393778e-002
3.230234e+003,1.397860e-002
3.232162e+003,1.398694e-002
3.234091e+003,1.398516e-002
3.236019e+003,1.405882e-002
3.237948e+003,1.418426e-002
3.239876e+003,1.427079e-002
3.241804e+003,1.428743e-002
3.243733e+003,1.434664e-002
3.245662e+003,1.446488e-002
3.247590e+003,1.456698e-002
3.249519e+003,1.466029e-002
3.251447e+003,1.476050e-002
3.253375e+003,1.485188e-002
3.255304e+003,1.485594e-002
3.257232e+003,1.483760e-002
3.259161e+003,1.495909e-002
3.261090e+003,1.512314e-002
3.263018e+003,1.520267e-002
3.264947e+003,1.516065e-002
3.266875e+003,1.516471e-002
3.268803e+003,1.533585e-002
3.270732e+003,1.546631e-002
3.272660e+003,1.540626e-002
3.274589e+003,1.534783e-002
3.276518e+003,1.543077e-002
3.278446e+003,1.554253e-002
3.280375e+003,1.558858e-002
3.282303e+003,1.564613e-002
3.284231e+003,1.568430e-002
3.286160e+003,1.562568e-002
3.288088e+003,1.565772e-002
3.290017e+003,1.568401e-002
3.291946e+003,1.566350e-002
3.293874e+003,1.564919e-002
3.295802e+003,1.569226e-002
3.297731e+003,1.573896e-002
3.299659e+003,1.576377e-002
3.301588e+003,1.577154e-002
3.303516e+003,1.579295e-002
3.305445e+003,1.582702e-002
3.307374e+003,1.583718e-002
3.309302e+003,1.583871e-002
3.311230e+003,1.585779e-002
3.313159e+003,1.588705e-002
3.315087e+003,1.594323e-002
3.317016e+003,1.600350e-002
3.318944e+003,1.600725e-002
3.320873e+003,1.597263e-002
3.322802e+003,1.591226e-002
3.324730e+003,1.602006e-002
3.326658e+003,1.612366e-002
3.328587e+003,1.608117e-002
3.330515e+003,1.610831e-002
3.332444e+003,1.610637e-002
3.334372e+003,1.610969e-002
3.336301e+003,1.606431e-002
3.338229e+003,1.606486e-002
3.340158e+003,1.610195e-002
3.342086e+003,1.614223e-002
3.344015e+003,1.604967e-002
3.345943e+003,1.590981e-002
3.347872e+003,1.591726e-002
3.349800e+003,1.596048e-002
3.351729e+003,1.595202e-002
3.353657e+003,1.589173e-002
3.355586e+003,1.589284e-002
3.357514e+003,1.589563e-002
3.359443e+003,1.584911e-002
3.361371e+003,1.588935e-002
3.363300e+003,1.586225e-002
3.365229e+003,1.583036e-002
3.367157e+003,1.576734e-002
3.369085e+003,1.571571e-002
3.371014e+003,1.566888e-002
3.372942e+003,1.573138e-002
3.374871e+003,1.574797e-002
3.376799e+003,1.559402e-002
3.378728e+003,1.551864e-002
3.380656e+003,1.553846e-002
3.382585e+003,1.557823e-002
3.384513e+003,1.559086e-002
3.386442e+003,1.557542e-002
3.388370e+003,1.550522e-002
3.390299e+003,1.547593e-002
3.392227e+003,1.543066e-002
3.394156e+003,1.535933e-002
3.396084e+003,1.529709e-002
3.398013e+003,1.519058e-002
3.399941e+003,1.518510e-002
3.401870e+003,1.517228e-002
3.403798e+003,1.510532e-002
3.405727e+003,1.497200e-002
3.407655e+003,1.485870e-002
3.409584e+003,1.487792e-002
3.411512e+003,1.482011e-002
3.413441e+003,1.470713e-002
3.415369e+003,1.469776e-002
3.417298e+003,1.473580e-002
3.419226e+003,1.459707e-002
3.421155e+003,1.447744e-002
3.423083e+003,1.445475e-002
3.425012e+003,1.444166e-002
3.426940e+003,1.433238e-002
3.428869e+003,1.423174e-002
3.430797e+003,1.406668e-002
3.432726e+003,1.400066e-002
3.434654e+003,1.398664e-002
3.436583e+003,1.384427e-002
3.438511e+003,1.373429e-002
3.440440e+003,1.370624e-002
3.442368e+003,1.359667e-002
3.444297e+003,1.346827e-002
3.446225e+003,1.342736e-002
3.448154e+003,1.335829e-002
3.450082e+003,1.324428e-002
3.452011e+003,1.317548e-002
3.453939e+003,1.310567e-002
3.455868e+003,1.295462e-002
3.457796e+003,1.276943e-002
3.459725e+003,1.267417e-002
3.461653e+003,1.262050e-002
3.463582e+003,1.257299e-002
3.465510e+003,1.251851e-002
3.467439e+003,1.234896e-002
3.469367e+003,1.231124e-002
3.471296e+003,1.225156e-002
3.473224e+003,1.217630e-002
3.475153e+003,1.207085e-002
3.477081e+003,1.193889e-002
3.479010e+003,1.190285e-002
3.480938e+003,1.180432e-002
3.482867e+003,1.176705e-002
3.484795e+003,1.171998e-002
3.486724e+003,1.162537e-002
3.488652e+003,1.155229e-002
3.490581e+003,1.146685e-002
3.492509e+003,1.134261e-002
3.494438e+003,1.128758e-002
3.496366e+003,1.116399e-002
3.498295e+003,1.111378e-002
3.500223e+003,1.104445e-002
3.502152e+003,1.087962e-002
3.504080e+003,1.071899e-002
3.506009e+003,1.072695e-002
3.507937e+003,1.076423e-002
3.509866e+003,1.070022e-002
3.511794e+003,1.061307e-002
3.513723e+003,1.058330e-002
3.515651e+003,1.049050e-002
3.517580e+003,1.039810e-002
3.519508e+003,1.028571e-002
3.521437e+003,1.009942e-002
3.523365e+003,1.009339e-002
3.525294e+003,1.007446e-002
3.527222e+003,1.004797e-002
3.529151e+003,9.995090e-003
3.531079e+003,9.866169e-003
3.533008e+003,9.744919e-003
3.534936e+003,9.609601e-003
3.536865e+003,9.677621e-003
3.538793e+003,9.708053e-003
3.540722e+003,9.584744e-003
3.542650e+003,9.438357e-003
3.544579e+003,9.365750e-003
3.546507e+003,9.340378e-003
3.548436e+003,9.293886e-003
3.550364e+003,9.186009e-003
3.552293e+003,9.075517e-003
3.554221e+003,9.000069e-003
3.556150e+003,9.027427e-003
3.558078e+003,9.073257e-003
3.560007e+003,9.003249e-003
3.561935e+003,8.874515e-003
3.563864e+003,8.814286e-003
3.565792e+003,8.797836e-003
3.567721e+003,8.863012e-003
3.569649e+003,8.787871e-003
3.571578e+003,8.678716e-003
3.573506e+003,8.619890e-003
3.575435e+003,8.552102e-003
3.577363e+003,8.514454e-003
3.579292e+003,8.523675e-003
3.581220e+003,8.506378e-003
3.583149e+003,8.394651e-003
3.585077e+003,8.418337e-003
3.587006e+003,8.498252e-003
3.588934e+003,8.514972e-003
3.590863e+003,8.645502e-003
3.592791e+003,8.722289e-003
3.594720e+003,8.640376e-003
3.596648e+003,8.565634e-003
3.598577e+003,8.584786e-003
3.600505e+003,8.529024e-003
3.602434e+003,8.452993e-003
3.604362e+003,8.440838e-003
3.606291e+003,8.265704e-003
3.608219e+003,7.977211e-003
3.610148e+003,7.730232e-003
3.612076e+003,7.529175e-003
3.614005e+003,7.540758e-003
3.615933e+003,7.708318e-003
3.617862e+003,7.847982e-003
3.619790e+003,7.981343e-003
3.621719e+003,8.159269e-003
3.623647e+003,8.251023e-003
3.625576e+003,8.162109e-003
3.627504e+003,8.090019e-003
3.629433e+003,7.979586e-003
3.631361e+003,7.903578e-003
3.633290e+003,7.706852e-003
3.635218e+003,7.504882e-003
3.637146e+003,7.347197e-003
3.639075e+003,7.224293e-003
3.641004e+003,7.108877e-003
3.642932e+003,7.019370e-003
3.644861e+003,6.870216e-003
3.646789e+003,6.784670e-003
3.648718e+003,6.797392e-003
3.650646e+003,6.881297e-003
3.652574e+003,6.897571e-003
3.654503e+003,6.824546e-003
3.656432e+003,6.761300e-003
3.658360e+003,6.755139e-003
3.660289e+003,6.707442e-003
3.662217e+003,6.626124e-003
3.664146e+003,6.675073e-003
3.666074e+003,6.763859e-003
3.668002e+003,6.781562e-003
3.669931e+003,6.756348e-003
3.671860e+003,6.680923e-003
3.673788e+003,6.767579e-003
3.675717e+003,6.825662e-003
3.677645e+003,6.829426e-003
3.679573e+003,6.888859e-003
3.681502e+003,6.986473e-003
3.683430e+003,7.073969e-003
3.685359e+003,7.111195e-003
3.687288e+003,7.247864e-003
3.689216e+003,7.426815e-003
3.691145e+003,7.544759e-003
3.693073e+003,7.652158e-003
3.695001e+003,7.746491e-003
3.696930e+003,7.764000e-003
3.698858e+003,7.848444e-003
3.700787e+003,7.893035e-003
3.702716e+003,7.849886e-003
3.704644e+003,7.838098e-003
3.706573e+003,7.729534e-003
3.708501e+003,7.586466e-003
3.710429e+003,7.471228e-003
3.712358e+003,7.263912e-003
3.714286e+003,6.938328e-003
3.716215e+003,7.102454e-003
3.718144e+003,7.433387e-003
3.720072e+003,7.699987e-003
3.722000e+003,7.959673e-003
3.723929e+003,8.152056e-003
3.725857e+003,8.275959e-003
3.727786e+003,8.397311e-003
3.729714e+003,8.380724e-003
3.731643e+003,8.313827e-003
3.733572e+003,8.069083e-003
3.735500e+003,7.895743e-003
3.737428e+003,7.822582e-003
3.739357e+003,7.607739e-003
3.741285e+003,7.283306e-003
3.743214e+003,7.153387e-003
3.745142e+003,7.074299e-003
3.747071e+003,6.910900e-003
3.749000e+003,6.891523e-003
3.750928e+003,6.789225e-003
3.752856e+003,6.850118e-003
3.754785e+003,6.860193e-003
3.756713e+003,6.810224e-003
3.758642e+003,6.889773e-003
3.760570e+003,6.925390e-003
3.762499e+003,6.817392e-003
3.764427e+003,6.796502e-003
3.766356e+003,6.854055e-003
3.768284e+003,6.949074e-003
3.770213e+003,6.945435e-003
3.772141e+003,6.984356e-003
3.774070e+003,7.020914e-003
3.775998e+003,6.962749e-003
3.777927e+003,6.978936e-003
3.779855e+003,6.968704e-003
3.781784e+003,7.002106e-003
3.783712e+003,7.065208e-003
3.785641e+003,6.974237e-003
3.787569e+003,7.071804e-003
3.789498e+003,7.100504e-003
3.791426e+003,7.015607e-003
3.793355e+003,6.949806e-003
3.795283e+003,6.991554e-003
3.797212e+003,7.077994e-003
3.799140e+003,7.100319e-003
3.801069e+003,7.091203e-003
3.802997e+003,7.046074e-003
3.804926e+003,7.050189e-003
3.806854e+003,7.117998e-003
3.808783e+003,7.218740e-003
3.810711e+003,7.282527e-003
3.812640e+003,7.225697e-003
3.814568e+003,7.322010e-003
3.816497e+003,7.385625e-003
3.818425e+003,7.234903e-003
3.820354e+003,7.117787e-003
3.822282e+003,7.147098e-003
3.824211e+003,7.191213e-003
3.826139e+003,7.158105e-003
3.828068e+003,7.176353e-003
3.829996e+003,7.188776e-003
3.831925e+003,7.209742e-003
3.833853e+003,7.213934e-003
3.835782e+003,7.233828e-003
3.837710e+003,7.294196e-003
3.839639e+003,7.272019e-003
3.841567e+003,7.312409e-003
3.843496e+003,7.364878e-003
3.845424e+003,7.239974e-003
3.847353e+003,7.125063e-003
3.849281e+003,7.121888e-003
3.851210e+003,7.179931e-003
3.853138e+003,7.197676e-003
3.855067e+003,7.254024e-003
3.856995e+003,7.324608e-003
3.858924e+003,7.327681e-003
3.860852e+003,7.243399e-003
3.862781e+003,7.268447e-003
3.864709e+003,7.341240e-003
3.866638e+003,7.398755e-003
3.868566e+003,7.364681e-003
3.870495e+003,7.372849e-003
3.872423e+003,7.357950e-003
3.874352e+003,7.311087e-003
3.876280e+003,7.262647e-003
3.878209e+003,7.236611e-003
3.880137e+003,7.192219e-003
3.882066e+003,7.250408e-003
3.883994e+003,7.368984e-003
3.885923e+003,7.482818e-003
3.887851e+003,7.440369e-003
3.889780e+003,7.369724e-003
3.891708e+003,7.320672e-003
3.893637e+003,7.407793e-003
3.895565e+003,7.403442e-003
3.897494e+003,7.395988e-003
3.899422e+003,7.356111e-003
3.901351e+003,7.268865e-003
3.903279e+003,7.271392e-003
3.905208e+003,7.351661e-003
3.907136e+003,7.367709e-003
3.909065e+003,7.341463e-003
3.910993e+003,7.366011e-003
3.912922e+003,7.446372e-003
3.914850e+003,7.399963e-003
3.916779e+003,7.360891e-003
3.918707e+003,7.395569e-003
3.920636e+003,7.434863e-003
3.922564e+003,7.396635e-003
3.924493e+003,7.344977e-003
3.926421e+003,7.277822e-003
3.928350e+003,7.308636e-003
3.930278e+003,7.423860e-003
3.932207e+003,7.437245e-003
3.934135e+003,7.423890e-003
3.936064e+003,7.435699e-003
3.937992e+003,7.442229e-003
3.939921e+003,7.428546e-003
3.941849e+003,7.487589e-003
3.943778e+003,7.472058e-003
3.945706e+003,7.455560e-003
3.947635e+003,7.477038e-003
3.949563e+003,7.519315e-003
3.951492e+003,7.597906e-003
3.953420e+003,7.524385e-003
3.955349e+003,7.491619e-003
3.957277e+003,7.605879e-003
3.959206e+003,7.549586e-003
3.961134e+003,7.477026e-003
3.963063e+003,7.505414e-003
3.964991e+003,7.476038e-003
3.966920e+003,7.441834e-003
3.968848e+003,7.451767e-003
3.970777e+003,7.535920e-003
3.972705e+003,7.532656e-003
3.974634e+003,7.537546e-003
3.976562e+003,7.473040e-003
3.978491e+003,7.443665e-003
3.980419e+003,7.501520e-003
3.982348e+003,7.517221e-003
3.984276e+003,7.488915e-003
3.986205e+003,7.478732e-003
3.988133e+003,7.547965e-003
3.990062e+003,7.514297e-003
3.991990e+003,7.555396e-003
3.993919e+003,7.484168e-003
3.995847e+003,7.389766e-003
3.997776e+003,7.429102e-003
3.999704e+003,7.429346e-003
4.001633e+003,0.000000e+000
