3.991989e+002,3.570854e-002
4.011274e+002,3.625103e-002
4.030559e+002,3.625103e-002
4.049844e+002,3.719192e-002
4.069129e+002,3.705842e-002
4.088414e+002,3.526097e-002
4.107699e+002,3.490722e-002
4.126984e+002,3.592554e-002
4.146269e+002,3.728008e-002
4.165554e+002,3.822175e-002
4.184839e+002,3.866216e-002
4.204124e+002,3.806010e-002
4.223409e+002,3.701528e-002
4.242694e+002,3.703741e-002
4.261979e+002,3.800956e-002
4.281264e+002,3.942823e-002
4.300549e+002,3.890329e-002
4.319834e+002,3.844005e-002
4.339119e+002,3.881821e-002
4.358404e+002,3.906316e-002
4.377689e+002,3.873459e-002
4.396974e+002,3.894397e-002
4.416259e+002,3.904300e-002
4.435544e+002,3.837327e-002
4.454829e+002,3.780787e-002
4.474114e+002,3.780986e-002
4.493399e+002,3.813378e-002
4.512684e+002,3.844392e-002
4.531969e+002,3.854144e-002
4.551254e+002,3.894491e-002
4.570539e+002,3.889766e-002
4.589824e+002,3.833661e-002
4.609109e+002,3.783707e-002
4.628394e+002,3.755312e-002
4.647679e+002,3.671251e-002
4.666964e+002,3.665552e-002
4.686249e+002,3.678298e-002
4.705533e+002,3.687392e-002
4.724819e+002,3.661629e-002
4.744103e+002,3.684550e-002
4.763389e+002,3.687640e-002
4.782673e+002,3.732635e-002
4.801959e+002,3.690521e-002
4.821243e+002,3.637639e-002
4.840529e+002,3.649622e-002
4.859813e+002,3.645903e-002
4.879099e+002,3.650608e-002
4.898383e+002,3.669078e-002
4.917668e+002,3.658807e-002
4.936953e+002,3.654014e-002
4.956238e+002,3.735388e-002
4.975523e+002,3.678915e-002
4.994808e+002,3.636824e-002
5.014093e+002,3.634956e-002
5.033378e+002,3.621646e-002
5.052663e+002,3.652593e-002
5.071948e+002,3.630533e-002
5.091233e+002,3.640740e-002
5.110518e+002,3.633536e-002
5.129803e+002,3.707654e-002
5.149088e+002,3.740561e-002
5.168373e+002,3.760197e-002
5.187658e+002,3.796221e-002
5.206943e+002,3.844737e-002
5.226228e+002,3.861959e-002
5.245513e+002,3.846403e-002
5.264798e+002,3.822221e-002
5.284083e+002,3.815792e-002
5.303368e+002,3.785634e-002
5.322653e+002,3.796175e-002
5.341938e+002,3.801270e-002
5.361223e+002,3.762968e-002
5.380508e+002,3.687808e-002
5.399792e+002,3.696360e-002
5.419078e+002,3.721086e-002
5.438363e+002,3.706200e-002
5.457648e+002,3.699639e-002
5.476932e+002,3.697418e-002
5.496218e+002,3.727097e-002
5.515503e+002,3.774517e-002
5.534788e+002,3.805940e-002
5.554072e+002,3.814013e-002
5.573358e+002,3.810578e-002
5.592643e+002,3.867541e-002
5.611927e+002,3.845542e-002
5.631212e+002,3.784478e-002
5.650497e+002,3.748460e-002
5.669783e+002,3.707471e-002
5.689067e+002,3.656992e-002
5.708352e+002,3.645849e-002
5.727637e+002,3.636555e-002
5.746923e+002,3.635500e-002
5.766207e+002,3.640354e-002
5.785492e+002,3.644674e-002
5.804777e+002,3.633714e-002
5.824063e+002,3.619617e-002
5.843347e+002,3.609475e-002
5.862632e+002,3.609326e-002
5.881917e+002,3.622568e-002
5.901202e+002,3.636450e-002
5.920487e+002,3.614704e-002
5.939772e+002,3.612843e-002
5.959057e+002,3.597198e-002
5.978342e+002,3.551713e-002
5.997627e+002,3.534937e-002
6.016912e+002,3.548320e-002
6.036197e+002,3.555105e-002
6.055482e+002,3.546549e-002
6.074767e+002,3.514620e-002
6.094052e+002,3.488667e-002
6.113337e+002,3.467957e-002
6.132622e+002,3.451783e-002
6.151907e+002,3.408451e-002
6.171192e+002,3.361567e-002
6.190477e+002,3.340332e-002
6.209762e+002,3.318402e-002
6.229047e+002,3.271311e-002
6.248332e+002,3.210259e-002
6.267617e+002,3.145555e-002
6.286902e+002,3.100359e-002
6.306187e+002,3.094929e-002
6.325472e+002,3.070741e-002
6.344756e+002,3.020507e-002
6.364042e+002,2.992570e-002
6.383326e+002,2.992519e-002
6.402612e+002,2.983036e-002
6.421896e+002,2.959547e-002
6.441182e+002,2.928753e-002
6.460466e+002,2.883815e-002
6.479752e+002,2.875089e-002
6.499036e+002,2.877807e-002
6.518322e+002,2.862063e-002
6.537606e+002,2.857613e-002
6.556891e+002,2.863751e-002
6.576177e+002,2.882283e-002
6.595461e+002,2.888049e-002
6.614746e+002,2.895748e-002
6.634031e+002,2.905461e-002
6.653317e+002,2.883717e-002
6.672601e+002,2.853364e-002
6.691886e+002,2.837660e-002
6.711171e+002,2.795888e-002
6.730457e+002,2.757750e-002
6.749741e+002,2.724313e-002
6.769026e+002,2.663118e-002
6.788311e+002,2.575608e-002
6.807596e+002,2.512634e-002
6.826881e+002,2.471629e-002
6.846166e+002,2.428325e-002
6.865451e+002,2.398924e-002
6.884736e+002,2.382560e-002
6.904021e+002,2.382342e-002
6.923306e+002,2.373357e-002
6.942591e+002,2.364048e-002
6.961876e+002,2.359213e-002
6.981161e+002,2.358461e-002
7.000446e+002,2.332508e-002
7.019731e+002,2.319643e-002
7.039016e+002,2.314341e-002
7.058301e+002,2.307400e-002
7.077585e+002,2.291621e-002
7.096871e+002,2.272670e-002
7.116156e+002,2.257789e-002
7.135441e+002,2.241975e-002
7.154725e+002,2.226601e-002
7.174011e+002,2.221905e-002
7.193296e+002,2.197658e-002
7.212581e+002,2.165044e-002
7.231865e+002,2.158806e-002
7.251151e+002,2.153208e-002
7.270436e+002,2.128706e-002
7.289720e+002,2.109843e-002
7.309005e+002,2.092380e-002
7.328290e+002,2.075402e-002
7.347576e+002,2.064162e-002
7.366860e+002,2.054536e-002
7.386145e+002,2.039145e-002
7.405430e+002,2.031195e-002
7.424716e+002,2.028110e-002
7.444000e+002,2.018093e-002
7.463285e+002,1.998723e-002
7.482570e+002,1.994727e-002
7.501855e+002,1.972257e-002
7.521140e+002,1.945560e-002
7.540425e+002,1.933420e-002
7.559710e+002,1.922539e-002
7.578995e+002,1.913247e-002
7.598280e+002,1.903452e-002
7.617565e+002,1.880533e-002
7.636850e+002,1.874877e-002
7.656135e+002,1.874652e-002
7.675420e+002,1.858817e-002
7.694705e+002,1.843136e-002
7.713990e+002,1.849729e-002
7.733275e+002,1.846355e-002
7.752560e+002,1.828806e-002
7.771844e+002,1.817520e-002
7.791130e+002,1.819452e-002
7.810415e+002,1.834429e-002
7.829700e+002,1.835766e-002
7.848984e+002,1.821570e-002
7.868270e+002,1.810811e-002
7.887555e+002,1.797365e-002
7.906840e+002,1.796629e-002
7.926124e+002,1.797538e-002
7.945410e+002,1.797869e-002
7.964695e+002,1.790559e-002
7.983979e+002,1.782041e-002
8.003264e+002,1.792503e-002
8.022549e+002,1.795417e-002
8.041835e+002,1.790479e-002
8.061119e+002,1.793173e-002
8.080404e+002,1.803872e-002
8.099689e+002,1.800469e-002
8.118975e+002,1.793476e-002
8.138259e+002,1.793687e-002
8.157545e+002,1.801409e-002
8.176830e+002,1.804621e-002
8.196115e+002,1.805830e-002
8.215399e+002,1.810935e-002
8.234684e+002,1.812780e-002
8.253970e+002,1.821525e-002
8.273254e+002,1.825709e-002
8.292539e+002,1.830966e-002
8.311824e+002,1.833758e-002
8.331110e+002,1.838978e-002
8.350394e+002,1.839202e-002
8.369679e+002,1.832141e-002
8.388964e+002,1.828035e-002
8.408250e+002,1.818000e-002
8.427534e+002,1.802428e-002
8.446819e+002,1.795175e-002
8.466104e+002,1.791626e-002
8.485389e+002,1.788660e-002
8.504674e+002,1.776173e-002
8.523959e+002,1.771489e-002
8.543244e+002,1.780281e-002
8.562529e+002,1.788107e-002
8.581814e+002,1.785031e-002
8.601099e+002,1.782400e-002
8.620384e+002,1.790203e-002
8.639669e+002,1.801499e-002
8.658954e+002,1.811367e-002
8.678239e+002,1.819939e-002
8.697524e+002,1.826653e-002
8.716809e+002,1.833319e-002
8.736094e+002,1.842752e-002
8.755378e+002,1.856112e-002
8.774664e+002,1.865412e-002
8.793949e+002,1.878790e-002
8.813234e+002,1.900599e-002
8.832518e+002,1.926663e-002
8.851804e+002,1.964177e-002
8.871089e+002,2.002726e-002
8.890374e+002,2.040786e-002
8.909658e+002,2.086495e-002
8.928943e+002,2.120926e-002
8.948229e+002,2.146272e-002
8.967513e+002,2.168213e-002
8.986798e+002,2.167259e-002
9.006083e+002,2.140264e-002
9.025369e+002,2.110447e-002
9.044653e+002,2.078496e-002
9.063938e+002,2.050896e-002
9.083223e+002,2.026366e-002
9.102509e+002,2.012304e-002
9.121793e+002,2.008022e-002
9.141078e+002,2.003275e-002
9.160364e+002,2.000652e-002
9.179648e+002,2.013245e-002
9.198933e+002,2.020013e-002
9.218218e+002,2.030702e-002
9.237504e+002,2.045276e-002
9.256788e+002,2.049955e-002
9.276073e+002,2.058702e-002
9.295358e+002,2.080231e-002
9.314644e+002,2.106058e-002
9.333928e+002,2.128379e-002
9.353213e+002,2.150168e-002
9.372498e+002,2.179036e-002
9.391783e+002,2.211086e-002
9.411068e+002,2.253781e-002
9.430353e+002,2.301067e-002
9.449637e+002,2.343159e-002
9.468923e+002,2.384987e-002
9.488208e+002,2.440161e-002
9.507493e+002,2.500782e-002
9.526777e+002,2.564837e-002
9.546063e+002,2.630642e-002
9.565348e+002,2.692573e-002
9.584633e+002,2.759157e-002
9.603917e+002,2.834063e-002
9.623203e+002,2.901280e-002
9.642488e+002,2.963456e-002
9.661772e+002,3.031492e-002
9.681057e+002,3.090739e-002
9.700343e+002,3.159576e-002
9.719628e+002,3.220372e-002
9.738912e+002,3.284412e-002
9.758197e+002,3.371637e-002
9.777483e+002,3.471092e-002
9.796768e+002,3.576607e-002
9.816052e+002,3.684077e-002
9.835337e+002,3.792519e-002
9.854623e+002,3.893908e-002
9.873907e+002,3.973358e-002
9.893192e+002,4.022551e-002
9.912477e+002,4.053393e-002
9.931763e+002,4.059709e-002
9.951047e+002,4.061171e-002
9.970332e+002,4.078431e-002
9.989617e+002,4.118179e-002
1.000890e+003,4.173814e-002
1.002819e+003,4.226357e-002
1.004747e+003,4.275808e-002
1.006676e+003,4.319826e-002
1.008604e+003,4.372624e-002
1.010533e+003,4.426942e-002
1.012461e+003,4.482412e-002
1.014390e+003,4.554574e-002
1.016318e+003,4.640206e-002
1.018247e+003,4.720846e-002
1.020175e+003,4.803227e-002
1.022104e+003,4.886659e-002
1.024032e+003,4.971503e-002
1.025961e+003,5.058140e-002
1.027889e+003,5.139729e-002
1.029818e+003,5.219389e-002
1.031746e+003,5.282631e-002
1.033675e+003,5.314712e-002
1.035603e+003,5.303217e-002
1.037532e+003,5.252025e-002
1.039460e+003,5.176120e-002
1.041389e+003,5.096661e-002
1.043317e+003,5.044052e-002
1.045246e+003,5.009750e-002
1.047174e+003,4.984903e-002
1.049103e+003,4.969653e-002
1.051031e+003,4.955531e-002
1.052960e+003,4.932837e-002
1.054888e+003,4.885962e-002
1.056817e+003,4.817745e-002
1.058745e+003,4.741078e-002
1.060674e+003,4.646751e-002
1.062602e+003,4.529643e-002
1.064531e+003,4.401058e-002
1.066459e+003,4.275004e-002
1.068388e+003,4.160706e-002
1.070316e+003,4.051939e-002
1.072245e+003,3.962895e-002
1.074173e+003,3.880018e-002
1.076102e+003,3.793962e-002
1.078030e+003,3.714760e-002
1.079959e+003,3.632704e-002
1.081887e+003,3.558603e-002
1.083816e+003,3.494686e-002
1.085744e+003,3.446747e-002
1.087673e+003,3.413471e-002
1.089601e+003,3.396753e-002
1.091530e+003,3.375418e-002
1.093458e+003,3.349674e-002
1.095387e+003,3.334269e-002
1.097315e+003,3.328766e-002
1.099244e+003,3.331589e-002
1.101172e+003,3.345257e-002
1.103101e+003,3.353776e-002
1.105029e+003,3.348081e-002
1.106958e+003,3.318876e-002
1.108886e+003,3.263764e-002
1.110815e+003,3.198385e-002
1.112743e+003,3.125423e-002
1.114672e+003,3.028085e-002
1.116600e+003,2.935845e-002
1.118529e+003,2.855590e-002
1.120457e+003,2.788289e-002
1.122386e+003,2.727491e-002
1.124314e+003,2.665683e-002
1.126243e+003,2.584870e-002
1.128171e+003,2.488303e-002
1.130100e+003,2.396557e-002
1.132028e+003,2.313587e-002
1.133957e+003,2.237916e-002
1.135885e+003,2.167447e-002
1.137814e+003,2.115589e-002
1.139742e+003,2.089596e-002
1.141671e+003,2.088525e-002
1.143599e+003,2.101676e-002
1.145528e+003,2.130672e-002
1.147456e+003,2.173184e-002
1.149385e+003,2.212808e-002
1.151313e+003,2.256525e-002
1.153242e+003,2.306780e-002
1.155170e+003,2.355173e-002
1.157099e+003,2.396396e-002
1.159027e+003,2.421161e-002
1.160956e+003,2.426108e-002
1.162884e+003,2.410425e-002
1.164813e+003,2.365644e-002
1.166741e+003,2.286896e-002
1.168670e+003,2.185339e-002
1.170598e+003,2.080321e-002
1.172526e+003,1.971000e-002
1.174455e+003,1.866557e-002
1.176384e+003,1.782297e-002
1.178312e+003,1.713645e-002
1.180240e+003,1.653455e-002
1.182169e+003,1.599838e-002
1.184098e+003,1.561380e-002
1.186026e+003,1.533890e-002
1.187954e+003,1.521582e-002
1.189883e+003,1.517978e-002
1.191812e+003,1.522892e-002
1.193740e+003,1.536971e-002
1.195668e+003,1.565722e-002
1.197597e+003,1.587596e-002
1.199526e+003,1.612941e-002
1.201454e+003,1.631850e-002
1.203382e+003,1.638906e-002
1.205311e+003,1.643752e-002
1.207240e+003,1.646628e-002
1.209168e+003,1.643301e-002
1.211096e+003,1.648896e-002
1.213025e+003,1.666323e-002
1.214953e+003,1.689887e-002
1.216882e+003,1.718637e-002
1.218810e+003,1.749175e-002
1.220739e+003,1.778592e-002
1.222667e+003,1.814384e-002
1.224596e+003,1.851208e-002
1.226524e+003,1.882875e-002
1.228453e+003,1.913492e-002
1.230381e+003,1.944049e-002
1.232310e+003,1.968755e-002
1.234238e+003,1.981258e-002
1.236167e+003,1.989724e-002
1.238095e+003,1.993524e-002
1.240024e+003,1.992958e-002
1.241952e+003,1.990064e-002
1.243881e+003,1.980682e-002
1.245809e+003,1.968697e-002
1.247738e+003,1.949316e-002
1.249666e+003,1.925986e-002
1.251595e+003,1.906988e-002
1.253523e+003,1.885115e-002
1.255452e+003,1.861482e-002
1.257380e+003,1.833948e-002
1.259309e+003,1.806999e-002
1.261237e+003,1.780534e-002
1.263166e+003,1.750594e-002
1.265094e+003,1.718934e-002
1.267023e+003,1.689054e-002
1.268951e+003,1.658411e-002
1.270880e+003,1.624694e-002
1.272808e+003,1.593854e-002
1.274737e+003,1.567199e-002
1.276665e+003,1.548712e-002
1.278594e+003,1.531010e-002
1.280522e+003,1.513716e-002
1.282451e+003,1.497183e-002
1.284379e+003,1.482597e-002
1.286308e+003,1.467737e-002
1.288236e+003,1.455739e-002
1.290165e+003,1.447580e-002
1.292093e+003,1.443220e-002
1.294022e+003,1.449680e-002
1.295950e+003,1.461496e-002
1.297879e+003,1.472189e-002
1.299807e+003,1.490140e-002
1.301736e+003,1.513781e-002
1.303664e+003,1.537754e-002
1.305593e+003,1.561043e-002
1.307521e+003,1.585307e-002
1.309450e+003,1.611034e-002
1.311378e+003,1.636293e-002
1.313307e+003,1.656398e-002
1.315235e+003,1.666722e-002
1.317164e+003,1.669024e-002
1.319092e+003,1.666747e-002
1.321021e+003,1.655908e-002
1.322949e+003,1.645849e-002
1.324878e+003,1.632303e-002
1.326806e+003,1.622439e-002
1.328735e+003,1.614726e-002
1.330663e+003,1.607352e-002
1.332592e+003,1.604499e-002
1.334520e+003,1.598681e-002
1.336449e+003,1.587215e-002
1.338377e+003,1.571850e-002
1.340306e+003,1.555562e-002
1.342234e+003,1.541967e-002
1.344163e+003,1.535560e-002
1.346091e+003,1.533652e-002
1.348020e+003,1.535839e-002
1.349948e+003,1.538989e-002
1.351877e+003,1.548815e-002
1.353805e+003,1.564677e-002
1.355734e+003,1.578951e-002
1.357662e+003,1.595631e-002
1.359591e+003,1.612829e-002
1.361519e+003,1.627766e-002
1.363448e+003,1.641685e-002
1.365376e+003,1.650256e-002
1.367305e+003,1.654870e-002
1.369233e+003,1.654582e-002
1.371162e+003,1.642661e-002
1.373090e+003,1.626522e-002
1.375019e+003,1.609717e-002
1.376947e+003,1.584034e-002
1.378876e+003,1.557436e-002
1.380804e+003,1.524992e-002
1.382733e+003,1.488056e-002
1.384661e+003,1.456542e-002
1.386590e+003,1.427620e-002
1.388518e+003,1.406342e-002
1.390447e+003,1.392424e-002
1.392375e+003,1.380644e-002
1.394304e+003,1.373953e-002
1.396232e+003,1.366292e-002
1.398161e+003,1.361432e-002
1.400089e+003,1.361967e-002
1.402018e+003,1.364371e-002
1.403946e+003,1.367321e-002
1.405875e+003,1.373511e-002
1.407803e+003,1.380874e-002
1.409732e+003,1.389355e-002
1.411660e+003,1.398490e-002
1.413589e+003,1.415684e-002
1.415517e+003,1.433614e-002
1.417446e+003,1.451782e-002
1.419374e+003,1.468405e-002
1.421303e+003,1.478533e-002
1.423231e+003,1.480709e-002
1.425160e+003,1.479261e-002
1.427088e+003,1.471061e-002
1.429017e+003,1.462351e-002
1.430945e+003,1.451483e-002
1.432874e+003,1.432734e-002
1.434802e+003,1.411231e-002
1.436731e+003,1.393661e-002
1.438659e+003,1.382473e-002
1.440588e+003,1.372807e-002
1.442516e+003,1.367242e-002
1.444445e+003,1.369092e-002
1.446373e+003,1.369461e-002
1.448302e+003,1.370772e-002
1.450230e+003,1.375336e-002
1.452159e+003,1.379491e-002
1.454087e+003,1.375076e-002
1.456016e+003,1.366444e-002
1.457944e+003,1.357455e-002
1.459873e+003,1.348706e-002
1.461801e+003,1.339330e-002
1.463730e+003,1.325203e-002
1.465658e+003,1.303449e-002
1.467587e+003,1.269051e-002
1.469515e+003,1.231408e-002
1.471444e+003,1.195210e-002
1.473372e+003,1.161352e-002
1.475301e+003,1.130166e-002
1.477229e+003,1.111286e-002
1.479158e+003,1.101706e-002
1.481086e+003,1.095210e-002
1.483015e+003,1.093812e-002
1.484943e+003,1.092155e-002
1.486872e+003,1.095876e-002
1.488800e+003,1.107409e-002
1.490729e+003,1.125909e-002
1.492657e+003,1.142215e-002
1.494586e+003,1.155893e-002
1.496514e+003,1.173524e-002
1.498443e+003,1.190171e-002
1.500371e+003,1.200753e-002
1.502300e+003,1.209647e-002
1.504228e+003,1.219462e-002
1.506157e+003,1.226853e-002
1.508085e+003,1.235141e-002
1.510014e+003,1.240115e-002
1.511942e+003,1.240680e-002
1.513871e+003,1.239034e-002
1.515799e+003,1.230782e-002
1.517728e+003,1.207291e-002
1.519656e+003,1.179919e-002
1.521585e+003,1.157834e-002
1.523513e+003,1.140383e-002
1.525442e+003,1.127189e-002
1.527370e+003,1.119046e-002
1.529299e+003,1.117529e-002
1.531227e+003,1.119705e-002
1.533156e+003,1.116394e-002
1.535084e+003,1.110741e-002
1.537013e+003,1.108976e-002
1.538941e+003,1.110309e-002
1.540870e+003,1.111761e-002
1.542798e+003,1.112178e-002
1.544727e+003,1.110100e-002
1.546655e+003,1.108925e-002
1.548584e+003,1.106932e-002
1.550512e+003,1.104246e-002
1.552441e+003,1.099033e-002
1.554369e+003,1.096286e-002
1.556298e+003,1.094352e-002
1.558226e+003,1.095986e-002
1.560155e+003,1.103776e-002
1.562083e+003,1.105592e-002
1.564012e+003,1.103310e-002
1.565940e+003,1.104736e-002
1.567869e+003,1.111342e-002
1.569797e+003,1.123620e-002
1.571726e+003,1.133735e-002
1.573654e+003,1.144204e-002
1.575583e+003,1.158737e-002
1.577511e+003,1.172667e-002
1.579440e+003,1.191381e-002
1.581368e+003,1.213735e-002
1.583297e+003,1.235152e-002
1.585225e+003,1.256872e-002
1.587154e+003,1.278732e-002
1.589082e+003,1.296538e-002
1.591010e+003,1.312240e-002
1.592939e+003,1.322958e-002
1.594868e+003,1.328311e-002
1.596796e+003,1.332822e-002
1.598724e+003,1.335404e-002
1.600653e+003,1.344307e-002
1.602582e+003,1.351848e-002
1.604510e+003,1.352546e-002
1.606438e+003,1.343588e-002
1.608367e+003,1.332424e-002
1.610296e+003,1.332901e-002
1.612224e+003,1.337956e-002
1.614152e+003,1.344261e-002
1.616081e+003,1.356100e-002
1.618010e+003,1.368295e-002
1.619938e+003,1.378141e-002
1.621866e+003,1.387352e-002
1.623795e+003,1.395040e-002
1.625724e+003,1.399217e-002
1.627652e+003,1.400698e-002
1.629580e+003,1.401003e-002
1.631509e+003,1.396376e-002
1.633438e+003,1.384421e-002
1.635366e+003,1.372695e-002
1.637294e+003,1.366937e-002
1.639223e+003,1.356113e-002
1.641151e+003,1.347813e-002
1.643080e+003,1.344165e-002
1.645008e+003,1.339697e-002
1.646937e+003,1.337441e-002
1.648865e+003,1.333853e-002
1.650794e+003,1.333085e-002
1.652722e+003,1.328958e-002
1.654651e+003,1.320093e-002
1.656579e+003,1.311112e-002
1.658508e+003,1.291554e-002
1.660436e+003,1.269243e-002
1.662365e+003,1.249428e-002
1.664293e+003,1.230825e-002
1.666222e+003,1.211432e-002
1.668150e+003,1.192536e-002
1.670079e+003,1.178869e-002
1.672007e+003,1.166239e-002
1.673936e+003,1.154851e-002
1.675864e+003,1.142672e-002
1.677793e+003,1.131398e-002
1.679721e+003,1.123895e-002
1.681650e+003,1.108384e-002
1.683578e+003,1.102563e-002
1.685507e+003,1.097329e-002
1.687435e+003,1.094286e-002
1.689364e+003,1.088330e-002
1.691292e+003,1.086651e-002
1.693221e+003,1.086853e-002
1.695149e+003,1.081060e-002
1.697078e+003,1.079020e-002
1.699006e+003,1.076210e-002
1.700935e+003,1.071372e-002
1.702863e+003,1.065249e-002
1.704792e+003,1.061761e-002
1.706720e+003,1.066894e-002
1.708649e+003,1.069315e-002
1.710577e+003,1.071766e-002
1.712506e+003,1.075828e-002
1.714434e+003,1.078349e-002
1.716363e+003,1.085930e-002
1.718291e+003,1.093922e-002
1.720220e+003,1.099544e-002
1.722148e+003,1.108911e-002
1.724077e+003,1.120467e-002
1.726005e+003,1.122367e-002
1.727934e+003,1.123555e-002
1.729862e+003,1.125455e-002
1.731791e+003,1.120134e-002
1.733719e+003,1.113464e-002
1.735648e+003,1.102589e-002
1.737576e+003,1.088393e-002
1.739505e+003,1.082950e-002
1.741433e+003,1.062205e-002
1.743362e+003,1.036292e-002
1.745290e+003,1.015628e-002
1.747219e+003,9.945156e-003
1.749147e+003,9.692253e-003
1.751076e+003,9.521210e-003
1.753004e+003,9.328506e-003
1.754933e+003,9.182225e-003
1.756861e+003,9.042832e-003
1.758790e+003,8.836322e-003
1.760718e+003,8.668216e-003
1.762647e+003,8.545746e-003
1.764575e+003,8.456854e-003
1.766504e+003,8.385689e-003
1.768432e+003,8.317566e-003
1.770361e+003,8.273590e-003
1.772289e+003,8.252730e-003
1.774218e+003,8.154594e-003
1.776146e+003,8.137991e-003
1.778075e+003,8.164920e-003
1.780003e+003,8.155653e-003
1.781932e+003,8.135225e-003
1.783860e+003,8.104901e-003
1.785789e+003,8.092008e-003
1.787717e+003,8.164384e-003
1.789646e+003,8.230024e-003
1.791574e+003,8.232942e-003
1.793503e+003,8.160829e-003
1.795431e+003,8.101215e-003
1.797360e+003,8.120977e-003
1.799288e+003,8.181703e-003
1.801217e+003,8.207174e-003
1.803145e+003,8.200370e-003
1.805074e+003,8.265836e-003
1.807002e+003,8.239731e-003
1.808931e+003,8.150870e-003
1.810859e+003,8.107192e-003
1.812788e+003,8.100896e-003
1.814716e+003,8.100110e-003
1.816645e+003,8.125286e-003
1.818573e+003,8.166766e-003
1.820502e+003,8.235631e-003
1.822430e+003,8.257595e-003
1.824359e+003,8.231748e-003
1.826287e+003,8.188837e-003
1.828216e+003,8.261125e-003
1.830144e+003,8.286602e-003
1.832073e+003,8.151266e-003
1.834001e+003,8.150179e-003
1.835930e+003,8.278836e-003
1.837858e+003,8.284113e-003
1.839787e+003,8.296839e-003
1.841715e+003,8.278410e-003
1.843644e+003,8.136760e-003
1.845572e+003,8.058231e-003
1.847501e+003,8.073364e-003
1.849429e+003,8.112578e-003
1.851358e+003,8.171999e-003
1.853286e+003,8.200841e-003
1.855215e+003,8.187275e-003
1.857143e+003,8.140230e-003
1.859072e+003,8.159919e-003
1.861000e+003,8.175059e-003
1.862929e+003,8.072647e-003
1.864857e+003,8.082638e-003
1.866786e+003,8.069200e-003
1.868714e+003,7.920419e-003
1.870643e+003,8.030511e-003
1.872571e+003,8.105702e-003
1.874500e+003,7.987399e-003
1.876428e+003,7.864172e-003
1.878357e+003,7.933185e-003
1.880285e+003,8.132209e-003
1.882214e+003,8.261085e-003
1.884142e+003,8.131618e-003
1.886071e+003,7.969032e-003
1.887999e+003,7.800600e-003
1.889928e+003,7.894458e-003
1.891856e+003,8.008268e-003
1.893785e+003,7.943785e-003
1.895713e+003,7.732343e-003
1.897642e+003,7.770064e-003
1.899570e+003,7.979644e-003
1.901499e+003,7.931784e-003
1.903427e+003,7.747952e-003
1.905356e+003,7.557260e-003
1.907284e+003,7.501819e-003
1.909213e+003,7.458988e-003
1.911141e+003,7.368850e-003
1.913070e+003,7.268386e-003
1.914998e+003,7.162492e-003
1.916927e+003,7.191858e-003
1.918855e+003,7.107197e-003
1.920784e+003,7.284546e-003
1.922712e+003,7.350197e-003
1.924641e+003,7.061785e-003
1.926569e+003,6.975626e-003
1.928498e+003,7.129139e-003
1.930426e+003,6.786530e-003
1.932355e+003,6.516414e-003
1.934283e+003,6.924871e-003
1.936212e+003,6.995162e-003
1.938140e+003,6.626860e-003
1.940069e+003,6.590274e-003
1.941997e+003,6.746421e-003
1.943926e+003,6.419389e-003
1.945854e+003,6.212600e-003
1.947783e+003,6.056783e-003
1.949711e+003,5.964199e-003
1.951640e+003,6.435822e-003
1.953568e+003,6.062882e-003
1.955497e+003,5.357407e-003
1.957425e+003,4.680674e-003
1.959354e+003,4.674689e-003
1.961282e+003,4.608709e-003
1.963211e+003,4.205226e-003
1.965139e+003,3.733998e-003
1.967068e+003,3.755390e-003
1.968996e+003,3.055564e-003
1.970925e+003,3.078166e-003
1.972853e+003,2.516700e-003
1.974782e+003,1.441525e-003
1.976710e+003,1.354589e-003
1.978639e+003,2.167261e-003
1.980567e+003,2.934072e-003
1.982496e+003,3.118158e-003
1.984424e+003,2.576558e-003
1.986353e+003,2.453837e-003
1.988281e+003,2.964258e-003
1.990210e+003,3.458585e-003
1.992138e+003,3.118721e-003
1.994067e+003,3.221274e-003
1.995995e+003,3.530277e-003
1.997924e+003,3.277227e-003
1.999852e+003,2.148614e-003
2.001781e+003,2.049786e-003
2.003709e+003,1.950242e-003
2.005638e+003,1.082267e-003
2.007566e+003,5.505437e-004
2.009495e+003,1.844243e-004
2.011423e+003,1.635083e-004
2.013352e+003,1.428449e-003
2.015280e+003,1.904730e-003
2.017208e+003,4.351306e-004
2.019137e+003,-3.351454e-004
2.021066e+003,-6.606193e-004
2.022994e+003,-9.023404e-004
2.024922e+003,-7.760952e-004
2.026851e+003,-5.875120e-004
2.028780e+003,-2.536400e-004
2.030708e+003,-2.378306e-004
2.032636e+003,-2.387431e-004
2.034565e+003,-1.702919e-004
2.036494e+003,1.987130e-005
2.038422e+003,-3.422057e-004
2.040350e+003,-3.494916e-005
2.042279e+003,1.053077e-003
2.044208e+003,1.811837e-003
2.046136e+003,1.813591e-003
2.048064e+003,2.233681e-003
2.049993e+003,3.215504e-003
2.051921e+003,3.645508e-003
2.053850e+003,3.498832e-003
2.055778e+003,3.296099e-003
2.057707e+003,3.243682e-003
2.059635e+003,3.175467e-003
2.061564e+003,3.870602e-003
2.063492e+003,3.748059e-003
2.065421e+003,3.798638e-003
2.067349e+003,3.678534e-003
2.069278e+003,4.015476e-003
2.071206e+003,4.742296e-003
2.073135e+003,4.979099e-003
2.075063e+003,4.801404e-003
2.076992e+003,4.813483e-003
2.078920e+003,4.920222e-003
2.080849e+003,5.303733e-003
2.082777e+003,5.401266e-003
2.084706e+003,5.208690e-003
2.086634e+003,5.309808e-003
2.088563e+003,5.679024e-003
2.090491e+003,5.633033e-003
2.092420e+003,5.556315e-003
2.094348e+003,5.731699e-003
2.096277e+003,5.912596e-003
2.098205e+003,5.782980e-003
2.100134e+003,5.686016e-003
2.102062e+003,5.803899e-003
2.103991e+003,5.462292e-003
2.105919e+003,5.652413e-003
2.107848e+003,5.770354e-003
2.109776e+003,5.896354e-003
2.111705e+003,5.890174e-003
2.113633e+003,6.008415e-003
2.115562e+003,6.237732e-003
2.117490e+003,5.972737e-003
2.119419e+003,5.841745e-003
2.121347e+003,5.765116e-003
2.123276e+003,5.603071e-003
2.125204e+003,5.821831e-003
2.127133e+003,6.363632e-003
2.129061e+003,6.396315e-003
2.130990e+003,6.007172e-003
2.132918e+003,5.230365e-003
2.134847e+003,4.549123e-003
2.136775e+003,4.637192e-003
2.138704e+003,5.090578e-003
2.140632e+003,4.599719e-003
2.142561e+003,4.261198e-003
2.144489e+003,3.942870e-003
2.146418e+003,3.617957e-003
2.148346e+003,2.983808e-003
2.150275e+003,2.834070e-003
2.152203e+003,2.744832e-003
2.154132e+003,2.882731e-003
2.156060e+003,2.805956e-003
2.157989e+003,1.441201e-003
2.159917e+003,4.325814e-004
2.161846e+003,4.694648e-004
2.163774e+003,6.188212e-004
2.165703e+003,4.262466e-004
2.167631e+003,7.874481e-004
2.169560e+003,2.091179e-003
2.171488e+003,2.509119e-003
2.173417e+003,3.084574e-003
2.175345e+003,3.569681e-003
2.177274e+003,3.069358e-003
2.179202e+003,2.427512e-003
2.181131e+003,2.115318e-003
2.183059e+003,2.364542e-003
2.184988e+003,3.065153e-003
2.186916e+003,3.037859e-003
2.188845e+003,3.038459e-003
2.190773e+003,4.232189e-003
2.192702e+003,4.339370e-003
2.194630e+003,3.802727e-003
2.196559e+003,3.553980e-003
2.198487e+003,3.862563e-003
2.200416e+003,3.928024e-003
2.202344e+003,4.060046e-003
2.204273e+003,5.006372e-003
2.206201e+003,4.864546e-003
2.208130e+003,4.828293e-003
2.210058e+003,4.725447e-003
2.211987e+003,4.716972e-003
2.213915e+003,4.623797e-003
2.215844e+003,5.035903e-003
2.217772e+003,5.691959e-003
2.219701e+003,5.596358e-003
2.221629e+003,5.647345e-003
2.223558e+003,5.466318e-003
2.225486e+003,5.352049e-003
2.227415e+003,5.324778e-003
2.229343e+003,5.234222e-003
2.231272e+003,5.264217e-003
2.233200e+003,5.528226e-003
2.235129e+003,5.698128e-003
2.237057e+003,6.112726e-003
2.238986e+003,6.229000e-003
2.240914e+003,6.045913e-003
2.242843e+003,5.903272e-003
2.244771e+003,6.028752e-003
2.246700e+003,6.297610e-003
2.248628e+003,6.071308e-003
2.250557e+003,5.895746e-003
2.252485e+003,5.909716e-003
2.254414e+003,5.959576e-003
2.256342e+003,6.068945e-003
2.258271e+003,6.124551e-003
2.260199e+003,6.165757e-003
2.262128e+003,6.197013e-003
2.264056e+003,6.350102e-003
2.265985e+003,6.354132e-003
2.267913e+003,6.506772e-003
2.269842e+003,6.551312e-003
2.271770e+003,6.562501e-003
2.273699e+003,6.587081e-003
2.275627e+003,6.567813e-003
2.277556e+003,6.949998e-003
2.279484e+003,7.212146e-003
2.281413e+003,7.113011e-003
2.283341e+003,7.083061e-003
2.285270e+003,7.154318e-003
2.287198e+003,7.279720e-003
2.289127e+003,7.361315e-003
2.291055e+003,7.499180e-003
2.292984e+003,7.565261e-003
2.294912e+003,7.475725e-003
2.296841e+003,7.264785e-003
2.298769e+003,7.247711e-003
2.300698e+003,7.471418e-003
2.302626e+003,7.621670e-003
2.304555e+003,7.644468e-003
2.306483e+003,7.631797e-003
2.308412e+003,7.615896e-003
2.310340e+003,7.579664e-003
2.312269e+003,7.721171e-003
2.314197e+003,7.838617e-003
2.316125e+003,7.959213e-003
2.318054e+003,7.920832e-003
2.319983e+003,7.785801e-003
2.321911e+003,7.498464e-003
2.323840e+003,7.271387e-003
2.325768e+003,7.400095e-003
2.327697e+003,7.567899e-003
2.329625e+003,7.399914e-003
2.331553e+003,7.153843e-003
2.333482e+003,7.181619e-003
2.335411e+003,7.269107e-003
2.337339e+003,7.482701e-003
2.339268e+003,7.824920e-003
2.341196e+003,7.889632e-003
2.343125e+003,7.701024e-003
2.345053e+003,7.851738e-003
2.346981e+003,7.765737e-003
2.348910e+003,7.756487e-003
2.350839e+003,7.717729e-003
2.352767e+003,7.601800e-003
2.354696e+003,7.887834e-003
2.356624e+003,7.948733e-003
2.358552e+003,7.698377e-003
2.360481e+003,7.909704e-003
2.362409e+003,8.100120e-003
2.364338e+003,8.059208e-003
2.366267e+003,8.161981e-003
2.368195e+003,7.995897e-003
2.370124e+003,7.959238e-003
2.372052e+003,7.904197e-003
2.373980e+003,8.050227e-003
2.375909e+003,8.165156e-003
2.377838e+003,8.120365e-003
2.379766e+003,8.057115e-003
2.381695e+003,8.062476e-003
2.383623e+003,8.095711e-003
2.385552e+003,8.097209e-003
2.387480e+003,8.191186e-003
2.389408e+003,8.271575e-003
2.391337e+003,8.211136e-003
2.393266e+003,8.208240e-003
2.395194e+003,8.210744e-003
2.397123e+003,8.267336e-003
2.399051e+003,8.364214e-003
2.400979e+003,8.331100e-003
2.402908e+003,8.347516e-003
2.404836e+003,8.518799e-003
2.406765e+003,8.565973e-003
2.408694e+003,8.637217e-003
2.410622e+003,8.716958e-003
2.412551e+003,8.636136e-003
2.414479e+003,8.582432e-003
2.416407e+003,8.517651e-003
2.418336e+003,8.550902e-003
2.420264e+003,8.566988e-003
2.422193e+003,8.516908e-003
2.424122e+003,8.505587e-003
2.426050e+003,8.593686e-003
2.427979e+003,8.642760e-003
2.429907e+003,8.556308e-003
2.431835e+003,8.748906e-003
2.433764e+003,8.867927e-003
2.435692e+003,8.709960e-003
2.437621e+003,8.707560e-003
2.439550e+003,8.783019e-003
2.441478e+003,8.686297e-003
2.443406e+003,8.803239e-003
2.445335e+003,8.748703e-003
2.447263e+003,8.646986e-003
2.449192e+003,8.715538e-003
2.451121e+003,8.835193e-003
2.453049e+003,8.732813e-003
2.454978e+003,8.634378e-003
2.456906e+003,8.606190e-003
2.458834e+003,8.676562e-003
2.460763e+003,8.737445e-003
2.462691e+003,8.810407e-003
2.464620e+003,8.865661e-003
2.466549e+003,8.938273e-003
2.468477e+003,8.905061e-003
2.470406e+003,8.816459e-003
2.472334e+003,8.778658e-003
2.474262e+003,8.898837e-003
2.476191e+003,8.873980e-003
2.478119e+003,8.826368e-003
2.480048e+003,8.877971e-003
2.481977e+003,8.829242e-003
2.483905e+003,8.818725e-003
2.485833e+003,8.794684e-003
2.487762e+003,8.751069e-003
2.489690e+003,8.797931e-003
2.491619e+003,8.759251e-003
2.493547e+003,8.750833e-003
2.495476e+003,8.791067e-003
2.497405e+003,8.669396e-003
2.499333e+003,8.746708e-003
2.501261e+003,8.892987e-003
2.503190e+003,8.805200e-003
2.505118e+003,8.843105e-003
2.507047e+003,8.899345e-003
2.508975e+003,8.821498e-003
2.510904e+003,8.835802e-003
2.512833e+003,8.866337e-003
2.514761e+003,8.854941e-003
2.516689e+003,8.774973e-003
2.518618e+003,8.771524e-003
2.520546e+003,8.720305e-003
2.522475e+003,8.626739e-003
2.524403e+003,8.524477e-003
2.526332e+003,8.615045e-003
2.528260e+003,8.741164e-003
2.530189e+003,8.754754e-003
2.532117e+003,8.791032e-003
2.534046e+003,8.722468e-003
2.535974e+003,8.661858e-003
2.537903e+003,8.725883e-003
2.539831e+003,8.833130e-003
2.541760e+003,8.851661e-003
2.543688e+003,8.639921e-003
2.545617e+003,8.509203e-003
2.547545e+003,8.704112e-003
2.549474e+003,8.741535e-003
2.551402e+003,8.703942e-003
2.553331e+003,8.651210e-003
2.555259e+003,8.617850e-003
2.557188e+003,8.578545e-003
2.559116e+003,8.642760e-003
2.561045e+003,8.791810e-003
2.562973e+003,8.808649e-003
2.564902e+003,8.816392e-003
2.566830e+003,8.612916e-003
2.568759e+003,8.500181e-003
2.570687e+003,8.554450e-003
2.572616e+003,8.690353e-003
2.574544e+003,8.690489e-003
2.576473e+003,8.629578e-003
2.578401e+003,8.613085e-003
2.580330e+003,8.583716e-003
2.582258e+003,8.596930e-003
2.584187e+003,8.576348e-003
2.586115e+003,8.656551e-003
2.588044e+003,8.815343e-003
2.589972e+003,8.797592e-003
2.591901e+003,8.744814e-003
2.593829e+003,8.732137e-003
2.595758e+003,8.723111e-003
2.597686e+003,8.743665e-003
2.599615e+003,8.730751e-003
2.601543e+003,8.706072e-003
2.603472e+003,8.748838e-003
2.605400e+003,8.770577e-003
2.607329e+003,8.740961e-003
2.609257e+003,8.788531e-003
2.611186e+003,8.727167e-003
2.613114e+003,8.662162e-003
2.615043e+003,8.730109e-003
2.616971e+003,8.785420e-003
2.618900e+003,8.733050e-003
2.620828e+003,8.753402e-003
2.622757e+003,8.796577e-003
2.624685e+003,8.799621e-003
2.626614e+003,8.757121e-003
2.628542e+003,8.709926e-003
2.630471e+003,8.661756e-003
2.632399e+003,8.655402e-003
2.634328e+003,8.717364e-003
2.636256e+003,8.762023e-003
2.638185e+003,8.789308e-003
2.640113e+003,8.828328e-003
2.642042e+003,8.782411e-003
2.643970e+003,8.781768e-003
2.645899e+003,8.847434e-003
2.647827e+003,8.885377e-003
2.649756e+003,8.886155e-003
2.651684e+003,8.916695e-003
2.653613e+003,8.981501e-003
2.655541e+003,9.007278e-003
2.657470e+003,9.058124e-003
2.659398e+003,9.099842e-003
2.661327e+003,9.152764e-003
2.663255e+003,9.134931e-003
2.665184e+003,9.164405e-003
2.667112e+003,9.226236e-003
2.669041e+003,9.241163e-003
2.670969e+003,9.254871e-003
2.672898e+003,9.316918e-003
2.674826e+003,9.409718e-003
2.676755e+003,9.397563e-003
2.678683e+003,9.380092e-003
2.680612e+003,9.384324e-003
2.682540e+003,9.426851e-003
2.684469e+003,9.445103e-003
2.686397e+003,9.450249e-003
2.688326e+003,9.476529e-003
2.690254e+003,9.498033e-003
2.692183e+003,9.514052e-003
2.694111e+003,9.548226e-003
2.696040e+003,9.524619e-003
2.697968e+003,9.502436e-003
2.699897e+003,9.559878e-003
2.701825e+003,9.587518e-003
2.703754e+003,9.573969e-003
2.705682e+003,9.618886e-003
2.707611e+003,9.620342e-003
2.709539e+003,9.589483e-003
2.711468e+003,9.603507e-003
2.713396e+003,9.637519e-003
2.715325e+003,9.652865e-003
2.717253e+003,9.632166e-003
2.719182e+003,9.638839e-003
2.721110e+003,9.612314e-003
2.723039e+003,9.610214e-003
2.724967e+003,9.666789e-003
2.726896e+003,9.656524e-003
2.728824e+003,9.670008e-003
2.730753e+003,9.679833e-003
2.732681e+003,9.681595e-003
2.734610e+003,9.671736e-003
2.736538e+003,9.702365e-003
2.738467e+003,9.739840e-003
2.740395e+003,9.709853e-003
2.742324e+003,9.707312e-003
2.744252e+003,9.761291e-003
2.746181e+003,9.799043e-003
2.748109e+003,9.785182e-003
2.750038e+003,9.742958e-003
2.751966e+003,9.711716e-003
2.753895e+003,9.685932e-003
2.755823e+003,9.730692e-003
2.757752e+003,9.793383e-003
2.759680e+003,9.793011e-003
2.761609e+003,9.746008e-003
2.763537e+003,9.716257e-003
2.765466e+003,9.729946e-003
2.767394e+003,9.753429e-003
2.769323e+003,9.798636e-003
2.771251e+003,9.817479e-003
2.773180e+003,9.823986e-003
2.775108e+003,9.790807e-003
2.777037e+003,9.825241e-003
2.778965e+003,9.849711e-003
2.780894e+003,9.835375e-003
2.782822e+003,9.825749e-003
2.784750e+003,9.781149e-003
2.786679e+003,9.776439e-003
2.788608e+003,9.786063e-003
2.790536e+003,9.816361e-003
2.792465e+003,9.880217e-003
2.794393e+003,9.888556e-003
2.796322e+003,9.875269e-003
2.798250e+003,9.869608e-003
2.800178e+003,9.898487e-003
2.802107e+003,9.907641e-003
2.804036e+003,9.931506e-003
2.805964e+003,9.920759e-003
2.807893e+003,9.978189e-003
2.809821e+003,1.002857e-002
2.811750e+003,1.003549e-002
2.813678e+003,1.004627e-002
2.815606e+003,1.009721e-002
2.817535e+003,1.011773e-002
2.819464e+003,1.010545e-002
2.821392e+003,1.013051e-002
2.823321e+003,1.021596e-002
2.825249e+003,1.022990e-002
2.827177e+003,1.024021e-002
2.829106e+003,1.024798e-002
2.831034e+003,1.030783e-002
2.832963e+003,1.031679e-002
2.834892e+003,1.035588e-002
2.836820e+003,1.043471e-002
2.838749e+003,1.047439e-002
2.840677e+003,1.050117e-002
2.842605e+003,1.050636e-002
2.844534e+003,1.055769e-002
2.846462e+003,1.066295e-002
2.848391e+003,1.074805e-002
2.850320e+003,1.075315e-002
2.852248e+003,1.076955e-002
2.854177e+003,1.081116e-002
2.856105e+003,1.086358e-002
2.858033e+003,1.086049e-002
2.859962e+003,1.087826e-002
2.861890e+003,1.091485e-002
2.863819e+003,1.096439e-002
2.865748e+003,1.098944e-002
2.867676e+003,1.104684e-002
2.869604e+003,1.115881e-002
2.871533e+003,1.118720e-002
2.873461e+003,1.115340e-002
2.875390e+003,1.118985e-002
2.877319e+003,1.121083e-002
2.879247e+003,1.115249e-002
2.881176e+003,1.110690e-002
2.883104e+003,1.113906e-002
2.885032e+003,1.117465e-002
2.886961e+003,1.115276e-002
2.888889e+003,1.112067e-002
2.890818e+003,1.116697e-002
2.892747e+003,1.122381e-002
2.894675e+003,1.121076e-002
2.896604e+003,1.119457e-002
2.898532e+003,1.116326e-002
2.900460e+003,1.111934e-002
2.902389e+003,1.112539e-002
2.904317e+003,1.113885e-002
2.906246e+003,1.110534e-002
2.908175e+003,1.103127e-002
2.910103e+003,1.100473e-002
2.912031e+003,1.098183e-002
2.913960e+003,1.097710e-002
2.915888e+003,1.094716e-002
2.917817e+003,1.086086e-002
2.919745e+003,1.078769e-002
2.921674e+003,1.078739e-002
2.923603e+003,1.076015e-002
2.925531e+003,1.072825e-002
2.927459e+003,1.070088e-002
2.929388e+003,1.068641e-002
2.931316e+003,1.062865e-002
2.933245e+003,1.055066e-002
2.935173e+003,1.055589e-002
2.937102e+003,1.052741e-002
2.939031e+003,1.050759e-002
2.940959e+003,1.046166e-002
2.942887e+003,1.039219e-002
2.944816e+003,1.027634e-002
2.946744e+003,1.015887e-002
2.948673e+003,1.012400e-002
2.950601e+003,1.007584e-002
2.952530e+003,1.006815e-002
2.954458e+003,1.002962e-002
2.956387e+003,1.004434e-002
2.958315e+003,9.998295e-003
2.960244e+003,9.900114e-003
2.962172e+003,9.892149e-003
2.964101e+003,9.904929e-003
2.966029e+003,9.824732e-003
2.967958e+003,9.748516e-003
2.969886e+003,9.727811e-003
2.971815e+003,9.689083e-003
2.973743e+003,9.631420e-003
2.975672e+003,9.619157e-003
2.977600e+003,9.558625e-003
2.979529e+003,9.528853e-003
2.981457e+003,9.522960e-003
2.983386e+003,9.511716e-003
2.985314e+003,9.436062e-003
2.987243e+003,9.420655e-003
2.989171e+003,9.401896e-003
2.991100e+003,9.386287e-003
2.993028e+003,9.337873e-003
2.994957e+003,9.355681e-003
2.996885e+003,9.407450e-003
2.998814e+003,9.396547e-003
3.000742e+003,9.426411e-003
3.002671e+003,9.466843e-003
3.004599e+003,9.454415e-003
3.006528e+003,9.386119e-003
3.008456e+003,9.397731e-003
3.010385e+003,9.384899e-003
3.012313e+003,9.408296e-003
3.014242e+003,9.456988e-003
3.016170e+003,9.399763e-003
3.018099e+003,9.351923e-003
3.020027e+003,9.397360e-003
3.021956e+003,9.474564e-003
3.023884e+003,9.504841e-003
3.025813e+003,9.520047e-003
3.027741e+003,9.526448e-003
3.029670e+003,9.508939e-003
3.031598e+003,9.499083e-003
3.033527e+003,9.497017e-003
3.035455e+003,9.473650e-003
3.037384e+003,9.498982e-003
3.039312e+003,9.606555e-003
3.041241e+003,9.576611e-003
3.043169e+003,9.512900e-003
3.045098e+003,9.499218e-003
3.047026e+003,9.487365e-003
3.048955e+003,9.607030e-003
3.050883e+003,9.699587e-003
3.052812e+003,9.721137e-003
3.054740e+003,9.686000e-003
3.056669e+003,9.593954e-003
3.058597e+003,9.602287e-003
3.060526e+003,9.673295e-003
3.062454e+003,9.678613e-003
3.064383e+003,9.710666e-003
3.066311e+003,9.751260e-003
3.068240e+003,9.731946e-003
3.070168e+003,9.809379e-003
3.072097e+003,9.844255e-003
3.074025e+003,9.819344e-003
3.075954e+003,9.816056e-003
3.077882e+003,9.849203e-003
3.079811e+003,9.905369e-003
3.081739e+003,9.943947e-003
3.083668e+003,9.807820e-003
3.085596e+003,9.864456e-003
3.087525e+003,1.002200e-002
3.089453e+003,1.007469e-002
3.091382e+003,9.981342e-003
3.093310e+003,9.939743e-003
3.095239e+003,9.971171e-003
3.097167e+003,9.942184e-003
3.099096e+003,9.907539e-003
3.101024e+003,9.942354e-003
3.102953e+003,1.000202e-002
3.104881e+003,1.010497e-002
3.106810e+003,1.010135e-002
3.108738e+003,1.008147e-002
3.110667e+003,1.010294e-002
3.112595e+003,1.016528e-002
3.114524e+003,1.017712e-002
3.116452e+003,1.021487e-002
3.118381e+003,1.021399e-002
3.120309e+003,1.025521e-002
3.122238e+003,1.027784e-002
3.124166e+003,1.027288e-002
3.126095e+003,1.027336e-002
3.128023e+003,1.028886e-002
3.129952e+003,1.030623e-002
3.131880e+003,1.039782e-002
3.133809e+003,1.040406e-002
3.135737e+003,1.042175e-002
3.137666e+003,1.050657e-002
3.139594e+003,1.049044e-002
3.141523e+003,1.045022e-002
3.143451e+003,1.049601e-002
3.145380e+003,1.056187e-002
3.147308e+003,1.059497e-002
3.149237e+003,1.060553e-002
3.151165e+003,1.064145e-002
3.153094e+003,1.067857e-002
3.155022e+003,1.068937e-002
3.156951e+003,1.072241e-002
3.158879e+003,1.082601e-002
3.160808e+003,1.089256e-002
3.162736e+003,1.090428e-002
3.164665e+003,1.089202e-002
3.166593e+003,1.085278e-002
3.168522e+003,1.089691e-002
3.170450e+003,1.099946e-002
3.172379e+003,1.103389e-002
3.174307e+003,1.101856e-002
3.176236e+003,1.104035e-002
3.178164e+003,1.104602e-002
3.180093e+003,1.107444e-002
3.182021e+003,1.115789e-002
3.183950e+003,1.126248e-002
3.185878e+003,1.130369e-002
3.187807e+003,1.126479e-002
3.189735e+003,1.125676e-002
3.191664e+003,1.131889e-002
3.193592e+003,1.131141e-002
3.195521e+003,1.131944e-002
3.197449e+003,1.130587e-002
3.199378e+003,1.140484e-002
3.201306e+003,1.151609e-002
3.203235e+003,1.156083e-002
3.205163e+003,1.162212e-002
3.207092e+003,1.169281e-002
3.209020e+003,1.168597e-002
3.210948e+003,1.172406e-002
3.212877e+003,1.179896e-002
3.214806e+003,1.182909e-002
3.216734e+003,1.180938e-002
3.218663e+003,1.183808e-002
3.220591e+003,1.192495e-002
3.222520e+003,1.203564e-002
3.224448e+003,1.205458e-002
3.226376e+003,1.203472e-002
3.228305e+003,1.205704e-002
3.230234e+003,1.213168e-002
3.232162e+003,1.222379e-002
3.234091e+003,1.229121e-002
3.236019e+003,1.237125e-002
3.237948e+003,1.237698e-002
3.239876e+003,1.231493e-002
3.241804e+003,1.239160e-002
3.243733e+003,1.248012e-002
3.245662e+003,1.258123e-002
3.247590e+003,1.265802e-002
3.249519e+003,1.265638e-002
3.251447e+003,1.266419e-002
3.253375e+003,1.276556e-002
3.255304e+003,1.284715e-002
3.257232e+003,1.289907e-002
3.259161e+003,1.295395e-002
3.261090e+003,1.296529e-002
3.263018e+003,1.292388e-002
3.264947e+003,1.292904e-002
3.266875e+003,1.302295e-002
3.268803e+003,1.310282e-002
3.270732e+003,1.316282e-002
3.272660e+003,1.325515e-002
3.274589e+003,1.330978e-002
3.276518e+003,1.333294e-002
3.278446e+003,1.327530e-002
3.280375e+003,1.323124e-002
3.282303e+003,1.325512e-002
3.284231e+003,1.326690e-002
3.286160e+003,1.330943e-002
3.288088e+003,1.333916e-002
3.290017e+003,1.336195e-002
3.291946e+003,1.332573e-002
3.293874e+003,1.330779e-002
3.295802e+003,1.334394e-002
3.297731e+003,1.335204e-002
3.299659e+003,1.335577e-002
3.301588e+003,1.334422e-002
3.303516e+003,1.333253e-002
3.305445e+003,1.341570e-002
3.307374e+003,1.343921e-002
3.309302e+003,1.342872e-002
3.311230e+003,1.343337e-002
3.313159e+003,1.341331e-002
3.315087e+003,1.338091e-002
3.317016e+003,1.340446e-002
3.318944e+003,1.343928e-002
3.320873e+003,1.343098e-002
3.322802e+003,1.343962e-002
3.324730e+003,1.346139e-002
3.326658e+003,1.347589e-002
3.328587e+003,1.350466e-002
3.330515e+003,1.357060e-002
3.332444e+003,1.352623e-002
3.334372e+003,1.347312e-002
3.336301e+003,1.350969e-002
3.338229e+003,1.345302e-002
3.340158e+003,1.346632e-002
3.342086e+003,1.354565e-002
3.344015e+003,1.351324e-002
3.345943e+003,1.344837e-002
3.347872e+003,1.345497e-002
3.349800e+003,1.338081e-002
3.351729e+003,1.332881e-002
3.353657e+003,1.327148e-002
3.355586e+003,1.314701e-002
3.357514e+003,1.304982e-002
3.359443e+003,1.304791e-002
3.361371e+003,1.304368e-002
3.363300e+003,1.299420e-002
3.365229e+003,1.295935e-002
3.367157e+003,1.291313e-002
3.369085e+003,1.293678e-002
3.371014e+003,1.288374e-002
3.372942e+003,1.281763e-002
3.374871e+003,1.284429e-002
3.376799e+003,1.289094e-002
3.378728e+003,1.286599e-002
3.380656e+003,1.277098e-002
3.382585e+003,1.272495e-002
3.384513e+003,1.266126e-002
3.386442e+003,1.255750e-002
3.388370e+003,1.253130e-002
3.390299e+003,1.252830e-002
3.392227e+003,1.253216e-002
3.394156e+003,1.245611e-002
3.396084e+003,1.236450e-002
3.398013e+003,1.235887e-002
3.399941e+003,1.237858e-002
3.401870e+003,1.233699e-002
3.403798e+003,1.230866e-002
3.405727e+003,1.225900e-002
3.407655e+003,1.217441e-002
3.409584e+003,1.220420e-002
3.411512e+003,1.210746e-002
3.413441e+003,1.196064e-002
3.415369e+003,1.188527e-002
3.417298e+003,1.190131e-002
3.419226e+003,1.189634e-002
3.421155e+003,1.187305e-002
3.423083e+003,1.181040e-002
3.425012e+003,1.169414e-002
3.426940e+003,1.164567e-002
3.428869e+003,1.163437e-002
3.430797e+003,1.151064e-002
3.432726e+003,1.138471e-002
3.434654e+003,1.137168e-002
3.436583e+003,1.128097e-002
3.438511e+003,1.123218e-002
3.440440e+003,1.121144e-002
3.442368e+003,1.112128e-002
3.444297e+003,1.099637e-002
3.446225e+003,1.090041e-002
3.448154e+003,1.081062e-002
3.450082e+003,1.078868e-002
3.452011e+003,1.075957e-002
3.453939e+003,1.073522e-002
3.455868e+003,1.067915e-002
3.457796e+003,1.052147e-002
3.459725e+003,1.046723e-002
3.461653e+003,1.045806e-002
3.463582e+003,1.034939e-002
3.465510e+003,1.023282e-002
3.467439e+003,1.017732e-002
3.469367e+003,1.013316e-002
3.471296e+003,1.007774e-002
3.473224e+003,9.971069e-003
3.475153e+003,9.963542e-003
3.477081e+003,9.920726e-003
3.479010e+003,9.818903e-003
3.480938e+003,9.766407e-003
3.482867e+003,9.678241e-003
3.484795e+003,9.644497e-003
3.486724e+003,9.616752e-003
3.488652e+003,9.538505e-003
3.490581e+003,9.589279e-003
3.492509e+003,9.474056e-003
3.494438e+003,9.403894e-003
3.496366e+003,9.318679e-003
3.498295e+003,9.185624e-003
3.500223e+003,9.190700e-003
3.502152e+003,9.121227e-003
3.504080e+003,9.061914e-003
3.506009e+003,9.009003e-003
3.507937e+003,8.965400e-003
3.509866e+003,8.924101e-003
3.511794e+003,8.847874e-003
3.513723e+003,8.791202e-003
3.515651e+003,8.712090e-003
3.517580e+003,8.662771e-003
3.519508e+003,8.614234e-003
3.521437e+003,8.595983e-003
3.523365e+003,8.560060e-003
3.525294e+003,8.474266e-003
3.527222e+003,8.382645e-003
3.529151e+003,8.350252e-003
3.531079e+003,8.291416e-003
3.533008e+003,8.297496e-003
3.534936e+003,8.303338e-003
3.536865e+003,8.214489e-003
3.538793e+003,8.051190e-003
3.540722e+003,8.062498e-003
3.542650e+003,8.073671e-003
3.544579e+003,8.053249e-003
3.546507e+003,8.003836e-003
3.548436e+003,7.913427e-003
3.550364e+003,7.914946e-003
3.552293e+003,7.837208e-003
3.554221e+003,7.719447e-003
3.556150e+003,7.876345e-003
3.558078e+003,7.867640e-003
3.560007e+003,7.694556e-003
3.561935e+003,7.791766e-003
3.563864e+003,7.763363e-003
3.565792e+003,7.695130e-003
3.567721e+003,7.658369e-003
3.569649e+003,7.735569e-003
3.571578e+003,7.687035e-003
3.573506e+003,7.549759e-003
3.575435e+003,7.523631e-003
3.577363e+003,7.471278e-003
3.579292e+003,7.468716e-003
3.581220e+003,7.618308e-003
3.583149e+003,7.736783e-003
3.585077e+003,7.734152e-003
3.587006e+003,7.849758e-003
3.588934e+003,7.984969e-003
3.590863e+003,8.001574e-003
3.592791e+003,7.949973e-003
3.594720e+003,7.991821e-003
3.596648e+003,8.084405e-003
3.598577e+003,8.069451e-003
3.600505e+003,7.930334e-003
3.602434e+003,7.858666e-003
3.604362e+003,7.660325e-003
3.606291e+003,7.524035e-003
3.608219e+003,7.388867e-003
3.610148e+003,7.138428e-003
3.612076e+003,7.058876e-003
3.614005e+003,7.068070e-003
3.615933e+003,7.110674e-003
3.617862e+003,7.278573e-003
3.619790e+003,7.446603e-003
3.621719e+003,7.638608e-003
3.623647e+003,7.840211e-003
3.625576e+003,7.920885e-003
3.627504e+003,7.831506e-003
3.629433e+003,7.688013e-003
3.631361e+003,7.525283e-003
3.633290e+003,7.322781e-003
3.635218e+003,7.142100e-003
3.637146e+003,6.945938e-003
3.639075e+003,6.730952e-003
3.641004e+003,6.483683e-003
3.642932e+003,6.340500e-003
3.644861e+003,6.365616e-003
3.646789e+003,6.283482e-003
3.648718e+003,6.171317e-003
3.650646e+003,6.140264e-003
3.652574e+003,6.068488e-003
3.654503e+003,6.059248e-003
3.656432e+003,6.124705e-003
3.658360e+003,6.224287e-003
3.660289e+003,6.206540e-003
3.662217e+003,6.089690e-003
3.664146e+003,6.028069e-003
3.666074e+003,6.091505e-003
3.668002e+003,6.099401e-003
3.669931e+003,5.995682e-003
3.671860e+003,6.016814e-003
3.673788e+003,6.184996e-003
3.675717e+003,6.242740e-003
3.677645e+003,6.197835e-003
3.679573e+003,6.358824e-003
3.681502e+003,6.501778e-003
3.683430e+003,6.520109e-003
3.685359e+003,6.514526e-003
3.687288e+003,6.672469e-003
3.689216e+003,6.851037e-003
3.691145e+003,6.888099e-003
3.693073e+003,7.006141e-003
3.695001e+003,7.147523e-003
3.696930e+003,7.228237e-003
3.698858e+003,7.283560e-003
3.700787e+003,7.356682e-003
3.702716e+003,7.362411e-003
3.704644e+003,7.523631e-003
3.706573e+003,7.536273e-003
3.708501e+003,7.305866e-003
3.710429e+003,7.028904e-003
3.712358e+003,6.655512e-003
3.714286e+003,6.280457e-003
3.716215e+003,6.450523e-003
3.718144e+003,6.884767e-003
3.720072e+003,7.198759e-003
3.722000e+003,7.492481e-003
3.723929e+003,7.845912e-003
3.725857e+003,7.976430e-003
3.727786e+003,7.989458e-003
3.729714e+003,7.928545e-003
3.731643e+003,7.916768e-003
3.733572e+003,7.824050e-003
3.735500e+003,7.503538e-003
3.737428e+003,7.167127e-003
3.739357e+003,6.797587e-003
3.741285e+003,6.567167e-003
3.743214e+003,6.506991e-003
3.745142e+003,6.326111e-003
3.747071e+003,6.142146e-003
3.749000e+003,6.098561e-003
3.750928e+003,6.080248e-003
3.752856e+003,6.126553e-003
3.754785e+003,6.109751e-003
3.756713e+003,6.054678e-003
3.758642e+003,5.947342e-003
3.760570e+003,6.000587e-003
3.762499e+003,6.081156e-003
3.764427e+003,6.104039e-003
3.766356e+003,6.102862e-003
3.768284e+003,6.083575e-003
3.770213e+003,6.003208e-003
3.772141e+003,6.053905e-003
3.774070e+003,6.139121e-003
3.775998e+003,6.134450e-003
3.777927e+003,6.176929e-003
3.779855e+003,6.226808e-003
3.781784e+003,6.218035e-003
3.783712e+003,6.293836e-003
3.785641e+003,6.296794e-003
3.787569e+003,6.214203e-003
3.789498e+003,6.198238e-003
3.791426e+003,6.252051e-003
3.793355e+003,6.311217e-003
3.795283e+003,6.269632e-003
3.797212e+003,6.214169e-003
3.799140e+003,6.269027e-003
3.801069e+003,6.354521e-003
3.802997e+003,6.288189e-003
3.804926e+003,6.260253e-003
3.806854e+003,6.332532e-003
3.808783e+003,6.384076e-003
3.810711e+003,6.357681e-003
3.812640e+003,6.314949e-003
3.814568e+003,6.283785e-003
3.816497e+003,6.305602e-003
3.818425e+003,6.264220e-003
3.820354e+003,6.283617e-003
3.822282e+003,6.305233e-003
3.824211e+003,6.402032e-003
3.826139e+003,6.429000e-003
3.828068e+003,6.378460e-003
3.829996e+003,6.360640e-003
3.831925e+003,6.358152e-003
3.833853e+003,6.409429e-003
3.835782e+003,6.431691e-003
3.837710e+003,6.457148e-003
3.839639e+003,6.453146e-003
3.841567e+003,6.403074e-003
3.843496e+003,6.380444e-003
3.845424e+003,6.468717e-003
3.847353e+003,6.439594e-003
3.849281e+003,6.421535e-003
3.851210e+003,6.475342e-003
3.853138e+003,6.465858e-003
3.855067e+003,6.452978e-003
3.856995e+003,6.458830e-003
3.858924e+003,6.438551e-003
3.860852e+003,6.529291e-003
3.862781e+003,6.531477e-003
3.864709e+003,6.528753e-003
3.866638e+003,6.445848e-003
3.868566e+003,6.505545e-003
3.870495e+003,6.545706e-003
3.872423e+003,6.465320e-003
3.874352e+003,6.448774e-003
3.876280e+003,6.395306e-003
3.878209e+003,6.481329e-003
3.880137e+003,6.531646e-003
3.882066e+003,6.451095e-003
3.883994e+003,6.458460e-003
3.885923e+003,6.492697e-003
3.887851e+003,6.489973e-003
3.889780e+003,6.462832e-003
3.891708e+003,6.462395e-003
3.893637e+003,6.478739e-003
3.895565e+003,6.477562e-003
3.897494e+003,6.564543e-003
3.899422e+003,6.663385e-003
3.901351e+003,6.559397e-003
3.903279e+003,6.505040e-003
3.905208e+003,6.580118e-003
3.907136e+003,6.541199e-003
3.909065e+003,6.503224e-003
3.910993e+003,6.508068e-003
3.912922e+003,6.484658e-003
3.914850e+003,6.527475e-003
3.916779e+003,6.553241e-003
3.918707e+003,6.566259e-003
3.920636e+003,6.618772e-003
3.922564e+003,6.521589e-003
3.924493e+003,6.473897e-003
3.926421e+003,6.612952e-003
3.928350e+003,6.601177e-003
3.930278e+003,6.504233e-003
3.932207e+003,6.528080e-003
3.934135e+003,6.596972e-003
3.936064e+003,6.520513e-003
3.937992e+003,6.485533e-003
3.939921e+003,6.509447e-003
3.941849e+003,6.609823e-003
3.943778e+003,6.652685e-003
3.945706e+003,6.581598e-003
3.947635e+003,6.525255e-003
3.949563e+003,6.596064e-003
3.951492e+003,6.639530e-003
3.953420e+003,6.595559e-003
3.955349e+003,6.531209e-003
3.957277e+003,6.589302e-003
3.959206e+003,6.543587e-003
3.961134e+003,6.534067e-003
3.963063e+003,6.617797e-003
3.964991e+003,6.644308e-003
3.966920e+003,6.627957e-003
3.968848e+003,6.594550e-003
3.970777e+003,6.529661e-003
3.972705e+003,6.552501e-003
3.974634e+003,6.539819e-003
3.976562e+003,6.513819e-003
3.978491e+003,6.550987e-003
3.980419e+003,6.574534e-003
3.982348e+003,6.565148e-003
3.984276e+003,6.628932e-003
3.986205e+003,6.574366e-003
3.988133e+003,6.484760e-003
3.990062e+003,6.568916e-003
3.991990e+003,6.582137e-003
3.993919e+003,6.508538e-003
3.995847e+003,6.517923e-003
3.997776e+003,6.556773e-003
3.999704e+003,6.556773e-003
4.001633e+003,0.000000e+000
