3.991989e+002,6.039011e-002
4.011274e+002,6.203970e-002
4.030559e+002,6.203970e-002
4.049844e+002,6.436081e-002
4.069129e+002,6.065285e-002
4.088414e+002,6.157635e-002
4.107699e+002,6.299684e-002
4.126984e+002,6.228060e-002
4.146269e+002,6.229544e-002
4.165554e+002,6.225850e-002
4.184839e+002,6.204410e-002
4.204124e+002,6.365341e-002
4.223409e+002,6.419945e-002
4.242694e+002,6.392216e-002
4.261979e+002,6.327523e-002
4.281264e+002,6.306898e-002
4.300549e+002,6.275561e-002
4.319834e+002,6.389402e-002
4.339119e+002,6.467495e-002
4.358404e+002,6.536495e-002
4.377689e+002,6.482045e-002
4.396974e+002,6.458497e-002
4.416259e+002,6.502191e-002
4.435544e+002,6.494937e-002
4.454829e+002,6.437568e-002
4.474114e+002,6.550255e-002
4.493399e+002,6.555742e-002
4.512684e+002,6.537824e-002
4.531969e+002,6.517068e-002
4.551254e+002,6.536969e-002
4.570539e+002,6.527656e-002
4.589824e+002,6.528100e-002
4.609109e+002,6.479729e-002
4.628394e+002,6.399506e-002
4.647679e+002,6.328002e-002
4.666964e+002,6.291625e-002
4.686249e+002,6.200312e-002
4.705533e+002,6.081618e-002
4.724819e+002,5.989539e-002
4.744103e+002,5.959534e-002
4.763389e+002,5.827101e-002
4.782673e+002,5.728429e-002
4.801959e+002,5.581115e-002
4.821243e+002,5.453060e-002
4.840529e+002,5.332334e-002
4.859813e+002,5.176261e-002
4.879099e+002,5.041191e-002
4.898383e+002,4.941119e-002
4.917668e+002,4.905151e-002
4.936953e+002,4.763084e-002
4.956238e+002,4.736370e-002
4.975523e+002,4.642451e-002
4.994808e+002,4.531505e-002
5.014093e+002,4.456527e-002
5.033378e+002,4.453040e-002
5.052663e+002,4.439018e-002
5.071948e+002,4.421923e-002
5.091233e+002,4.402751e-002
5.110518e+002,4.325774e-002
5.129803e+002,4.394513e-002
5.149088e+002,4.411073e-002
5.168373e+002,4.402304e-002
5.187658e+002,4.383156e-002
5.206943e+002,4.414520e-002
5.226228e+002,4.370154e-002
5.245513e+002,4.400863e-002
5.264798e+002,4.401776e-002
5.284083e+002,4.434996e-002
5.303368e+002,4.426630e-002
5.322653e+002,4.444483e-002
5.341938e+002,4.444061e-002
5.361223e+002,4.424201e-002
5.380508e+002,4.379095e-002
5.399792e+002,4.391800e-002
5.419078e+002,4.365226e-002
5.438363e+002,4.358928e-002
5.457648e+002,4.357221e-002
5.476932e+002,4.370311e-002
5.496218e+002,4.361024e-002
5.515503e+002,4.362434e-002
5.534788e+002,4.381104e-002
5.554072e+002,4.434089e-002
5.573358e+002,4.439275e-002
5.592643e+002,4.503250e-002
5.611927e+002,4.467319e-002
5.631212e+002,4.410996e-002
5.650497e+002,4.360141e-002
5.669783e+002,4.356463e-002
5.689067e+002,4.299796e-002
5.708352e+002,4.271838e-002
5.727637e+002,4.259593e-002
5.746923e+002,4.236748e-002
5.766207e+002,4.216246e-002
5.785492e+002,4.237019e-002
5.804777e+002,4.282891e-002
5.824063e+002,4.252101e-002
5.843347e+002,4.184043e-002
5.862632e+002,4.176262e-002
5.881917e+002,4.173304e-002
5.901202e+002,4.165813e-002
5.920487e+002,4.102908e-002
5.939772e+002,4.101189e-002
5.959057e+002,4.091559e-002
5.978342e+002,4.072166e-002
5.997627e+002,4.059285e-002
6.016912e+002,4.036931e-002
6.036197e+002,3.994674e-002
6.055482e+002,3.997922e-002
6.074767e+002,3.980676e-002
6.094052e+002,3.982354e-002
6.113337e+002,3.961756e-002
6.132622e+002,3.947018e-002
6.151907e+002,3.902743e-002
6.171192e+002,3.886505e-002
6.190477e+002,3.859818e-002
6.209762e+002,3.823186e-002
6.229047e+002,3.751126e-002
6.248332e+002,3.710829e-002
6.267617e+002,3.650873e-002
6.286902e+002,3.618054e-002
6.306187e+002,3.581584e-002
6.325472e+002,3.552080e-002
6.344756e+002,3.523460e-002
6.364042e+002,3.503237e-002
6.383326e+002,3.476857e-002
6.402612e+002,3.471518e-002
6.421896e+002,3.427248e-002
6.441182e+002,3.402660e-002
6.460466e+002,3.347857e-002
6.479752e+002,3.331267e-002
6.499036e+002,3.332748e-002
6.518322e+002,3.344059e-002
6.537606e+002,3.340442e-002
6.556891e+002,3.340900e-002
6.576177e+002,3.325497e-002
6.595461e+002,3.341779e-002
6.614746e+002,3.362580e-002
6.634031e+002,3.392247e-002
6.653317e+002,3.379551e-002
6.672601e+002,3.351235e-002
6.691886e+002,3.339708e-002
6.711171e+002,3.302307e-002
6.730457e+002,3.258719e-002
6.749741e+002,3.231440e-002
6.769026e+002,3.160954e-002
6.788311e+002,3.090617e-002
6.807596e+002,3.035865e-002
6.826881e+002,3.003254e-002
6.846166e+002,2.955344e-002
6.865451e+002,2.932638e-002
6.884736e+002,2.885245e-002
6.904021e+002,2.868660e-002
6.923306e+002,2.867333e-002
6.942591e+002,2.876039e-002
6.961876e+002,2.865149e-002
6.981161e+002,2.866421e-002
7.000446e+002,2.834095e-002
7.019731e+002,2.808569e-002
7.039016e+002,2.794295e-002
7.058301e+002,2.801066e-002
7.077585e+002,2.777844e-002
7.096871e+002,2.765735e-002
7.116156e+002,2.744113e-002
7.135441e+002,2.732152e-002
7.154725e+002,2.713969e-002
7.174011e+002,2.702460e-002
7.193296e+002,2.664621e-002
7.212581e+002,2.641552e-002
7.231865e+002,2.628359e-002
7.251151e+002,2.614635e-002
7.270436e+002,2.588764e-002
7.289720e+002,2.583430e-002
7.309005e+002,2.555455e-002
7.328290e+002,2.530673e-002
7.347576e+002,2.508895e-002
7.366860e+002,2.504539e-002
7.386145e+002,2.480733e-002
7.405430e+002,2.480474e-002
7.424716e+002,2.460440e-002
7.444000e+002,2.456652e-002
7.463285e+002,2.452003e-002
7.482570e+002,2.444445e-002
7.501855e+002,2.423278e-002
7.521140e+002,2.416765e-002
7.540425e+002,2.388470e-002
7.559710e+002,2.367096e-002
7.578995e+002,2.354218e-002
7.598280e+002,2.349059e-002
7.617565e+002,2.331274e-002
7.636850e+002,2.330515e-002
7.656135e+002,2.316589e-002
7.675420e+002,2.315090e-002
7.694705e+002,2.308412e-002
7.713990e+002,2.331452e-002
7.733275e+002,2.338823e-002
7.752560e+002,2.341382e-002
7.771844e+002,2.341172e-002
7.791130e+002,2.356205e-002
7.810415e+002,2.363104e-002
7.829700e+002,2.373087e-002
7.848984e+002,2.369248e-002
7.868270e+002,2.361452e-002
7.887555e+002,2.356810e-002
7.906840e+002,2.360721e-002
7.926124e+002,2.345530e-002
7.945410e+002,2.338232e-002
7.964695e+002,2.330470e-002
7.983979e+002,2.322905e-002
8.003264e+002,2.323003e-002
8.022549e+002,2.315023e-002
8.041835e+002,2.296505e-002
8.061119e+002,2.287992e-002
8.080404e+002,2.274998e-002
8.099689e+002,2.260891e-002
8.118975e+002,2.241848e-002
8.138259e+002,2.219538e-002
8.157545e+002,2.191075e-002
8.176830e+002,2.181486e-002
8.196115e+002,2.166597e-002
8.215399e+002,2.149771e-002
8.234684e+002,2.122564e-002
8.253970e+002,2.108277e-002
8.273254e+002,2.087152e-002
8.292539e+002,2.073102e-002
8.311824e+002,2.058233e-002
8.331110e+002,2.037949e-002
8.350394e+002,2.002737e-002
8.369679e+002,1.987670e-002
8.388964e+002,1.978067e-002
8.408250e+002,1.980259e-002
8.427534e+002,1.956828e-002
8.446819e+002,1.948569e-002
8.466104e+002,1.954981e-002
8.485389e+002,1.967654e-002
8.504674e+002,1.953019e-002
8.523959e+002,1.944917e-002
8.543244e+002,1.939848e-002
8.562529e+002,1.939584e-002
8.581814e+002,1.943614e-002
8.601099e+002,1.964735e-002
8.620384e+002,1.973573e-002
8.639669e+002,1.983356e-002
8.658954e+002,1.991028e-002
8.678239e+002,2.007966e-002
8.697524e+002,2.013918e-002
8.716809e+002,2.031469e-002
8.736094e+002,2.048972e-002
8.755378e+002,2.080488e-002
8.774664e+002,2.103846e-002
8.793949e+002,2.121691e-002
8.813234e+002,2.139860e-002
8.832518e+002,2.183670e-002
8.851804e+002,2.226143e-002
8.871089e+002,2.276227e-002
8.890374e+002,2.316313e-002
8.909658e+002,2.364031e-002
8.928943e+002,2.406141e-002
8.948229e+002,2.449358e-002
8.967513e+002,2.474252e-002
8.986798e+002,2.472975e-002
9.006083e+002,2.459568e-002
9.025369e+002,2.442200e-002
9.044653e+002,2.414309e-002
9.063938e+002,2.402160e-002
9.083223e+002,2.394337e-002
9.102509e+002,2.396487e-002
9.121793e+002,2.394085e-002
9.141078e+002,2.397513e-002
9.160364e+002,2.396333e-002
9.179648e+002,2.411507e-002
9.198933e+002,2.432864e-002
9.218218e+002,2.456574e-002
9.237504e+002,2.480356e-002
9.256788e+002,2.503337e-002
9.276073e+002,2.521094e-002
9.295358e+002,2.543812e-002
9.314644e+002,2.575004e-002
9.333928e+002,2.605943e-002
9.353213e+002,2.630339e-002
9.372498e+002,2.669019e-002
9.391783e+002,2.708722e-002
9.411068e+002,2.758250e-002
9.430353e+002,2.805226e-002
9.449637e+002,2.855318e-002
9.468923e+002,2.906119e-002
9.488208e+002,2.969597e-002
9.507493e+002,3.024614e-002
9.526777e+002,3.087768e-002
9.546063e+002,3.156202e-002
9.565348e+002,3.217157e-002
9.584633e+002,3.275253e-002
9.603917e+002,3.347609e-002
9.623203e+002,3.404637e-002
9.642488e+002,3.457613e-002
9.661772e+002,3.513087e-002
9.681057e+002,3.570667e-002
9.700343e+002,3.621243e-002
9.719628e+002,3.667788e-002
9.738912e+002,3.712717e-002
9.758197e+002,3.775337e-002
9.777483e+002,3.852734e-002
9.796768e+002,3.945910e-002
9.816052e+002,4.042737e-002
9.835337e+002,4.161822e-002
9.854623e+002,4.290747e-002
9.873907e+002,4.409543e-002
9.893192e+002,4.504374e-002
9.912477e+002,4.575536e-002
9.931763e+002,4.616623e-002
9.951047e+002,4.647152e-002
9.970332e+002,4.692804e-002
9.989617e+002,4.761612e-002
1.000890e+003,4.847902e-002
1.002819e+003,4.942029e-002
1.004747e+003,5.038757e-002
1.006676e+003,5.132777e-002
1.008604e+003,5.224868e-002
1.010533e+003,5.329869e-002
1.012461e+003,5.429884e-002
1.014390e+003,5.537804e-002
1.016318e+003,5.656816e-002
1.018247e+003,5.785307e-002
1.020175e+003,5.907487e-002
1.022104e+003,6.024590e-002
1.024032e+003,6.138904e-002
1.025961e+003,6.257732e-002
1.027889e+003,6.371322e-002
1.029818e+003,6.491039e-002
1.031746e+003,6.585542e-002
1.033675e+003,6.663587e-002
1.035603e+003,6.707657e-002
1.037532e+003,6.704641e-002
1.039460e+003,6.678449e-002
1.041389e+003,6.640578e-002
1.043317e+003,6.603839e-002
1.045246e+003,6.586051e-002
1.047174e+003,6.575687e-002
1.049103e+003,6.569712e-002
1.051031e+003,6.567800e-002
1.052960e+003,6.565075e-002
1.054888e+003,6.526613e-002
1.056817e+003,6.472994e-002
1.058745e+003,6.411552e-002
1.060674e+003,6.354328e-002
1.062602e+003,6.290741e-002
1.064531e+003,6.206978e-002
1.066459e+003,6.117540e-002
1.068388e+003,6.035809e-002
1.070316e+003,5.947540e-002
1.072245e+003,5.860621e-002
1.074173e+003,5.777396e-002
1.076102e+003,5.692732e-002
1.078030e+003,5.603539e-002
1.079959e+003,5.508492e-002
1.081887e+003,5.422649e-002
1.083816e+003,5.350181e-002
1.085744e+003,5.296718e-002
1.087673e+003,5.253293e-002
1.089601e+003,5.219352e-002
1.091530e+003,5.187125e-002
1.093458e+003,5.148084e-002
1.095387e+003,5.112253e-002
1.097315e+003,5.076039e-002
1.099244e+003,5.048254e-002
1.101172e+003,5.022350e-002
1.103101e+003,4.980510e-002
1.105029e+003,4.912337e-002
1.106958e+003,4.829501e-002
1.108886e+003,4.723583e-002
1.110815e+003,4.602592e-002
1.112743e+003,4.468127e-002
1.114672e+003,4.329779e-002
1.116600e+003,4.196607e-002
1.118529e+003,4.078467e-002
1.120457e+003,3.969981e-002
1.122386e+003,3.868868e-002
1.124314e+003,3.770566e-002
1.126243e+003,3.667597e-002
1.128171e+003,3.558467e-002
1.130100e+003,3.458345e-002
1.132028e+003,3.362421e-002
1.133957e+003,3.278569e-002
1.135885e+003,3.213664e-002
1.137814e+003,3.160185e-002
1.139742e+003,3.119748e-002
1.141671e+003,3.106780e-002
1.143599e+003,3.104122e-002
1.145528e+003,3.116085e-002
1.147456e+003,3.133916e-002
1.149385e+003,3.150775e-002
1.151313e+003,3.169027e-002
1.153242e+003,3.191598e-002
1.155170e+003,3.214459e-002
1.157099e+003,3.231403e-002
1.159027e+003,3.231857e-002
1.160956e+003,3.218067e-002
1.162884e+003,3.188257e-002
1.164813e+003,3.134781e-002
1.166741e+003,3.061518e-002
1.168670e+003,2.969835e-002
1.170598e+003,2.861263e-002
1.172526e+003,2.749756e-002
1.174455e+003,2.642376e-002
1.176384e+003,2.547926e-002
1.178312e+003,2.468749e-002
1.180240e+003,2.398441e-002
1.182169e+003,2.333938e-002
1.184098e+003,2.288240e-002
1.186026e+003,2.250609e-002
1.187954e+003,2.228623e-002
1.189883e+003,2.212097e-002
1.191812e+003,2.206327e-002
1.193740e+003,2.206066e-002
1.195668e+003,2.208109e-002
1.197597e+003,2.206969e-002
1.199526e+003,2.210640e-002
1.201454e+003,2.212233e-002
1.203382e+003,2.200834e-002
1.205311e+003,2.183242e-002
1.207240e+003,2.163936e-002
1.209168e+003,2.138966e-002
1.211096e+003,2.123111e-002
1.213025e+003,2.118678e-002
1.214953e+003,2.117533e-002
1.216882e+003,2.119276e-002
1.218810e+003,2.124468e-002
1.220739e+003,2.128810e-002
1.222667e+003,2.140369e-002
1.224596e+003,2.147905e-002
1.226524e+003,2.154600e-002
1.228453e+003,2.161081e-002
1.230381e+003,2.164612e-002
1.232310e+003,2.163891e-002
1.234238e+003,2.158002e-002
1.236167e+003,2.137862e-002
1.238095e+003,2.117318e-002
1.240024e+003,2.101947e-002
1.241952e+003,2.081614e-002
1.243881e+003,2.049382e-002
1.245809e+003,2.017958e-002
1.247738e+003,1.980401e-002
1.249666e+003,1.940319e-002
1.251595e+003,1.906748e-002
1.253523e+003,1.875285e-002
1.255452e+003,1.840927e-002
1.257380e+003,1.804662e-002
1.259309e+003,1.768359e-002
1.261237e+003,1.733858e-002
1.263166e+003,1.697224e-002
1.265094e+003,1.665958e-002
1.267023e+003,1.633943e-002
1.268951e+003,1.606783e-002
1.270880e+003,1.575828e-002
1.272808e+003,1.546630e-002
1.274737e+003,1.521710e-002
1.276665e+003,1.500823e-002
1.278594e+003,1.482069e-002
1.280522e+003,1.468262e-002
1.282451e+003,1.457169e-002
1.284379e+003,1.443027e-002
1.286308e+003,1.430132e-002
1.288236e+003,1.423205e-002
1.290165e+003,1.415235e-002
1.292093e+003,1.411432e-002
1.294022e+003,1.417002e-002
1.295950e+003,1.427465e-002
1.297879e+003,1.439163e-002
1.299807e+003,1.456258e-002
1.301736e+003,1.469328e-002
1.303664e+003,1.487535e-002
1.305593e+003,1.511643e-002
1.307521e+003,1.535994e-002
1.309450e+003,1.558628e-002
1.311378e+003,1.578924e-002
1.313307e+003,1.593699e-002
1.315235e+003,1.605910e-002
1.317164e+003,1.610366e-002
1.319092e+003,1.605690e-002
1.321021e+003,1.595723e-002
1.322949e+003,1.586673e-002
1.324878e+003,1.574406e-002
1.326806e+003,1.567308e-002
1.328735e+003,1.557821e-002
1.330663e+003,1.553529e-002
1.332592e+003,1.552258e-002
1.334520e+003,1.551108e-002
1.336449e+003,1.540474e-002
1.338377e+003,1.527864e-002
1.340306e+003,1.517412e-002
1.342234e+003,1.508048e-002
1.344163e+003,1.504110e-002
1.346091e+003,1.504370e-002
1.348020e+003,1.506356e-002
1.349948e+003,1.515242e-002
1.351877e+003,1.524194e-002
1.353805e+003,1.541652e-002
1.355734e+003,1.562688e-002
1.357662e+003,1.576409e-002
1.359591e+003,1.589910e-002
1.361519e+003,1.608151e-002
1.363448e+003,1.626397e-002
1.365376e+003,1.643822e-002
1.367305e+003,1.655565e-002
1.369233e+003,1.662767e-002
1.371162e+003,1.655613e-002
1.373090e+003,1.640236e-002
1.375019e+003,1.622424e-002
1.376947e+003,1.606965e-002
1.378876e+003,1.588450e-002
1.380804e+003,1.567525e-002
1.382733e+003,1.543046e-002
1.384661e+003,1.518803e-002
1.386590e+003,1.494635e-002
1.388518e+003,1.478230e-002
1.390447e+003,1.463858e-002
1.392375e+003,1.450405e-002
1.394304e+003,1.441591e-002
1.396232e+003,1.435753e-002
1.398161e+003,1.435927e-002
1.400089e+003,1.439222e-002
1.402018e+003,1.440102e-002
1.403946e+003,1.439506e-002
1.405875e+003,1.438855e-002
1.407803e+003,1.441349e-002
1.409732e+003,1.446945e-002
1.411660e+003,1.453363e-002
1.413589e+003,1.463357e-002
1.415517e+003,1.471449e-002
1.417446e+003,1.477792e-002
1.419374e+003,1.482091e-002
1.421303e+003,1.486139e-002
1.423231e+003,1.489308e-002
1.425160e+003,1.489819e-002
1.427088e+003,1.489540e-002
1.429017e+003,1.482765e-002
1.430945e+003,1.479368e-002
1.432874e+003,1.475231e-002
1.434802e+003,1.467587e-002
1.436731e+003,1.457207e-002
1.438659e+003,1.446384e-002
1.440588e+003,1.435238e-002
1.442516e+003,1.426979e-002
1.444445e+003,1.418306e-002
1.446373e+003,1.411436e-002
1.448302e+003,1.406323e-002
1.450230e+003,1.405078e-002
1.452159e+003,1.396245e-002
1.454087e+003,1.384050e-002
1.456016e+003,1.368808e-002
1.457944e+003,1.353645e-002
1.459873e+003,1.343216e-002
1.461801e+003,1.334439e-002
1.463730e+003,1.323327e-002
1.465658e+003,1.304880e-002
1.467587e+003,1.275475e-002
1.469515e+003,1.241174e-002
1.471444e+003,1.204781e-002
1.473372e+003,1.172484e-002
1.475301e+003,1.135737e-002
1.477229e+003,1.109641e-002
1.479158e+003,1.092172e-002
1.481086e+003,1.083532e-002
1.483015e+003,1.085217e-002
1.484943e+003,1.089144e-002
1.486872e+003,1.094071e-002
1.488800e+003,1.108410e-002
1.490729e+003,1.128491e-002
1.492657e+003,1.147663e-002
1.494586e+003,1.164483e-002
1.496514e+003,1.186338e-002
1.498443e+003,1.209094e-002
1.500371e+003,1.228100e-002
1.502300e+003,1.245339e-002
1.504228e+003,1.264755e-002
1.506157e+003,1.281973e-002
1.508085e+003,1.307277e-002
1.510014e+003,1.332856e-002
1.511942e+003,1.353174e-002
1.513871e+003,1.371719e-002
1.515799e+003,1.383960e-002
1.517728e+003,1.382972e-002
1.519656e+003,1.375402e-002
1.521585e+003,1.367306e-002
1.523513e+003,1.362870e-002
1.525442e+003,1.358599e-002
1.527370e+003,1.359206e-002
1.529299e+003,1.359988e-002
1.531227e+003,1.360527e-002
1.533156e+003,1.358503e-002
1.535084e+003,1.354543e-002
1.537013e+003,1.349485e-002
1.538941e+003,1.346802e-002
1.540870e+003,1.340396e-002
1.542798e+003,1.332553e-002
1.544727e+003,1.326897e-002
1.546655e+003,1.320665e-002
1.548584e+003,1.306246e-002
1.550512e+003,1.296496e-002
1.552441e+003,1.283949e-002
1.554369e+003,1.268471e-002
1.556298e+003,1.255792e-002
1.558226e+003,1.241242e-002
1.560155e+003,1.231365e-002
1.562083e+003,1.224912e-002
1.564012e+003,1.219275e-002
1.565940e+003,1.214389e-002
1.567869e+003,1.210990e-002
1.569797e+003,1.211223e-002
1.571726e+003,1.213807e-002
1.573654e+003,1.217974e-002
1.575583e+003,1.223655e-002
1.577511e+003,1.233221e-002
1.579440e+003,1.241323e-002
1.581368e+003,1.256350e-002
1.583297e+003,1.274103e-002
1.585225e+003,1.290169e-002
1.587154e+003,1.309264e-002
1.589082e+003,1.335307e-002
1.591010e+003,1.358914e-002
1.592939e+003,1.373418e-002
1.594868e+003,1.387244e-002
1.596796e+003,1.404619e-002
1.598724e+003,1.424137e-002
1.600653e+003,1.446014e-002
1.602582e+003,1.465764e-002
1.604510e+003,1.488300e-002
1.606438e+003,1.512343e-002
1.608367e+003,1.537409e-002
1.610296e+003,1.565942e-002
1.612224e+003,1.603864e-002
1.614152e+003,1.642735e-002
1.616081e+003,1.683905e-002
1.618010e+003,1.723965e-002
1.619938e+003,1.760999e-002
1.621866e+003,1.792229e-002
1.623795e+003,1.814622e-002
1.625724e+003,1.823111e-002
1.627652e+003,1.819849e-002
1.629580e+003,1.810895e-002
1.631509e+003,1.794823e-002
1.633438e+003,1.773591e-002
1.635366e+003,1.752069e-002
1.637294e+003,1.737160e-002
1.639223e+003,1.724643e-002
1.641151e+003,1.714697e-002
1.643080e+003,1.699053e-002
1.645008e+003,1.685642e-002
1.646937e+003,1.680421e-002
1.648865e+003,1.677293e-002
1.650794e+003,1.664525e-002
1.652722e+003,1.650053e-002
1.654651e+003,1.635525e-002
1.656579e+003,1.609862e-002
1.658508e+003,1.579334e-002
1.660436e+003,1.549782e-002
1.662365e+003,1.512792e-002
1.664293e+003,1.476685e-002
1.666222e+003,1.444226e-002
1.668150e+003,1.408426e-002
1.670079e+003,1.375078e-002
1.672007e+003,1.346777e-002
1.673936e+003,1.319606e-002
1.675864e+003,1.293685e-002
1.677793e+003,1.268382e-002
1.679721e+003,1.239693e-002
1.681650e+003,1.208408e-002
1.683578e+003,1.187627e-002
1.685507e+003,1.167756e-002
1.687435e+003,1.145163e-002
1.689364e+003,1.123050e-002
1.691292e+003,1.110732e-002
1.693221e+003,1.101993e-002
1.695149e+003,1.085169e-002
1.697078e+003,1.064887e-002
1.699006e+003,1.039371e-002
1.700935e+003,1.011709e-002
1.702863e+003,9.853791e-003
1.704792e+003,9.715788e-003
1.706720e+003,9.726448e-003
1.708649e+003,9.718337e-003
1.710577e+003,9.676122e-003
1.712506e+003,9.674038e-003
1.714434e+003,9.691380e-003
1.716363e+003,9.795312e-003
1.718291e+003,9.804972e-003
1.720220e+003,9.866710e-003
1.722148e+003,9.985556e-003
1.724077e+003,1.014511e-002
1.726005e+003,1.021993e-002
1.727934e+003,1.028819e-002
1.729862e+003,1.043377e-002
1.731791e+003,1.047714e-002
1.733719e+003,1.036606e-002
1.735648e+003,1.023655e-002
1.737576e+003,1.005377e-002
1.739505e+003,9.902075e-003
1.741433e+003,9.633937e-003
1.743362e+003,9.296828e-003
1.745290e+003,8.936631e-003
1.747219e+003,8.748142e-003
1.749147e+003,8.572977e-003
1.751076e+003,8.339236e-003
1.753004e+003,8.169861e-003
1.754933e+003,8.071674e-003
1.756861e+003,7.957403e-003
1.758790e+003,7.772071e-003
1.760718e+003,7.601405e-003
1.762647e+003,7.510793e-003
1.764575e+003,7.485781e-003
1.766504e+003,7.438300e-003
1.768432e+003,7.363619e-003
1.770361e+003,7.289945e-003
1.772289e+003,7.251237e-003
1.774218e+003,7.224441e-003
1.776146e+003,7.208139e-003
1.778075e+003,7.219753e-003
1.780003e+003,7.312547e-003
1.781932e+003,7.288591e-003
1.783860e+003,7.175345e-003
1.785789e+003,7.182729e-003
1.787717e+003,7.196876e-003
1.789646e+003,7.248814e-003
1.791574e+003,7.359941e-003
1.793503e+003,7.352142e-003
1.795431e+003,7.317877e-003
1.797360e+003,7.353320e-003
1.799288e+003,7.356957e-003
1.801217e+003,7.284077e-003
1.803145e+003,7.318884e-003
1.805074e+003,7.384728e-003
1.807002e+003,7.354531e-003
1.808931e+003,7.366360e-003
1.810859e+003,7.367176e-003
1.812788e+003,7.421202e-003
1.814716e+003,7.474114e-003
1.816645e+003,7.434069e-003
1.818573e+003,7.504354e-003
1.820502e+003,7.608533e-003
1.822430e+003,7.559099e-003
1.824359e+003,7.571508e-003
1.826287e+003,7.579777e-003
1.828216e+003,7.589377e-003
1.830144e+003,7.601563e-003
1.832073e+003,7.530690e-003
1.834001e+003,7.545382e-003
1.835930e+003,7.658038e-003
1.837858e+003,7.725121e-003
1.839787e+003,7.796832e-003
1.841715e+003,7.778566e-003
1.843644e+003,7.709817e-003
1.845572e+003,7.859587e-003
1.847501e+003,7.933687e-003
1.849429e+003,7.917351e-003
1.851358e+003,7.919370e-003
1.853286e+003,7.908101e-003
1.855215e+003,7.902161e-003
1.857143e+003,7.942487e-003
1.859072e+003,7.906481e-003
1.861000e+003,7.802634e-003
1.862929e+003,7.846962e-003
1.864857e+003,7.966647e-003
1.866786e+003,8.046298e-003
1.868714e+003,8.017518e-003
1.870643e+003,7.997945e-003
1.872571e+003,8.084953e-003
1.874500e+003,8.030875e-003
1.876428e+003,7.966986e-003
1.878357e+003,8.044646e-003
1.880285e+003,8.240731e-003
1.882214e+003,8.332659e-003
1.884142e+003,8.355358e-003
1.886071e+003,8.302531e-003
1.887999e+003,8.108272e-003
1.889928e+003,8.144811e-003
1.891856e+003,8.203759e-003
1.893785e+003,8.388934e-003
1.895713e+003,8.367927e-003
1.897642e+003,8.414507e-003
1.899570e+003,8.666899e-003
1.901499e+003,8.650944e-003
1.903427e+003,8.419067e-003
1.905356e+003,8.239143e-003
1.907284e+003,8.188595e-003
1.909213e+003,8.330637e-003
1.911141e+003,8.397956e-003
1.913070e+003,8.506943e-003
1.914998e+003,8.497005e-003
1.916927e+003,8.685716e-003
1.918855e+003,8.728662e-003
1.920784e+003,8.603795e-003
1.922712e+003,8.487386e-003
1.924641e+003,8.561251e-003
1.926569e+003,8.691979e-003
1.928498e+003,8.680687e-003
1.930426e+003,8.637692e-003
1.932355e+003,8.692249e-003
1.934283e+003,8.543166e-003
1.936212e+003,8.523599e-003
1.938140e+003,8.462916e-003
1.940069e+003,8.728215e-003
1.941997e+003,9.147965e-003
1.943926e+003,9.114572e-003
1.945854e+003,9.093589e-003
1.947783e+003,8.948493e-003
1.949711e+003,8.677950e-003
1.951640e+003,8.998925e-003
1.953568e+003,9.633862e-003
1.955497e+003,9.374339e-003
1.957425e+003,8.951636e-003
1.959354e+003,9.385646e-003
1.961282e+003,1.001664e-002
1.963211e+003,1.004811e-002
1.965139e+003,9.544875e-003
1.967068e+003,1.005547e-002
1.968996e+003,1.003343e-002
1.970925e+003,9.740654e-003
1.972853e+003,8.728554e-003
1.974782e+003,8.597202e-003
1.976710e+003,9.231924e-003
1.978639e+003,9.574174e-003
1.980567e+003,9.115376e-003
1.982496e+003,9.621260e-003
1.984424e+003,9.141396e-003
1.986353e+003,8.607948e-003
1.988281e+003,8.119448e-003
1.990210e+003,8.871445e-003
1.992138e+003,8.532424e-003
1.994067e+003,7.696551e-003
1.995995e+003,7.682753e-003
1.997924e+003,7.522756e-003
1.999852e+003,7.475628e-003
2.001781e+003,7.030420e-003
2.003709e+003,6.161908e-003
2.005638e+003,6.946747e-003
2.007566e+003,7.055139e-003
2.009495e+003,6.127697e-003
2.011423e+003,6.251044e-003
2.013352e+003,7.274968e-003
2.015280e+003,6.497339e-003
2.017208e+003,5.331357e-003
2.019137e+003,4.373946e-003
2.021066e+003,4.661140e-003
2.022994e+003,4.456688e-003
2.024922e+003,4.087306e-003
2.026851e+003,3.823386e-003
2.028780e+003,3.803531e-003
2.030708e+003,4.658092e-003
2.032636e+003,5.072007e-003
2.034565e+003,4.115536e-003
2.036494e+003,3.782139e-003
2.038422e+003,4.117041e-003
2.040350e+003,3.908466e-003
2.042279e+003,4.135440e-003
2.044208e+003,4.500477e-003
2.046136e+003,4.978521e-003
2.048064e+003,5.070766e-003
2.049993e+003,4.747790e-003
2.051921e+003,5.173526e-003
2.053850e+003,5.252567e-003
2.055778e+003,5.180032e-003
2.057707e+003,5.246262e-003
2.059635e+003,5.085818e-003
2.061564e+003,5.587665e-003
2.063492e+003,5.622673e-003
2.065421e+003,5.578974e-003
2.067349e+003,5.366709e-003
2.069278e+003,5.412769e-003
2.071206e+003,5.680543e-003
2.073135e+003,5.730600e-003
2.075063e+003,6.019265e-003
2.076992e+003,5.996487e-003
2.078920e+003,6.058777e-003
2.080849e+003,6.124234e-003
2.082777e+003,6.186104e-003
2.084706e+003,6.135021e-003
2.086634e+003,6.432733e-003
2.088563e+003,6.913651e-003
2.090491e+003,6.730986e-003
2.092420e+003,6.710762e-003
2.094348e+003,6.817781e-003
2.096277e+003,6.809199e-003
2.098205e+003,6.704704e-003
2.100134e+003,6.705916e-003
2.102062e+003,6.885541e-003
2.103991e+003,6.913449e-003
2.105919e+003,7.026244e-003
2.107848e+003,6.850027e-003
2.109776e+003,6.918230e-003
2.111705e+003,6.923785e-003
2.113633e+003,7.044698e-003
2.115562e+003,7.222543e-003
2.117490e+003,7.353784e-003
2.119419e+003,7.327836e-003
2.121347e+003,7.098246e-003
2.123276e+003,7.003076e-003
2.125204e+003,7.211358e-003
2.127133e+003,7.385463e-003
2.129061e+003,7.423987e-003
2.130990e+003,7.269408e-003
2.132918e+003,7.098684e-003
2.134847e+003,7.039882e-003
2.136775e+003,7.299127e-003
2.138704e+003,7.066049e-003
2.140632e+003,7.037121e-003
2.142561e+003,7.483750e-003
2.144489e+003,7.517462e-003
2.146418e+003,7.364231e-003
2.148346e+003,7.159581e-003
2.150275e+003,7.108249e-003
2.152203e+003,6.846291e-003
2.154132e+003,7.289624e-003
2.156060e+003,8.457677e-003
2.157989e+003,8.441325e-003
2.159917e+003,7.647376e-003
2.161846e+003,7.571742e-003
2.163774e+003,7.527643e-003
2.165703e+003,7.663091e-003
2.167631e+003,7.559638e-003
2.169560e+003,7.436323e-003
2.171488e+003,7.690172e-003
2.173417e+003,7.646364e-003
2.175345e+003,7.252258e-003
2.177274e+003,7.411785e-003
2.179202e+003,7.562201e-003
2.181131e+003,7.243903e-003
2.183059e+003,6.761038e-003
2.184988e+003,6.998362e-003
2.186916e+003,7.094339e-003
2.188845e+003,6.521421e-003
2.190773e+003,6.764403e-003
2.192702e+003,7.103028e-003
2.194630e+003,6.903181e-003
2.196559e+003,6.157571e-003
2.198487e+003,6.029816e-003
2.200416e+003,6.557883e-003
2.202344e+003,6.626308e-003
2.204273e+003,6.420291e-003
2.206201e+003,5.818909e-003
2.208130e+003,6.107130e-003
2.210058e+003,6.649590e-003
2.211987e+003,5.935417e-003
2.213915e+003,5.223055e-003
2.215844e+003,5.416158e-003
2.217772e+003,6.252858e-003
2.219701e+003,6.188659e-003
2.221629e+003,6.175350e-003
2.223558e+003,6.368508e-003
2.225486e+003,6.497204e-003
2.227415e+003,6.212556e-003
2.229343e+003,5.736879e-003
2.231272e+003,5.504630e-003
2.233200e+003,5.668487e-003
2.235129e+003,5.970388e-003
2.237057e+003,6.165950e-003
2.238986e+003,5.827789e-003
2.240914e+003,5.546708e-003
2.242843e+003,5.304525e-003
2.244771e+003,5.278558e-003
2.246700e+003,5.746812e-003
2.248628e+003,5.857582e-003
2.250557e+003,5.684698e-003
2.252485e+003,5.843116e-003
2.254414e+003,5.674141e-003
2.256342e+003,5.807267e-003
2.258271e+003,6.299395e-003
2.260199e+003,6.481430e-003
2.262128e+003,6.599823e-003
2.264056e+003,6.472616e-003
2.265985e+003,6.563195e-003
2.267913e+003,6.879002e-003
2.269842e+003,6.808018e-003
2.271770e+003,6.766370e-003
2.273699e+003,6.581816e-003
2.275627e+003,6.523662e-003
2.277556e+003,6.811285e-003
2.279484e+003,7.049386e-003
2.281413e+003,7.250545e-003
2.283341e+003,7.281780e-003
2.285270e+003,7.239817e-003
2.287198e+003,7.166165e-003
2.289127e+003,7.123561e-003
2.291055e+003,7.133802e-003
2.292984e+003,7.220452e-003
2.294912e+003,7.314730e-003
2.296841e+003,7.268901e-003
2.298769e+003,7.279984e-003
2.300698e+003,7.349826e-003
2.302626e+003,7.407758e-003
2.304555e+003,7.548296e-003
2.306483e+003,7.551934e-003
2.308412e+003,7.437311e-003
2.310340e+003,7.311834e-003
2.312269e+003,7.283221e-003
2.314197e+003,7.253004e-003
2.316125e+003,7.312780e-003
2.318054e+003,7.196460e-003
2.319983e+003,6.938231e-003
2.321911e+003,6.750792e-003
2.323840e+003,6.825490e-003
2.325768e+003,6.990046e-003
2.327697e+003,6.922793e-003
2.329625e+003,6.869579e-003
2.331553e+003,6.883149e-003
2.333482e+003,6.683594e-003
2.335411e+003,6.576210e-003
2.337339e+003,6.475644e-003
2.339268e+003,6.700411e-003
2.341196e+003,6.711286e-003
2.343125e+003,6.616606e-003
2.345053e+003,6.883356e-003
2.346981e+003,7.070656e-003
2.348910e+003,7.162297e-003
2.350839e+003,7.343859e-003
2.352767e+003,7.559202e-003
2.354696e+003,7.564031e-003
2.356624e+003,7.528854e-003
2.358552e+003,7.554945e-003
2.360481e+003,7.673480e-003
2.362409e+003,7.784024e-003
2.364338e+003,8.057892e-003
2.366267e+003,8.244086e-003
2.368195e+003,7.855791e-003
2.370124e+003,7.609076e-003
2.372052e+003,7.584242e-003
2.373980e+003,7.553028e-003
2.375909e+003,7.669048e-003
2.377838e+003,7.844550e-003
2.379766e+003,7.760345e-003
2.381695e+003,7.527520e-003
2.383623e+003,7.597614e-003
2.385552e+003,7.643049e-003
2.387480e+003,7.570761e-003
2.389408e+003,7.619301e-003
2.391337e+003,7.605736e-003
2.393266e+003,7.527038e-003
2.395194e+003,7.518998e-003
2.397123e+003,7.519139e-003
2.399051e+003,7.512360e-003
2.400979e+003,7.441480e-003
2.402908e+003,7.395506e-003
2.404836e+003,7.393248e-003
2.406765e+003,7.430155e-003
2.408694e+003,7.334003e-003
2.410622e+003,7.379161e-003
2.412551e+003,7.468042e-003
2.414479e+003,7.422234e-003
2.416407e+003,7.389710e-003
2.418336e+003,7.392406e-003
2.420264e+003,7.323691e-003
2.422193e+003,7.461536e-003
2.424122e+003,7.520226e-003
2.426050e+003,7.605899e-003
2.427979e+003,7.609068e-003
2.429907e+003,7.680695e-003
2.431835e+003,7.747374e-003
2.433764e+003,7.846149e-003
2.435692e+003,7.821656e-003
2.437621e+003,7.920615e-003
2.439550e+003,7.913698e-003
2.441478e+003,7.785559e-003
2.443406e+003,7.720357e-003
2.445335e+003,7.712870e-003
2.447263e+003,7.702651e-003
2.449192e+003,7.834813e-003
2.451121e+003,7.970727e-003
2.453049e+003,7.837680e-003
2.454978e+003,7.762824e-003
2.456906e+003,7.780567e-003
2.458834e+003,7.836904e-003
2.460763e+003,7.907488e-003
2.462691e+003,7.892912e-003
2.464620e+003,7.928208e-003
2.466549e+003,7.961886e-003
2.468477e+003,7.998131e-003
2.470406e+003,7.991686e-003
2.472334e+003,7.842606e-003
2.474262e+003,7.859441e-003
2.476191e+003,7.914473e-003
2.478119e+003,7.942617e-003
2.480048e+003,7.952437e-003
2.481977e+003,7.966576e-003
2.483905e+003,7.897164e-003
2.485833e+003,7.702583e-003
2.487762e+003,7.726260e-003
2.489690e+003,7.861263e-003
2.491619e+003,7.775271e-003
2.493547e+003,7.754391e-003
2.495476e+003,7.888459e-003
2.497405e+003,7.919434e-003
2.499333e+003,7.931650e-003
2.501261e+003,7.972179e-003
2.503190e+003,8.014197e-003
2.505118e+003,8.070531e-003
2.507047e+003,8.061721e-003
2.508975e+003,7.992563e-003
2.510904e+003,7.933505e-003
2.512833e+003,7.843787e-003
2.514761e+003,7.818957e-003
2.516689e+003,7.734625e-003
2.518618e+003,7.778981e-003
2.520546e+003,7.850029e-003
2.522475e+003,7.829786e-003
2.524403e+003,7.662720e-003
2.526332e+003,7.643261e-003
2.528260e+003,7.778037e-003
2.530189e+003,7.829516e-003
2.532117e+003,7.852930e-003
2.534046e+003,7.698097e-003
2.535974e+003,7.630751e-003
2.537903e+003,7.604415e-003
2.539831e+003,7.558289e-003
2.541760e+003,7.570393e-003
2.543688e+003,7.470941e-003
2.545617e+003,7.335789e-003
2.547545e+003,7.375521e-003
2.549474e+003,7.421560e-003
2.551402e+003,7.456008e-003
2.553331e+003,7.409224e-003
2.555259e+003,7.228338e-003
2.557188e+003,7.111213e-003
2.559116e+003,6.992537e-003
2.561045e+003,6.921697e-003
2.562973e+003,6.998026e-003
2.564902e+003,7.138563e-003
2.566830e+003,6.960146e-003
2.568759e+003,6.829158e-003
2.570687e+003,6.883387e-003
2.572616e+003,6.862785e-003
2.574544e+003,6.759624e-003
2.576473e+003,6.698345e-003
2.578401e+003,6.649658e-003
2.580330e+003,6.555326e-003
2.582258e+003,6.486239e-003
2.584187e+003,6.462260e-003
2.586115e+003,6.537330e-003
2.588044e+003,6.548330e-003
2.589972e+003,6.448203e-003
2.591901e+003,6.397190e-003
2.593829e+003,6.293803e-003
2.595758e+003,6.328834e-003
2.597686e+003,6.331658e-003
2.599615e+003,6.214506e-003
2.601543e+003,6.252657e-003
2.603472e+003,6.351057e-003
2.605400e+003,6.323690e-003
2.607329e+003,6.235379e-003
2.609257e+003,6.310175e-003
2.611186e+003,6.372004e-003
2.613114e+003,6.380141e-003
2.615043e+003,6.424124e-003
2.616971e+003,6.481026e-003
2.618900e+003,6.444806e-003
2.620828e+003,6.475679e-003
2.622757e+003,6.584626e-003
2.624685e+003,6.618974e-003
2.626614e+003,6.620757e-003
2.628542e+003,6.635426e-003
2.630471e+003,6.658540e-003
2.632399e+003,6.713049e-003
2.634328e+003,6.821753e-003
2.636256e+003,6.949843e-003
2.638185e+003,7.000113e-003
2.640113e+003,7.052309e-003
2.642042e+003,7.119398e-003
2.643970e+003,7.157560e-003
2.645899e+003,7.207214e-003
2.647827e+003,7.237165e-003
2.649756e+003,7.316648e-003
2.651684e+003,7.389642e-003
2.653613e+003,7.419167e-003
2.655541e+003,7.467772e-003
2.657470e+003,7.545579e-003
2.659398e+003,7.635134e-003
2.661327e+003,7.663563e-003
2.663255e+003,7.648826e-003
2.665184e+003,7.691521e-003
2.667112e+003,7.751861e-003
2.669041e+003,7.766669e-003
2.670969e+003,7.807723e-003
2.672898e+003,7.816629e-003
2.674826e+003,7.809713e-003
2.676755e+003,7.838861e-003
2.678683e+003,7.874625e-003
2.680612e+003,7.924428e-003
2.682540e+003,7.949602e-003
2.684469e+003,7.952774e-003
2.686397e+003,7.939512e-003
2.688326e+003,7.986994e-003
2.690254e+003,8.019698e-003
2.692183e+003,8.062228e-003
2.694111e+003,8.118770e-003
2.696040e+003,8.173903e-003
2.697968e+003,8.192676e-003
2.699897e+003,8.204662e-003
2.701825e+003,8.218439e-003
2.703754e+003,8.204662e-003
2.705682e+003,8.328432e-003
2.707611e+003,8.408724e-003
2.709539e+003,8.383929e-003
2.711468e+003,8.394131e-003
2.713396e+003,8.444163e-003
2.715325e+003,8.474131e-003
2.717253e+003,8.487207e-003
2.719182e+003,8.494100e-003
2.721110e+003,8.494538e-003
2.723039e+003,8.503493e-003
2.724967e+003,8.557356e-003
2.726896e+003,8.593922e-003
2.728824e+003,8.546374e-003
2.730753e+003,8.576585e-003
2.732681e+003,8.600614e-003
2.734610e+003,8.595172e-003
2.736538e+003,8.647965e-003
2.738467e+003,8.714862e-003
2.740395e+003,8.705363e-003
2.742324e+003,8.704991e-003
2.744252e+003,8.739608e-003
2.746181e+003,8.770814e-003
2.748109e+003,8.778827e-003
2.750038e+003,8.764153e-003
2.751966e+003,8.733557e-003
2.753895e+003,8.734098e-003
2.755823e+003,8.775987e-003
2.757752e+003,8.801210e-003
2.759680e+003,8.818522e-003
2.761609e+003,8.816223e-003
2.763537e+003,8.819774e-003
2.765466e+003,8.872560e-003
2.767394e+003,8.917507e-003
2.769323e+003,8.913888e-003
2.771251e+003,8.908577e-003
2.773180e+003,8.942975e-003
2.775108e+003,8.962593e-003
2.777037e+003,8.992427e-003
2.778965e+003,9.055384e-003
2.780894e+003,9.034578e-003
2.782822e+003,9.021147e-003
2.784750e+003,9.022230e-003
2.786679e+003,9.013062e-003
2.788608e+003,9.004199e-003
2.790536e+003,9.020437e-003
2.792465e+003,9.108470e-003
2.794393e+003,9.137130e-003
2.796322e+003,9.140718e-003
2.798250e+003,9.162679e-003
2.800178e+003,9.192562e-003
2.802107e+003,9.205286e-003
2.804036e+003,9.223902e-003
2.805964e+003,9.217842e-003
2.807893e+003,9.210837e-003
2.809821e+003,9.261979e-003
2.811750e+003,9.281611e-003
2.813678e+003,9.309707e-003
2.815606e+003,9.319118e-003
2.817535e+003,9.313567e-003
2.819464e+003,9.390147e-003
2.821392e+003,9.458648e-003
2.823321e+003,9.524247e-003
2.825249e+003,9.524145e-003
2.827177e+003,9.548328e-003
2.829106e+003,9.545246e-003
2.831034e+003,9.609672e-003
2.832963e+003,9.665366e-003
2.834892e+003,9.727574e-003
2.836820e+003,9.801280e-003
2.838749e+003,9.872557e-003
2.840677e+003,9.990598e-003
2.842605e+003,1.014289e-002
2.844534e+003,1.030410e-002
2.846462e+003,1.055498e-002
2.848391e+003,1.079170e-002
2.850320e+003,1.086990e-002
2.852248e+003,1.084986e-002
2.854177e+003,1.082856e-002
2.856105e+003,1.082197e-002
2.858033e+003,1.081636e-002
2.859962e+003,1.078633e-002
2.861890e+003,1.075773e-002
2.863819e+003,1.077275e-002
2.865748e+003,1.080148e-002
2.867676e+003,1.084850e-002
2.869604e+003,1.086674e-002
2.871533e+003,1.089664e-002
2.873461e+003,1.092797e-002
2.875390e+003,1.097340e-002
2.877319e+003,1.098842e-002
2.879247e+003,1.093544e-002
2.881176e+003,1.089324e-002
2.883104e+003,1.091821e-002
2.885032e+003,1.098308e-002
2.886961e+003,1.101577e-002
2.888889e+003,1.107627e-002
2.890818e+003,1.110877e-002
2.892747e+003,1.110649e-002
2.894675e+003,1.116544e-002
2.896604e+003,1.118512e-002
2.898532e+003,1.120868e-002
2.900460e+003,1.119984e-002
2.902389e+003,1.119457e-002
2.904317e+003,1.121718e-002
2.906246e+003,1.127309e-002
2.908175e+003,1.137777e-002
2.910103e+003,1.144216e-002
2.912031e+003,1.149023e-002
2.913960e+003,1.163288e-002
2.915888e+003,1.179664e-002
2.917817e+003,1.177928e-002
2.919745e+003,1.167144e-002
2.921674e+003,1.164053e-002
2.923603e+003,1.161647e-002
2.925531e+003,1.151915e-002
2.927459e+003,1.144981e-002
2.929388e+003,1.132433e-002
2.931316e+003,1.119444e-002
2.933245e+003,1.103154e-002
2.935173e+003,1.096871e-002
2.937102e+003,1.091297e-002
2.939031e+003,1.076669e-002
2.940959e+003,1.065957e-002
2.942887e+003,1.058286e-002
2.944816e+003,1.042149e-002
2.946744e+003,1.026924e-002
2.948673e+003,1.019993e-002
2.950601e+003,1.015621e-002
2.952530e+003,1.014848e-002
2.954458e+003,1.012648e-002
2.956387e+003,1.009344e-002
2.958315e+003,9.943873e-003
2.960244e+003,9.848110e-003
2.962172e+003,9.816284e-003
2.964101e+003,9.775349e-003
2.966029e+003,9.680647e-003
2.967958e+003,9.558924e-003
2.969886e+003,9.485121e-003
2.971815e+003,9.377207e-003
2.973743e+003,9.265843e-003
2.975672e+003,9.226981e-003
2.977600e+003,9.224977e-003
2.979529e+003,9.260179e-003
2.981457e+003,9.221798e-003
2.983386e+003,9.134248e-003
2.985314e+003,9.039987e-003
2.987243e+003,8.970955e-003
2.989171e+003,8.938303e-003
2.991100e+003,8.983955e-003
2.993028e+003,8.971599e-003
2.994957e+003,8.941056e-003
2.996885e+003,8.989638e-003
2.998814e+003,8.995793e-003
3.000742e+003,8.937211e-003
3.002671e+003,8.951433e-003
3.004599e+003,8.944889e-003
3.006528e+003,8.912290e-003
3.008456e+003,8.913677e-003
3.010385e+003,8.900423e-003
3.012313e+003,8.911001e-003
3.014242e+003,9.026089e-003
3.016170e+003,9.052256e-003
3.018099e+003,9.010281e-003
3.020027e+003,9.050703e-003
3.021956e+003,9.072191e-003
3.023884e+003,9.154386e-003
3.025813e+003,9.117312e-003
3.027741e+003,9.125113e-003
3.029670e+003,9.084329e-003
3.031598e+003,9.065031e-003
3.033527e+003,9.156985e-003
3.035455e+003,9.198819e-003
3.037384e+003,9.225042e-003
3.039312e+003,9.293974e-003
3.041241e+003,9.316985e-003
3.043169e+003,9.296988e-003
3.045098e+003,9.297294e-003
3.047026e+003,9.275967e-003
3.048955e+003,9.357195e-003
3.050883e+003,9.418990e-003
3.052812e+003,9.413389e-003
3.054740e+003,9.458878e-003
3.056669e+003,9.439404e-003
3.058597e+003,9.493512e-003
3.060526e+003,9.503178e-003
3.062454e+003,9.488802e-003
3.064383e+003,9.583559e-003
3.066311e+003,9.610384e-003
3.068240e+003,9.619792e-003
3.070168e+003,9.656747e-003
3.072097e+003,9.711226e-003
3.074025e+003,9.694750e-003
3.075954e+003,9.736197e-003
3.077882e+003,9.785139e-003
3.079811e+003,9.819403e-003
3.081739e+003,9.841987e-003
3.083668e+003,9.840323e-003
3.085596e+003,9.855121e-003
3.087525e+003,9.914379e-003
3.089453e+003,9.969588e-003
3.091382e+003,9.970549e-003
3.093310e+003,9.996514e-003
3.095239e+003,1.005506e-002
3.097167e+003,1.003150e-002
3.099096e+003,1.004154e-002
3.101024e+003,1.011721e-002
3.102953e+003,1.011391e-002
3.104881e+003,1.018563e-002
3.106810e+003,1.021148e-002
3.108738e+003,1.020179e-002
3.110667e+003,1.026024e-002
3.112595e+003,1.027639e-002
3.114524e+003,1.027120e-002
3.116452e+003,1.031784e-002
3.118381e+003,1.034423e-002
3.120309e+003,1.041064e-002
3.122238e+003,1.044071e-002
3.124166e+003,1.041071e-002
3.126095e+003,1.043944e-002
3.128023e+003,1.051289e-002
3.129952e+003,1.057506e-002
3.131880e+003,1.066976e-002
3.133809e+003,1.071377e-002
3.135737e+003,1.065027e-002
3.137666e+003,1.072401e-002
3.139594e+003,1.078974e-002
3.141523e+003,1.077152e-002
3.143451e+003,1.079329e-002
3.145380e+003,1.091419e-002
3.147308e+003,1.098272e-002
3.149237e+003,1.100858e-002
3.151165e+003,1.102887e-002
3.153094e+003,1.105583e-002
3.155022e+003,1.112211e-002
3.156951e+003,1.120561e-002
3.158879e+003,1.125590e-002
3.160808e+003,1.129235e-002
3.162736e+003,1.132405e-002
3.164665e+003,1.136163e-002
3.166593e+003,1.139388e-002
3.168522e+003,1.142511e-002
3.170450e+003,1.147838e-002
3.172379e+003,1.150209e-002
3.174307e+003,1.158797e-002
3.176236e+003,1.170346e-002
3.178164e+003,1.176924e-002
3.180093e+003,1.179094e-002
3.182021e+003,1.179408e-002
3.183950e+003,1.178785e-002
3.185878e+003,1.188857e-002
3.187807e+003,1.192099e-002
3.189735e+003,1.192306e-002
3.191664e+003,1.195838e-002
3.193592e+003,1.201367e-002
3.195521e+003,1.208994e-002
3.197449e+003,1.213207e-002
3.199378e+003,1.215479e-002
3.201306e+003,1.224997e-002
3.203235e+003,1.234400e-002
3.205163e+003,1.242800e-002
3.207092e+003,1.244755e-002
3.209020e+003,1.251629e-002
3.210948e+003,1.260703e-002
3.212877e+003,1.267967e-002
3.214806e+003,1.275976e-002
3.216734e+003,1.275238e-002
3.218663e+003,1.274123e-002
3.220591e+003,1.288230e-002
3.222520e+003,1.299931e-002
3.224448e+003,1.301141e-002
3.226376e+003,1.300727e-002
3.228305e+003,1.304163e-002
3.230234e+003,1.308407e-002
3.232162e+003,1.314423e-002
3.234091e+003,1.321131e-002
3.236019e+003,1.336082e-002
3.237948e+003,1.351720e-002
3.239876e+003,1.348000e-002
3.241804e+003,1.344927e-002
3.243733e+003,1.344950e-002
3.245662e+003,1.353681e-002
3.247590e+003,1.361881e-002
3.249519e+003,1.369160e-002
3.251447e+003,1.377549e-002
3.253375e+003,1.386725e-002
3.255304e+003,1.394734e-002
3.257232e+003,1.406915e-002
3.259161e+003,1.414721e-002
3.261090e+003,1.415237e-002
3.263018e+003,1.426585e-002
3.264947e+003,1.431914e-002
3.266875e+003,1.431086e-002
3.268803e+003,1.433791e-002
3.270732e+003,1.441006e-002
3.272660e+003,1.453014e-002
3.274589e+003,1.455504e-002
3.276518e+003,1.463777e-002
3.278446e+003,1.469615e-002
3.280375e+003,1.468658e-002
3.282303e+003,1.462348e-002
3.284231e+003,1.458572e-002
3.286160e+003,1.464865e-002
3.288088e+003,1.467369e-002
3.290017e+003,1.464936e-002
3.291946e+003,1.458918e-002
3.293874e+003,1.456773e-002
3.295802e+003,1.462680e-002
3.297731e+003,1.464700e-002
3.299659e+003,1.461326e-002
3.301588e+003,1.466464e-002
3.303516e+003,1.464218e-002
3.305445e+003,1.466658e-002
3.307374e+003,1.471663e-002
3.309302e+003,1.468153e-002
3.311230e+003,1.465228e-002
3.313159e+003,1.468147e-002
3.315087e+003,1.472146e-002
3.317016e+003,1.479508e-002
3.318944e+003,1.473636e-002
3.320873e+003,1.474146e-002
3.322802e+003,1.471234e-002
3.324730e+003,1.463527e-002
3.326658e+003,1.460592e-002
3.328587e+003,1.457695e-002
3.330515e+003,1.463769e-002
3.332444e+003,1.466702e-002
3.334372e+003,1.466001e-002
3.336301e+003,1.467703e-002
3.338229e+003,1.468998e-002
3.340158e+003,1.470034e-002
3.342086e+003,1.464632e-002
3.344015e+003,1.456442e-002
3.345943e+003,1.457518e-002
3.347872e+003,1.461605e-002
3.349800e+003,1.452984e-002
3.351729e+003,1.448230e-002
3.353657e+003,1.447682e-002
3.355586e+003,1.442362e-002
3.357514e+003,1.437209e-002
3.359443e+003,1.438084e-002
3.361371e+003,1.434999e-002
3.363300e+003,1.432636e-002
3.365229e+003,1.430047e-002
3.367157e+003,1.428924e-002
3.369085e+003,1.430749e-002
3.371014e+003,1.419546e-002
3.372942e+003,1.414357e-002
3.374871e+003,1.419005e-002
3.376799e+003,1.421868e-002
3.378728e+003,1.411714e-002
3.380656e+003,1.403785e-002
3.382585e+003,1.404756e-002
3.384513e+003,1.402154e-002
3.386442e+003,1.399093e-002
3.388370e+003,1.395522e-002
3.390299e+003,1.391676e-002
3.392227e+003,1.383024e-002
3.394156e+003,1.375230e-002
3.396084e+003,1.377963e-002
3.398013e+003,1.378542e-002
3.399941e+003,1.371993e-002
3.401870e+003,1.367232e-002
3.403798e+003,1.364378e-002
3.405727e+003,1.358856e-002
3.407655e+003,1.351328e-002
3.409584e+003,1.342698e-002
3.411512e+003,1.342732e-002
3.413441e+003,1.337141e-002
3.415369e+003,1.324200e-002
3.417298e+003,1.315268e-002
3.419226e+003,1.303955e-002
3.421155e+003,1.301981e-002
3.423083e+003,1.294972e-002
3.425012e+003,1.288016e-002
3.426940e+003,1.278136e-002
3.428869e+003,1.278078e-002
3.430797e+003,1.268101e-002
3.432726e+003,1.253823e-002
3.434654e+003,1.248874e-002
3.436583e+003,1.238676e-002
3.438511e+003,1.228003e-002
3.440440e+003,1.219970e-002
3.442368e+003,1.209346e-002
3.444297e+003,1.199783e-002
3.446225e+003,1.189620e-002
3.448154e+003,1.177015e-002
3.450082e+003,1.163614e-002
3.452011e+003,1.159319e-002
3.453939e+003,1.161239e-002
3.455868e+003,1.155763e-002
3.457796e+003,1.135698e-002
3.459725e+003,1.131488e-002
3.461653e+003,1.123595e-002
3.463582e+003,1.109031e-002
3.465510e+003,1.094645e-002
3.467439e+003,1.080019e-002
3.469367e+003,1.074092e-002
3.471296e+003,1.073566e-002
3.473224e+003,1.065371e-002
3.475153e+003,1.049085e-002
3.477081e+003,1.034682e-002
3.479010e+003,1.034970e-002
3.480938e+003,1.035856e-002
3.482867e+003,1.031010e-002
3.484795e+003,1.014672e-002
3.486724e+003,1.007625e-002
3.488652e+003,9.933573e-003
3.490581e+003,9.869710e-003
3.492509e+003,9.767662e-003
3.494438e+003,9.688947e-003
3.496366e+003,9.652120e-003
3.498295e+003,9.518895e-003
3.500223e+003,9.472261e-003
3.502152e+003,9.389267e-003
3.504080e+003,9.260794e-003
3.506009e+003,9.235781e-003
3.507937e+003,9.236458e-003
3.509866e+003,9.126607e-003
3.511794e+003,9.046859e-003
3.513723e+003,9.002779e-003
3.515651e+003,8.898161e-003
3.517580e+003,8.815242e-003
3.519508e+003,8.754686e-003
3.521437e+003,8.672100e-003
3.523365e+003,8.631978e-003
3.525294e+003,8.524510e-003
3.527222e+003,8.391226e-003
3.529151e+003,8.380146e-003
3.531079e+003,8.394874e-003
3.533008e+003,8.341706e-003
3.534936e+003,8.240962e-003
3.536865e+003,8.226915e-003
3.538793e+003,8.165732e-003
3.540722e+003,8.027866e-003
3.542650e+003,7.861533e-003
3.544579e+003,7.788427e-003
3.546507e+003,7.771459e-003
3.548436e+003,7.715433e-003
3.550364e+003,7.687912e-003
3.552293e+003,7.610181e-003
3.554221e+003,7.458030e-003
3.556150e+003,7.462446e-003
3.558078e+003,7.468783e-003
3.560007e+003,7.466289e-003
3.561935e+003,7.441379e-003
3.563864e+003,7.315300e-003
3.565792e+003,7.176289e-003
3.567721e+003,7.165982e-003
3.569649e+003,7.121822e-003
3.571578e+003,7.033888e-003
3.573506e+003,6.979472e-003
3.575435e+003,6.919374e-003
3.577363e+003,6.876688e-003
3.579292e+003,6.885474e-003
3.581220e+003,6.940315e-003
3.583149e+003,6.838078e-003
3.585077e+003,6.698883e-003
3.587006e+003,6.693701e-003
3.588934e+003,6.712209e-003
3.590863e+003,6.740745e-003
3.592791e+003,6.550987e-003
3.594720e+003,6.393222e-003
3.596648e+003,6.358252e-003
3.598577e+003,6.391910e-003
3.600505e+003,6.366154e-003
3.602434e+003,6.343257e-003
3.604362e+003,6.259581e-003
3.606291e+003,6.166679e-003
3.608219e+003,6.095839e-003
3.610148e+003,5.961249e-003
3.612076e+003,5.923325e-003
3.614005e+003,5.969983e-003
3.615933e+003,5.811388e-003
3.617862e+003,5.791273e-003
3.619790e+003,5.847085e-003
3.621719e+003,5.788654e-003
3.623647e+003,5.806585e-003
3.625576e+003,5.855481e-003
3.627504e+003,5.790199e-003
3.629433e+003,5.769918e-003
3.631361e+003,5.736241e-003
3.633290e+003,5.751283e-003
3.635218e+003,5.584980e-003
3.637146e+003,5.386870e-003
3.639075e+003,5.326556e-003
3.641004e+003,5.222283e-003
3.642932e+003,5.119780e-003
3.644861e+003,5.078509e-003
3.646789e+003,5.058295e-003
3.648718e+003,5.075325e-003
3.650646e+003,5.031009e-003
3.652574e+003,4.900435e-003
3.654503e+003,4.777671e-003
3.656432e+003,4.823167e-003
3.658360e+003,4.986530e-003
3.660289e+003,4.967996e-003
3.662217e+003,4.884048e-003
3.664146e+003,4.858985e-003
3.666074e+003,4.807387e-003
3.668002e+003,4.725246e-003
3.669931e+003,4.690511e-003
3.671860e+003,4.665023e-003
3.673788e+003,4.713053e-003
3.675717e+003,4.736333e-003
3.677645e+003,4.490800e-003
3.679573e+003,4.552204e-003
3.681502e+003,4.720724e-003
3.683430e+003,4.667468e-003
3.685359e+003,4.663315e-003
3.687288e+003,4.671789e-003
3.689216e+003,4.558130e-003
3.691145e+003,4.433756e-003
3.693073e+003,4.520898e-003
3.695001e+003,4.588568e-003
3.696930e+003,4.599049e-003
3.698858e+003,4.657454e-003
3.700787e+003,4.588903e-003
3.702716e+003,4.472320e-003
3.704644e+003,4.480857e-003
3.706573e+003,4.495521e-003
3.708501e+003,4.430041e-003
3.710429e+003,4.385624e-003
3.712358e+003,4.243532e-003
3.714286e+003,4.149688e-003
3.716215e+003,4.276490e-003
3.718144e+003,4.434761e-003
3.720072e+003,4.462880e-003
3.722000e+003,4.371231e-003
3.723929e+003,4.435163e-003
3.725857e+003,4.455314e-003
3.727786e+003,4.475936e-003
3.729714e+003,4.510285e-003
3.731643e+003,4.419865e-003
3.733572e+003,4.398945e-003
3.735500e+003,4.302357e-003
3.737428e+003,4.249621e-003
3.739357e+003,4.141392e-003
3.741285e+003,4.161296e-003
3.743214e+003,4.198765e-003
3.745142e+003,4.191673e-003
3.747071e+003,3.978481e-003
3.749000e+003,4.003694e-003
3.750928e+003,4.126975e-003
3.752856e+003,4.202378e-003
3.754785e+003,4.180465e-003
3.756713e+003,4.134301e-003
3.758642e+003,4.074294e-003
3.760570e+003,4.188561e-003
3.762499e+003,4.211479e-003
3.764427e+003,4.126172e-003
3.766356e+003,4.172938e-003
3.768284e+003,4.179261e-003
3.770213e+003,4.108377e-003
3.772141e+003,4.117475e-003
3.774070e+003,4.157717e-003
3.775998e+003,4.218806e-003
3.777927e+003,4.196658e-003
3.779855e+003,4.134936e-003
3.781784e+003,4.109113e-003
3.783712e+003,4.165110e-003
3.785641e+003,4.204587e-003
3.787569e+003,4.188093e-003
3.789498e+003,4.159022e-003
3.791426e+003,4.200137e-003
3.793355e+003,4.201743e-003
3.795283e+003,4.177153e-003
3.797212e+003,4.197963e-003
3.799140e+003,4.300885e-003
3.801069e+003,4.307511e-003
3.802997e+003,4.286864e-003
3.804926e+003,4.335287e-003
3.806854e+003,4.298777e-003
3.808783e+003,4.293623e-003
3.810711e+003,4.341177e-003
3.812640e+003,4.376888e-003
3.814568e+003,4.372737e-003
3.816497e+003,4.332107e-003
3.818425e+003,4.272408e-003
3.820354e+003,4.347971e-003
3.822282e+003,4.444066e-003
3.824211e+003,4.471148e-003
3.826139e+003,4.524648e-003
3.828068e+003,4.582942e-003
3.829996e+003,4.558666e-003
3.831925e+003,4.432685e-003
3.833853e+003,4.394594e-003
3.835782e+003,4.454009e-003
3.837710e+003,4.457892e-003
3.839639e+003,4.393924e-003
3.841567e+003,4.438711e-003
3.843496e+003,4.539681e-003
3.845424e+003,4.594830e-003
3.847353e+003,4.568042e-003
3.849281e+003,4.540351e-003
3.851210e+003,4.464152e-003
3.853138e+003,4.454544e-003
3.855067e+003,4.529503e-003
3.856995e+003,4.593256e-003
3.858924e+003,4.619376e-003
3.860852e+003,4.643555e-003
3.862781e+003,4.640374e-003
3.864709e+003,4.589807e-003
3.866638e+003,4.543900e-003
3.868566e+003,4.592988e-003
3.870495e+003,4.607622e-003
3.872423e+003,4.503957e-003
3.874352e+003,4.505564e-003
3.876280e+003,4.567238e-003
3.878209e+003,4.569280e-003
3.880137e+003,4.596638e-003
3.882066e+003,4.638733e-003
3.883994e+003,4.664588e-003
3.885923e+003,4.662846e-003
3.887851e+003,4.639671e-003
3.889780e+003,4.643220e-003
3.891708e+003,4.674669e-003
3.893637e+003,4.690947e-003
3.895565e+003,4.617903e-003
3.897494e+003,4.681636e-003
3.899422e+003,4.736266e-003
3.901351e+003,4.647809e-003
3.903279e+003,4.607521e-003
3.905208e+003,4.603805e-003
3.907136e+003,4.627681e-003
3.909065e+003,4.662880e-003
3.910993e+003,4.709570e-003
3.912922e+003,4.695770e-003
3.914850e+003,4.695971e-003
3.916779e+003,4.712986e-003
3.918707e+003,4.678889e-003
3.920636e+003,4.713824e-003
3.922564e+003,4.615324e-003
3.924493e+003,4.577216e-003
3.926421e+003,4.762261e-003
3.928350e+003,4.775728e-003
3.930278e+003,4.664554e-003
3.932207e+003,4.665995e-003
3.934135e+003,4.747589e-003
3.936064e+003,4.710909e-003
3.937992e+003,4.725179e-003
3.939921e+003,4.734859e-003
3.941849e+003,4.746014e-003
3.943778e+003,4.786884e-003
3.945706e+003,4.802965e-003
3.947635e+003,4.783869e-003
3.949563e+003,4.790435e-003
3.951492e+003,4.835028e-003
3.953420e+003,4.842633e-003
3.955349e+003,4.782930e-003
3.957277e+003,4.767688e-003
3.959206e+003,4.670549e-003
3.961134e+003,4.695033e-003
3.963063e+003,4.812412e-003
3.964991e+003,4.859588e-003
3.966920e+003,4.742597e-003
3.968848e+003,4.756432e-003
3.970777e+003,4.781188e-003
3.972705e+003,4.772881e-003
3.974634e+003,4.761055e-003
3.976562e+003,4.799279e-003
3.978491e+003,4.756164e-003
3.980419e+003,4.731543e-003
3.982348e+003,4.792680e-003
3.984276e+003,4.802362e-003
3.986205e+003,4.767219e-003
3.988133e+003,4.785242e-003
3.990062e+003,4.813083e-003
3.991990e+003,4.842232e-003
3.993919e+003,4.834860e-003
3.995847e+003,4.874130e-003
3.997776e+003,4.875772e-003
3.999704e+003,4.875772e-003
4.001633e+003,0.000000e+000
