3.991989e+002,3.638050e-002
4.011274e+002,3.617753e-002
4.030559e+002,3.617753e-002
4.049844e+002,3.588938e-002
4.069129e+002,3.775340e-002
4.088414e+002,3.908458e-002
4.107699e+002,3.984429e-002
4.126984e+002,4.075578e-002
4.146269e+002,4.072029e-002
4.165554e+002,4.117789e-002
4.184839e+002,4.287364e-002
4.204124e+002,4.241232e-002
4.223409e+002,4.251928e-002
4.242694e+002,4.307969e-002
4.261979e+002,4.293565e-002
4.281264e+002,4.293318e-002
4.300549e+002,4.328258e-002
4.319834e+002,4.377981e-002
4.339119e+002,4.383039e-002
4.358404e+002,4.354997e-002
4.377689e+002,4.336361e-002
4.396974e+002,4.296571e-002
4.416259e+002,4.392296e-002
4.435544e+002,4.422301e-002
4.454829e+002,4.391678e-002
4.474114e+002,4.358466e-002
4.493399e+002,4.406912e-002
4.512684e+002,4.432572e-002
4.531969e+002,4.450916e-002
4.551254e+002,4.474970e-002
4.570539e+002,4.480140e-002
4.589824e+002,4.453998e-002
4.609109e+002,4.471322e-002
4.628394e+002,4.484157e-002
4.647679e+002,4.505799e-002
4.666964e+002,4.484946e-002
4.686249e+002,4.486019e-002
4.705533e+002,4.468207e-002
4.724819e+002,4.426967e-002
4.744103e+002,4.469984e-002
4.763389e+002,4.488504e-002
4.782673e+002,4.438017e-002
4.801959e+002,4.465227e-002
4.821243e+002,4.493394e-002
4.840529e+002,4.530002e-002
4.859813e+002,4.581008e-002
4.879099e+002,4.569137e-002
4.898383e+002,4.569620e-002
4.917668e+002,4.542393e-002
4.936953e+002,4.547011e-002
4.956238e+002,4.583294e-002
4.975523e+002,4.630650e-002
4.994808e+002,4.644153e-002
5.014093e+002,4.662649e-002
5.033378e+002,4.680763e-002
5.052663e+002,4.726655e-002
5.071948e+002,4.729746e-002
5.091233e+002,4.720943e-002
5.110518e+002,4.788047e-002
5.129803e+002,4.841432e-002
5.149088e+002,4.867964e-002
5.168373e+002,4.932371e-002
5.187658e+002,4.969319e-002
5.206943e+002,5.006488e-002
5.226228e+002,5.031863e-002
5.245513e+002,5.082351e-002
5.264798e+002,5.092666e-002
5.284083e+002,5.091474e-002
5.303368e+002,5.110456e-002
5.322653e+002,5.111680e-002
5.341938e+002,5.095430e-002
5.361223e+002,5.088287e-002
5.380508e+002,5.062902e-002
5.399792e+002,5.100882e-002
5.419078e+002,5.124667e-002
5.438363e+002,5.180354e-002
5.457648e+002,5.153794e-002
5.476932e+002,5.173947e-002
5.496218e+002,5.244432e-002
5.515503e+002,5.328858e-002
5.534788e+002,5.387803e-002
5.554072e+002,5.419449e-002
5.573358e+002,5.508098e-002
5.592643e+002,5.567037e-002
5.611927e+002,5.594437e-002
5.631212e+002,5.573544e-002
5.650497e+002,5.521927e-002
5.669783e+002,5.484535e-002
5.689067e+002,5.389174e-002
5.708352e+002,5.333091e-002
5.727637e+002,5.301832e-002
5.746923e+002,5.273117e-002
5.766207e+002,5.223567e-002
5.785492e+002,5.170885e-002
5.804777e+002,5.125546e-002
5.824063e+002,5.062785e-002
5.843347e+002,5.015929e-002
5.862632e+002,4.999622e-002
5.881917e+002,4.955933e-002
5.901202e+002,4.934134e-002
5.920487e+002,4.923355e-002
5.939772e+002,4.948286e-002
5.959057e+002,4.970085e-002
5.978342e+002,4.974324e-002
5.997627e+002,4.995316e-002
6.016912e+002,5.025349e-002
6.036197e+002,5.000620e-002
6.055482e+002,4.972440e-002
6.074767e+002,4.945349e-002
6.094052e+002,4.899624e-002
6.113337e+002,4.804336e-002
6.132622e+002,4.736220e-002
6.151907e+002,4.665062e-002
6.171192e+002,4.597682e-002
6.190477e+002,4.523859e-002
6.209762e+002,4.469037e-002
6.229047e+002,4.391482e-002
6.248332e+002,4.323271e-002
6.267617e+002,4.259174e-002
6.286902e+002,4.218911e-002
6.306187e+002,4.161789e-002
6.325472e+002,4.105307e-002
6.344756e+002,4.062177e-002
6.364042e+002,4.037632e-002
6.383326e+002,3.991949e-002
6.402612e+002,3.931928e-002
6.421896e+002,3.894329e-002
6.441182e+002,3.883082e-002
6.460466e+002,3.860317e-002
6.479752e+002,3.847242e-002
6.499036e+002,3.822524e-002
6.518322e+002,3.788904e-002
6.537606e+002,3.770257e-002
6.556891e+002,3.771103e-002
6.576177e+002,3.776100e-002
6.595461e+002,3.773457e-002
6.614746e+002,3.770675e-002
6.634031e+002,3.782766e-002
6.653317e+002,3.786345e-002
6.672601e+002,3.758078e-002
6.691886e+002,3.741409e-002
6.711171e+002,3.711643e-002
6.730457e+002,3.650143e-002
6.749741e+002,3.588332e-002
6.769026e+002,3.546531e-002
6.788311e+002,3.481273e-002
6.807596e+002,3.409635e-002
6.826881e+002,3.366760e-002
6.846166e+002,3.322984e-002
6.865451e+002,3.305244e-002
6.884736e+002,3.280851e-002
6.904021e+002,3.270116e-002
6.923306e+002,3.261766e-002
6.942591e+002,3.240363e-002
6.961876e+002,3.214433e-002
6.981161e+002,3.193334e-002
7.000446e+002,3.176894e-002
7.019731e+002,3.167492e-002
7.039016e+002,3.134552e-002
7.058301e+002,3.110923e-002
7.077585e+002,3.084543e-002
7.096871e+002,3.050476e-002
7.116156e+002,3.012384e-002
7.135441e+002,2.990762e-002
7.154725e+002,2.975120e-002
7.174011e+002,2.960006e-002
7.193296e+002,2.921655e-002
7.212581e+002,2.890026e-002
7.231865e+002,2.861821e-002
7.251151e+002,2.836749e-002
7.270436e+002,2.786336e-002
7.289720e+002,2.760710e-002
7.309005e+002,2.735309e-002
7.328290e+002,2.700967e-002
7.347576e+002,2.668578e-002
7.366860e+002,2.644548e-002
7.386145e+002,2.620127e-002
7.405430e+002,2.596004e-002
7.424716e+002,2.569465e-002
7.444000e+002,2.566708e-002
7.463285e+002,2.547410e-002
7.482570e+002,2.528046e-002
7.501855e+002,2.504300e-002
7.521140e+002,2.483261e-002
7.540425e+002,2.462614e-002
7.559710e+002,2.435449e-002
7.578995e+002,2.407251e-002
7.598280e+002,2.391589e-002
7.617565e+002,2.373528e-002
7.636850e+002,2.367855e-002
7.656135e+002,2.354417e-002
7.675420e+002,2.333256e-002
7.694705e+002,2.329274e-002
7.713990e+002,2.324957e-002
7.733275e+002,2.305910e-002
7.752560e+002,2.292659e-002
7.771844e+002,2.277641e-002
7.791130e+002,2.279537e-002
7.810415e+002,2.271772e-002
7.829700e+002,2.252023e-002
7.848984e+002,2.226175e-002
7.868270e+002,2.214869e-002
7.887555e+002,2.198603e-002
7.906840e+002,2.187907e-002
7.926124e+002,2.173229e-002
7.945410e+002,2.162150e-002
7.964695e+002,2.166364e-002
7.983979e+002,2.162313e-002
8.003264e+002,2.152626e-002
8.022549e+002,2.142749e-002
8.041835e+002,2.142485e-002
8.061119e+002,2.144441e-002
8.080404e+002,2.139972e-002
8.099689e+002,2.137166e-002
8.118975e+002,2.131890e-002
8.138259e+002,2.122815e-002
8.157545e+002,2.123452e-002
8.176830e+002,2.118163e-002
8.196115e+002,2.087009e-002
8.215399e+002,2.084082e-002
8.234684e+002,2.086293e-002
8.253970e+002,2.089683e-002
8.273254e+002,2.097030e-002
8.292539e+002,2.085473e-002
8.311824e+002,2.076696e-002
8.331110e+002,2.091362e-002
8.350394e+002,2.080665e-002
8.369679e+002,2.061902e-002
8.388964e+002,2.055207e-002
8.408250e+002,2.044582e-002
8.427534e+002,2.039088e-002
8.446819e+002,2.041390e-002
8.466104e+002,2.036837e-002
8.485389e+002,2.034577e-002
8.504674e+002,2.028376e-002
8.523959e+002,2.032601e-002
8.543244e+002,2.033695e-002
8.562529e+002,2.036535e-002
8.581814e+002,2.038928e-002
8.601099e+002,2.045940e-002
8.620384e+002,2.050389e-002
8.639669e+002,2.066270e-002
8.658954e+002,2.065380e-002
8.678239e+002,2.076873e-002
8.697524e+002,2.087976e-002
8.716809e+002,2.098991e-002
8.736094e+002,2.114583e-002
8.755378e+002,2.122380e-002
8.774664e+002,2.117982e-002
8.793949e+002,2.110844e-002
8.813234e+002,2.115898e-002
8.832518e+002,2.131138e-002
8.851804e+002,2.146412e-002
8.871089e+002,2.171651e-002
8.890374e+002,2.208970e-002
8.909658e+002,2.258036e-002
8.928943e+002,2.292565e-002
8.948229e+002,2.312986e-002
8.967513e+002,2.332795e-002
8.986798e+002,2.342921e-002
9.006083e+002,2.329676e-002
9.025369e+002,2.311644e-002
9.044653e+002,2.286571e-002
9.063938e+002,2.259069e-002
9.083223e+002,2.232599e-002
9.102509e+002,2.211442e-002
9.121793e+002,2.197202e-002
9.141078e+002,2.198833e-002
9.160364e+002,2.207167e-002
9.179648e+002,2.213914e-002
9.198933e+002,2.226949e-002
9.218218e+002,2.242043e-002
9.237504e+002,2.258346e-002
9.256788e+002,2.286655e-002
9.276073e+002,2.299719e-002
9.295358e+002,2.316295e-002
9.314644e+002,2.351388e-002
9.333928e+002,2.387843e-002
9.353213e+002,2.429525e-002
9.372498e+002,2.467136e-002
9.391783e+002,2.513672e-002
9.411068e+002,2.565740e-002
9.430353e+002,2.619272e-002
9.449637e+002,2.680310e-002
9.468923e+002,2.739153e-002
9.488208e+002,2.805597e-002
9.507493e+002,2.883483e-002
9.526777e+002,2.952649e-002
9.546063e+002,3.015350e-002
9.565348e+002,3.093606e-002
9.584633e+002,3.174934e-002
9.603917e+002,3.263564e-002
9.623203e+002,3.350594e-002
9.642488e+002,3.428922e-002
9.661772e+002,3.507669e-002
9.681057e+002,3.590871e-002
9.700343e+002,3.681711e-002
9.719628e+002,3.778615e-002
9.738912e+002,3.882645e-002
9.758197e+002,4.001230e-002
9.777483e+002,4.134135e-002
9.796768e+002,4.289280e-002
9.816052e+002,4.450290e-002
9.835337e+002,4.607938e-002
9.854623e+002,4.764204e-002
9.873907e+002,4.911985e-002
9.893192e+002,5.035646e-002
9.912477e+002,5.139885e-002
9.931763e+002,5.225032e-002
9.951047e+002,5.294644e-002
9.970332e+002,5.368718e-002
9.989617e+002,5.449304e-002
1.000890e+003,5.537755e-002
1.002819e+003,5.633440e-002
1.004747e+003,5.729098e-002
1.006676e+003,5.834839e-002
1.008604e+003,5.942490e-002
1.010533e+003,6.053133e-002
1.012461e+003,6.183644e-002
1.014390e+003,6.319516e-002
1.016318e+003,6.458532e-002
1.018247e+003,6.611916e-002
1.020175e+003,6.759465e-002
1.022104e+003,6.907889e-002
1.024032e+003,7.067608e-002
1.025961e+003,7.230493e-002
1.027889e+003,7.407738e-002
1.029818e+003,7.578193e-002
1.031746e+003,7.722796e-002
1.033675e+003,7.829960e-002
1.035603e+003,7.877721e-002
1.037532e+003,7.853552e-002
1.039460e+003,7.778101e-002
1.041389e+003,7.682943e-002
1.043317e+003,7.599175e-002
1.045246e+003,7.539565e-002
1.047174e+003,7.502908e-002
1.049103e+003,7.476479e-002
1.051031e+003,7.458676e-002
1.052960e+003,7.434232e-002
1.054888e+003,7.392152e-002
1.056817e+003,7.329495e-002
1.058745e+003,7.245895e-002
1.060674e+003,7.132372e-002
1.062602e+003,6.990454e-002
1.064531e+003,6.824262e-002
1.066459e+003,6.649879e-002
1.068388e+003,6.485384e-002
1.070316e+003,6.340626e-002
1.072245e+003,6.208190e-002
1.074173e+003,6.076377e-002
1.076102e+003,5.933563e-002
1.078030e+003,5.792818e-002
1.079959e+003,5.649071e-002
1.081887e+003,5.513476e-002
1.083816e+003,5.392376e-002
1.085744e+003,5.289345e-002
1.087673e+003,5.203206e-002
1.089601e+003,5.130897e-002
1.091530e+003,5.066364e-002
1.093458e+003,4.996116e-002
1.095387e+003,4.936813e-002
1.097315e+003,4.898730e-002
1.099244e+003,4.862923e-002
1.101172e+003,4.834341e-002
1.103101e+003,4.801684e-002
1.105029e+003,4.757856e-002
1.106958e+003,4.700822e-002
1.108886e+003,4.624343e-002
1.110815e+003,4.524955e-002
1.112743e+003,4.403016e-002
1.114672e+003,4.265964e-002
1.116600e+003,4.131307e-002
1.118529e+003,4.001270e-002
1.120457e+003,3.887359e-002
1.122386e+003,3.778337e-002
1.124314e+003,3.669566e-002
1.126243e+003,3.551695e-002
1.128171e+003,3.427872e-002
1.130100e+003,3.302935e-002
1.132028e+003,3.192740e-002
1.133957e+003,3.094243e-002
1.135885e+003,3.010598e-002
1.137814e+003,2.945858e-002
1.139742e+003,2.902608e-002
1.141671e+003,2.883044e-002
1.143599e+003,2.886504e-002
1.145528e+003,2.899300e-002
1.147456e+003,2.920115e-002
1.149385e+003,2.946120e-002
1.151313e+003,2.978418e-002
1.153242e+003,3.010552e-002
1.155170e+003,3.043986e-002
1.157099e+003,3.066371e-002
1.159027e+003,3.076179e-002
1.160956e+003,3.067541e-002
1.162884e+003,3.019335e-002
1.164813e+003,2.940582e-002
1.166741e+003,2.827524e-002
1.168670e+003,2.697956e-002
1.170598e+003,2.561424e-002
1.172526e+003,2.423067e-002
1.174455e+003,2.291094e-002
1.176384e+003,2.177956e-002
1.178312e+003,2.080179e-002
1.180240e+003,1.996152e-002
1.182169e+003,1.931963e-002
1.184098e+003,1.880796e-002
1.186026e+003,1.836929e-002
1.187954e+003,1.804819e-002
1.189883e+003,1.788868e-002
1.191812e+003,1.790490e-002
1.193740e+003,1.801050e-002
1.195668e+003,1.823151e-002
1.197597e+003,1.855288e-002
1.199526e+003,1.882784e-002
1.201454e+003,1.908778e-002
1.203382e+003,1.932953e-002
1.205311e+003,1.945599e-002
1.207240e+003,1.949641e-002
1.209168e+003,1.953189e-002
1.211096e+003,1.962180e-002
1.213025e+003,1.977690e-002
1.214953e+003,2.000053e-002
1.216882e+003,2.024693e-002
1.218810e+003,2.056345e-002
1.220739e+003,2.089783e-002
1.222667e+003,2.115122e-002
1.224596e+003,2.143677e-002
1.226524e+003,2.181486e-002
1.228453e+003,2.219064e-002
1.230381e+003,2.251611e-002
1.232310e+003,2.278973e-002
1.234238e+003,2.295624e-002
1.236167e+003,2.307291e-002
1.238095e+003,2.317774e-002
1.240024e+003,2.329128e-002
1.241952e+003,2.336886e-002
1.243881e+003,2.338070e-002
1.245809e+003,2.335025e-002
1.247738e+003,2.328292e-002
1.249666e+003,2.318465e-002
1.251595e+003,2.309762e-002
1.253523e+003,2.298564e-002
1.255452e+003,2.281586e-002
1.257380e+003,2.267878e-002
1.259309e+003,2.247219e-002
1.261237e+003,2.219488e-002
1.263166e+003,2.190351e-002
1.265094e+003,2.159288e-002
1.267023e+003,2.125357e-002
1.268951e+003,2.096241e-002
1.270880e+003,2.068254e-002
1.272808e+003,2.041270e-002
1.274737e+003,2.016170e-002
1.276665e+003,1.996667e-002
1.278594e+003,1.972531e-002
1.280522e+003,1.951383e-002
1.282451e+003,1.930533e-002
1.284379e+003,1.905901e-002
1.286308e+003,1.882097e-002
1.288236e+003,1.864781e-002
1.290165e+003,1.846980e-002
1.292093e+003,1.838452e-002
1.294022e+003,1.834832e-002
1.295950e+003,1.836149e-002
1.297879e+003,1.844903e-002
1.299807e+003,1.860035e-002
1.301736e+003,1.876732e-002
1.303664e+003,1.894046e-002
1.305593e+003,1.919069e-002
1.307521e+003,1.944811e-002
1.309450e+003,1.973749e-002
1.311378e+003,2.000853e-002
1.313307e+003,2.021429e-002
1.315235e+003,2.038302e-002
1.317164e+003,2.043742e-002
1.319092e+003,2.037162e-002
1.321021e+003,2.025730e-002
1.322949e+003,2.014016e-002
1.324878e+003,2.001485e-002
1.326806e+003,1.987215e-002
1.328735e+003,1.982103e-002
1.330663e+003,1.979526e-002
1.332592e+003,1.974145e-002
1.334520e+003,1.974814e-002
1.336449e+003,1.969814e-002
1.338377e+003,1.958709e-002
1.340306e+003,1.948913e-002
1.342234e+003,1.936525e-002
1.344163e+003,1.921437e-002
1.346091e+003,1.918741e-002
1.348020e+003,1.917755e-002
1.349948e+003,1.914827e-002
1.351877e+003,1.927119e-002
1.353805e+003,1.942640e-002
1.355734e+003,1.955160e-002
1.357662e+003,1.966022e-002
1.359591e+003,1.981578e-002
1.361519e+003,1.999643e-002
1.363448e+003,2.018848e-002
1.365376e+003,2.040834e-002
1.367305e+003,2.057946e-002
1.369233e+003,2.071201e-002
1.371162e+003,2.074485e-002
1.373090e+003,2.065716e-002
1.375019e+003,2.053624e-002
1.376947e+003,2.039567e-002
1.378876e+003,2.019068e-002
1.380804e+003,1.995886e-002
1.382733e+003,1.967902e-002
1.384661e+003,1.937471e-002
1.386590e+003,1.913981e-002
1.388518e+003,1.897191e-002
1.390447e+003,1.880936e-002
1.392375e+003,1.870536e-002
1.394304e+003,1.861425e-002
1.396232e+003,1.859339e-002
1.398161e+003,1.858008e-002
1.400089e+003,1.858358e-002
1.402018e+003,1.866614e-002
1.403946e+003,1.873985e-002
1.405875e+003,1.879733e-002
1.407803e+003,1.886155e-002
1.409732e+003,1.895076e-002
1.411660e+003,1.905832e-002
1.413589e+003,1.916729e-002
1.415517e+003,1.928151e-002
1.417446e+003,1.937973e-002
1.419374e+003,1.948211e-002
1.421303e+003,1.957757e-002
1.423231e+003,1.960427e-002
1.425160e+003,1.956651e-002
1.427088e+003,1.947055e-002
1.429017e+003,1.936334e-002
1.430945e+003,1.922870e-002
1.432874e+003,1.908743e-002
1.434802e+003,1.891174e-002
1.436731e+003,1.873689e-002
1.438659e+003,1.861737e-002
1.440588e+003,1.849517e-002
1.442516e+003,1.848846e-002
1.444445e+003,1.848710e-002
1.446373e+003,1.846128e-002
1.448302e+003,1.845245e-002
1.450230e+003,1.846729e-002
1.452159e+003,1.842806e-002
1.454087e+003,1.830458e-002
1.456016e+003,1.814643e-002
1.457944e+003,1.795911e-002
1.459873e+003,1.779116e-002
1.461801e+003,1.761854e-002
1.463730e+003,1.738311e-002
1.465658e+003,1.714643e-002
1.467587e+003,1.681375e-002
1.469515e+003,1.636474e-002
1.471444e+003,1.585266e-002
1.473372e+003,1.535213e-002
1.475301e+003,1.495023e-002
1.477229e+003,1.464443e-002
1.479158e+003,1.443663e-002
1.481086e+003,1.431356e-002
1.483015e+003,1.427050e-002
1.484943e+003,1.427522e-002
1.486872e+003,1.432651e-002
1.488800e+003,1.444829e-002
1.490729e+003,1.462290e-002
1.492657e+003,1.482897e-002
1.494586e+003,1.510349e-002
1.496514e+003,1.540422e-002
1.498443e+003,1.570556e-002
1.500371e+003,1.607784e-002
1.502300e+003,1.645224e-002
1.504228e+003,1.683220e-002
1.506157e+003,1.713684e-002
1.508085e+003,1.735009e-002
1.510014e+003,1.756230e-002
1.511942e+003,1.776638e-002
1.513871e+003,1.788638e-002
1.515799e+003,1.786848e-002
1.517728e+003,1.775401e-002
1.519656e+003,1.758697e-002
1.521585e+003,1.739783e-002
1.523513e+003,1.728424e-002
1.525442e+003,1.724357e-002
1.527370e+003,1.724939e-002
1.529299e+003,1.729972e-002
1.531227e+003,1.727693e-002
1.533156e+003,1.728858e-002
1.535084e+003,1.736380e-002
1.537013e+003,1.737351e-002
1.538941e+003,1.737265e-002
1.540870e+003,1.729629e-002
1.542798e+003,1.721889e-002
1.544727e+003,1.713590e-002
1.546655e+003,1.704184e-002
1.548584e+003,1.687683e-002
1.550512e+003,1.672010e-002
1.552441e+003,1.657717e-002
1.554369e+003,1.646944e-002
1.556298e+003,1.633143e-002
1.558226e+003,1.615026e-002
1.560155e+003,1.603398e-002
1.562083e+003,1.587623e-002
1.564012e+003,1.576841e-002
1.565940e+003,1.572493e-002
1.567869e+003,1.570439e-002
1.569797e+003,1.569265e-002
1.571726e+003,1.575409e-002
1.573654e+003,1.583464e-002
1.575583e+003,1.589373e-002
1.577511e+003,1.604332e-002
1.579440e+003,1.622903e-002
1.581368e+003,1.640294e-002
1.583297e+003,1.659312e-002
1.585225e+003,1.680409e-002
1.587154e+003,1.702238e-002
1.589082e+003,1.723377e-002
1.591010e+003,1.744284e-002
1.592939e+003,1.767733e-002
1.594868e+003,1.791242e-002
1.596796e+003,1.816541e-002
1.598724e+003,1.839445e-002
1.600653e+003,1.859142e-002
1.602582e+003,1.872450e-002
1.604510e+003,1.883471e-002
1.606438e+003,1.899000e-002
1.608367e+003,1.914270e-002
1.610296e+003,1.929748e-002
1.612224e+003,1.957821e-002
1.614152e+003,1.996094e-002
1.616081e+003,2.041646e-002
1.618010e+003,2.088773e-002
1.619938e+003,2.141035e-002
1.621866e+003,2.195907e-002
1.623795e+003,2.248443e-002
1.625724e+003,2.288422e-002
1.627652e+003,2.305311e-002
1.629580e+003,2.315356e-002
1.631509e+003,2.314163e-002
1.633438e+003,2.302985e-002
1.635366e+003,2.287019e-002
1.637294e+003,2.277596e-002
1.639223e+003,2.268081e-002
1.641151e+003,2.261480e-002
1.643080e+003,2.249060e-002
1.645008e+003,2.239200e-002
1.646937e+003,2.228034e-002
1.648865e+003,2.218996e-002
1.650794e+003,2.208018e-002
1.652722e+003,2.191349e-002
1.654651e+003,2.173171e-002
1.656579e+003,2.149382e-002
1.658508e+003,2.118761e-002
1.660436e+003,2.081870e-002
1.662365e+003,2.043842e-002
1.664293e+003,2.002771e-002
1.666222e+003,1.957867e-002
1.668150e+003,1.912027e-002
1.670079e+003,1.867721e-002
1.672007e+003,1.823945e-002
1.673936e+003,1.775962e-002
1.675864e+003,1.729766e-002
1.677793e+003,1.687592e-002
1.679721e+003,1.646169e-002
1.681650e+003,1.601457e-002
1.683578e+003,1.558980e-002
1.685507e+003,1.519703e-002
1.687435e+003,1.480508e-002
1.689364e+003,1.444865e-002
1.691292e+003,1.413415e-002
1.693221e+003,1.383100e-002
1.695149e+003,1.353355e-002
1.697078e+003,1.316430e-002
1.699006e+003,1.270628e-002
1.700935e+003,1.232730e-002
1.702863e+003,1.201820e-002
1.704792e+003,1.180528e-002
1.706720e+003,1.163071e-002
1.708649e+003,1.157788e-002
1.710577e+003,1.148173e-002
1.712506e+003,1.141122e-002
1.714434e+003,1.142062e-002
1.716363e+003,1.141602e-002
1.718291e+003,1.145502e-002
1.720220e+003,1.154667e-002
1.722148e+003,1.153378e-002
1.724077e+003,1.146311e-002
1.726005e+003,1.137868e-002
1.727934e+003,1.128743e-002
1.729862e+003,1.121355e-002
1.731791e+003,1.111367e-002
1.733719e+003,1.103738e-002
1.735648e+003,1.091373e-002
1.737576e+003,1.070828e-002
1.739505e+003,1.048824e-002
1.741433e+003,1.033471e-002
1.743362e+003,1.016307e-002
1.745290e+003,9.961435e-003
1.747219e+003,9.691264e-003
1.749147e+003,9.445963e-003
1.751076e+003,9.217520e-003
1.753004e+003,8.952055e-003
1.754933e+003,8.730849e-003
1.756861e+003,8.551376e-003
1.758790e+003,8.430273e-003
1.760718e+003,8.321685e-003
1.762647e+003,8.211251e-003
1.764575e+003,8.073137e-003
1.766504e+003,7.983374e-003
1.768432e+003,7.945945e-003
1.770361e+003,7.944319e-003
1.772289e+003,7.915212e-003
1.774218e+003,7.873273e-003
1.776146e+003,7.824183e-003
1.778075e+003,7.784250e-003
1.780003e+003,7.711873e-003
1.781932e+003,7.687213e-003
1.783860e+003,7.708606e-003
1.785789e+003,7.748814e-003
1.787717e+003,7.744162e-003
1.789646e+003,7.701263e-003
1.791574e+003,7.737397e-003
1.793503e+003,7.761955e-003
1.795431e+003,7.694486e-003
1.797360e+003,7.690751e-003
1.799288e+003,7.729343e-003
1.801217e+003,7.741543e-003
1.803145e+003,7.688544e-003
1.805074e+003,7.627969e-003
1.807002e+003,7.656527e-003
1.808931e+003,7.632888e-003
1.810859e+003,7.692282e-003
1.812788e+003,7.730983e-003
1.814716e+003,7.648432e-003
1.816645e+003,7.585198e-003
1.818573e+003,7.468797e-003
1.820502e+003,7.423772e-003
1.822430e+003,7.478478e-003
1.824359e+003,7.459062e-003
1.826287e+003,7.439401e-003
1.828216e+003,7.432888e-003
1.830144e+003,7.425840e-003
1.832073e+003,7.450223e-003
1.834001e+003,7.442147e-003
1.835930e+003,7.392954e-003
1.837858e+003,7.349052e-003
1.839787e+003,7.302823e-003
1.841715e+003,7.306888e-003
1.843644e+003,7.305054e-003
1.845572e+003,7.272310e-003
1.847501e+003,7.316591e-003
1.849429e+003,7.359718e-003
1.851358e+003,7.276888e-003
1.853286e+003,7.226635e-003
1.855215e+003,7.274605e-003
1.857143e+003,7.304352e-003
1.859072e+003,7.371971e-003
1.861000e+003,7.449452e-003
1.862929e+003,7.387408e-003
1.864857e+003,7.218230e-003
1.866786e+003,7.207825e-003
1.868714e+003,7.149315e-003
1.870643e+003,7.214057e-003
1.872571e+003,7.189762e-003
1.874500e+003,7.104761e-003
1.876428e+003,7.152164e-003
1.878357e+003,7.131100e-003
1.880285e+003,7.208672e-003
1.882214e+003,7.274845e-003
1.884142e+003,7.199433e-003
1.886071e+003,7.042986e-003
1.887999e+003,7.003367e-003
1.889928e+003,7.146935e-003
1.891856e+003,7.192424e-003
1.893785e+003,7.209491e-003
1.895713e+003,7.153126e-003
1.897642e+003,7.104055e-003
1.899570e+003,7.137550e-003
1.901499e+003,7.046548e-003
1.903427e+003,7.022598e-003
1.905356e+003,6.919021e-003
1.907284e+003,6.849076e-003
1.909213e+003,7.017595e-003
1.911141e+003,6.957824e-003
1.913070e+003,6.744021e-003
1.914998e+003,6.957835e-003
1.916927e+003,7.066897e-003
1.918855e+003,6.685230e-003
1.920784e+003,6.327556e-003
1.922712e+003,6.251582e-003
1.924641e+003,6.244172e-003
1.926569e+003,6.361450e-003
1.928498e+003,6.437949e-003
1.930426e+003,6.230737e-003
1.932355e+003,5.798155e-003
1.934283e+003,5.706178e-003
1.936212e+003,6.060418e-003
1.938140e+003,5.879755e-003
1.940069e+003,5.567038e-003
1.941997e+003,5.639070e-003
1.943926e+003,5.516863e-003
1.945854e+003,5.088880e-003
1.947783e+003,4.535267e-003
1.949711e+003,4.602606e-003
1.951640e+003,4.997488e-003
1.953568e+003,4.421849e-003
1.955497e+003,3.555092e-003
1.957425e+003,3.658433e-003
1.959354e+003,3.707863e-003
1.961282e+003,2.809320e-003
1.963211e+003,2.270697e-003
1.965139e+003,2.020643e-003
1.967068e+003,1.417585e-003
1.968996e+003,1.031171e-004
1.970925e+003,2.891693e-004
1.972853e+003,-3.611617e-004
1.974782e+003,-1.041579e-003
1.976710e+003,-1.480754e-003
1.978639e+003,-8.784574e-004
1.980567e+003,5.235891e-005
1.982496e+003,6.875619e-004
1.984424e+003,1.638853e-003
1.986353e+003,2.478479e-003
1.988281e+003,2.556907e-003
1.990210e+003,2.289674e-003
1.992138e+003,2.446427e-003
1.994067e+003,2.281077e-003
1.995995e+003,2.330196e-003
1.997924e+003,2.830421e-003
1.999852e+003,1.715252e-003
2.001781e+003,8.012273e-004
2.003709e+003,7.822737e-004
2.005638e+003,1.609164e-004
2.007566e+003,-5.011550e-004
2.009495e+003,-1.143084e-003
2.011423e+003,-8.605915e-004
2.013352e+003,-7.554246e-004
2.015280e+003,-1.700858e-003
2.017208e+003,-1.131132e-003
2.019137e+003,-1.425792e-003
2.021066e+003,-1.733128e-003
2.022994e+003,-2.247500e-003
2.024922e+003,-2.888485e-003
2.026851e+003,-2.136769e-003
2.028780e+003,-2.351376e-003
2.030708e+003,-2.303741e-003
2.032636e+003,-2.998866e-003
2.034565e+003,-2.974949e-003
2.036494e+003,-2.487551e-003
2.038422e+003,-2.176123e-003
2.040350e+003,-1.174722e-003
2.042279e+003,-7.282263e-004
2.044208e+003,-1.757790e-004
2.046136e+003,-1.987486e-005
2.048064e+003,8.935701e-004
2.049993e+003,1.473319e-003
2.051921e+003,1.949636e-003
2.053850e+003,2.657209e-003
2.055778e+003,3.326957e-003
2.057707e+003,3.402381e-003
2.059635e+003,3.118891e-003
2.061564e+003,3.005802e-003
2.063492e+003,2.927972e-003
2.065421e+003,3.166458e-003
2.067349e+003,3.342366e-003
2.069278e+003,3.480890e-003
2.071206e+003,4.094837e-003
2.073135e+003,4.300074e-003
2.075063e+003,4.143002e-003
2.076992e+003,4.349107e-003
2.078920e+003,4.929584e-003
2.080849e+003,5.171298e-003
2.082777e+003,5.373620e-003
2.084706e+003,5.406149e-003
2.086634e+003,5.548506e-003
2.088563e+003,5.602284e-003
2.090491e+003,5.613941e-003
2.092420e+003,5.454164e-003
2.094348e+003,5.557555e-003
2.096277e+003,5.635439e-003
2.098205e+003,5.435718e-003
2.100134e+003,5.384287e-003
2.102062e+003,5.662249e-003
2.103991e+003,5.605723e-003
2.105919e+003,5.444106e-003
2.107848e+003,5.574106e-003
2.109776e+003,5.615356e-003
2.111705e+003,6.063549e-003
2.113633e+003,6.331254e-003
2.115562e+003,5.938071e-003
2.117490e+003,5.641907e-003
2.119419e+003,5.798493e-003
2.121347e+003,5.950433e-003
2.123276e+003,5.996522e-003
2.125204e+003,5.462426e-003
2.127133e+003,5.163232e-003
2.129061e+003,4.872120e-003
2.130990e+003,4.849435e-003
2.132918e+003,4.498768e-003
2.134847e+003,4.087606e-003
2.136775e+003,3.631589e-003
2.138704e+003,3.050705e-003
2.140632e+003,3.416033e-003
2.142561e+003,3.192240e-003
2.144489e+003,2.339989e-003
2.146418e+003,1.323300e-003
2.148346e+003,8.496916e-004
2.150275e+003,9.178875e-004
2.152203e+003,2.105847e-004
2.154132e+003,-8.364911e-004
2.156060e+003,-3.335749e-003
2.157989e+003,-5.955707e-003
2.159917e+003,-5.843264e-003
2.161846e+003,-3.630521e-003
2.163774e+003,-3.683913e-003
2.165703e+003,-3.427344e-003
2.167631e+003,-2.222996e-003
2.169560e+003,-8.287195e-004
2.171488e+003,1.264579e-004
2.173417e+003,2.594473e-005
2.175345e+003,7.649430e-004
2.177274e+003,7.350045e-004
2.179202e+003,1.034350e-003
2.181131e+003,1.530704e-003
2.183059e+003,1.198852e-003
2.184988e+003,1.150711e-003
2.186916e+003,1.204401e-003
2.188845e+003,2.019902e-003
2.190773e+003,3.295392e-003
2.192702e+003,3.193575e-003
2.194630e+003,3.282271e-003
2.196559e+003,3.515564e-003
2.198487e+003,3.686422e-003
2.200416e+003,3.471875e-003
2.202344e+003,3.277964e-003
2.204273e+003,3.718169e-003
2.206201e+003,3.978447e-003
2.208130e+003,4.211680e-003
2.210058e+003,4.247312e-003
2.211987e+003,4.504359e-003
2.213915e+003,4.694765e-003
2.215844e+003,4.956735e-003
2.217772e+003,4.954959e-003
2.219701e+003,5.024640e-003
2.221629e+003,4.985659e-003
2.223558e+003,5.151095e-003
2.225486e+003,4.976475e-003
2.227415e+003,4.922786e-003
2.229343e+003,5.381100e-003
2.231272e+003,5.571029e-003
2.233200e+003,5.130319e-003
2.235129e+003,5.335167e-003
2.237057e+003,5.968157e-003
2.238986e+003,6.019504e-003
2.240914e+003,6.224341e-003
2.242843e+003,5.984590e-003
2.244771e+003,5.895135e-003
2.246700e+003,6.104015e-003
2.248628e+003,6.504606e-003
2.250557e+003,6.518574e-003
2.252485e+003,6.247025e-003
2.254414e+003,6.374470e-003
2.256342e+003,6.879495e-003
2.258271e+003,6.879152e-003
2.260199e+003,6.634622e-003
2.262128e+003,6.762855e-003
2.264056e+003,6.796282e-003
2.265985e+003,6.979143e-003
2.267913e+003,7.209224e-003
2.269842e+003,7.436583e-003
2.271770e+003,7.813117e-003
2.273699e+003,7.958269e-003
2.275627e+003,7.850313e-003
2.277556e+003,7.833380e-003
2.279484e+003,7.889925e-003
2.281413e+003,8.181592e-003
2.283341e+003,8.413432e-003
2.285270e+003,8.565200e-003
2.287198e+003,8.590763e-003
2.289127e+003,8.472738e-003
2.291055e+003,8.413938e-003
2.292984e+003,8.561299e-003
2.294912e+003,8.643474e-003
2.296841e+003,8.801944e-003
2.298769e+003,8.801953e-003
2.300698e+003,8.794444e-003
2.302626e+003,8.786745e-003
2.304555e+003,8.751304e-003
2.306483e+003,8.749346e-003
2.308412e+003,8.811601e-003
2.310340e+003,8.806657e-003
2.312269e+003,8.900347e-003
2.314197e+003,9.036535e-003
2.316125e+003,9.172780e-003
2.318054e+003,9.117835e-003
2.319983e+003,9.321793e-003
2.321911e+003,9.386511e-003
2.323840e+003,9.309463e-003
2.325768e+003,9.332714e-003
2.327697e+003,9.219072e-003
2.329625e+003,8.993237e-003
2.331553e+003,9.093639e-003
2.333482e+003,8.882981e-003
2.335411e+003,8.803937e-003
2.337339e+003,8.620656e-003
2.339268e+003,8.364465e-003
2.341196e+003,8.227376e-003
2.343125e+003,8.595379e-003
2.345053e+003,8.571081e-003
2.346981e+003,8.662393e-003
2.348910e+003,8.691293e-003
2.350839e+003,8.774018e-003
2.352767e+003,8.750510e-003
2.354696e+003,8.977648e-003
2.356624e+003,9.355273e-003
2.358552e+003,9.265437e-003
2.360481e+003,8.948024e-003
2.362409e+003,8.465757e-003
2.364338e+003,8.743623e-003
2.366267e+003,8.776252e-003
2.368195e+003,9.061502e-003
2.370124e+003,9.227463e-003
2.372052e+003,9.043787e-003
2.373980e+003,8.907071e-003
2.375909e+003,9.008409e-003
2.377838e+003,9.007086e-003
2.379766e+003,9.151147e-003
2.381695e+003,9.223202e-003
2.383623e+003,9.297578e-003
2.385552e+003,9.296072e-003
2.387480e+003,9.288553e-003
2.389408e+003,9.449193e-003
2.391337e+003,9.552511e-003
2.393266e+003,9.432361e-003
2.395194e+003,9.356978e-003
2.397123e+003,9.311400e-003
2.399051e+003,9.330565e-003
2.400979e+003,9.372542e-003
2.402908e+003,9.400169e-003
2.404836e+003,9.408025e-003
2.406765e+003,9.402201e-003
2.408694e+003,9.453840e-003
2.410622e+003,9.530140e-003
2.412551e+003,9.514831e-003
2.414479e+003,9.427494e-003
2.416407e+003,9.434029e-003
2.418336e+003,9.410564e-003
2.420264e+003,9.309775e-003
2.422193e+003,9.244615e-003
2.424122e+003,9.326193e-003
2.426050e+003,9.383918e-003
2.427979e+003,9.323046e-003
2.429907e+003,9.270610e-003
2.431835e+003,9.356460e-003
2.433764e+003,9.424007e-003
2.435692e+003,9.296742e-003
2.437621e+003,9.254059e-003
2.439550e+003,9.367937e-003
2.441478e+003,9.369731e-003
2.443406e+003,9.334454e-003
2.445335e+003,9.336722e-003
2.447263e+003,9.356967e-003
2.449192e+003,9.280494e-003
2.451121e+003,9.365161e-003
2.453049e+003,9.323688e-003
2.454978e+003,9.164541e-003
2.456906e+003,9.205524e-003
2.458834e+003,9.362656e-003
2.460763e+003,9.421671e-003
2.462691e+003,9.318644e-003
2.464620e+003,9.262960e-003
2.466549e+003,9.255379e-003
2.468477e+003,9.181698e-003
2.470406e+003,9.078627e-003
2.472334e+003,9.216286e-003
2.474262e+003,9.318273e-003
2.476191e+003,9.273149e-003
2.478119e+003,9.218588e-003
2.480048e+003,9.285470e-003
2.481977e+003,9.348876e-003
2.483905e+003,9.328597e-003
2.485833e+003,9.337298e-003
2.487762e+003,9.150395e-003
2.489690e+003,9.100824e-003
2.491619e+003,9.308591e-003
2.493547e+003,9.431524e-003
2.495476e+003,9.351381e-003
2.497405e+003,9.299890e-003
2.499333e+003,9.313465e-003
2.501261e+003,9.378974e-003
2.503190e+003,9.385204e-003
2.505118e+003,9.361369e-003
2.507047e+003,9.403115e-003
2.508975e+003,9.356087e-003
2.510904e+003,9.310825e-003
2.512833e+003,9.511106e-003
2.514761e+003,9.577932e-003
2.516689e+003,9.449031e-003
2.518618e+003,9.464777e-003
2.520546e+003,9.525127e-003
2.522475e+003,9.565670e-003
2.524403e+003,9.635283e-003
2.526332e+003,9.576713e-003
2.528260e+003,9.478255e-003
2.530189e+003,9.515712e-003
2.532117e+003,9.484826e-003
2.534046e+003,9.475682e-003
2.535974e+003,9.553036e-003
2.537903e+003,9.672312e-003
2.539831e+003,9.589212e-003
2.541760e+003,9.580980e-003
2.543688e+003,9.668686e-003
2.545617e+003,9.633657e-003
2.547545e+003,9.606623e-003
2.549474e+003,9.609943e-003
2.551402e+003,9.582471e-003
2.553331e+003,9.629523e-003
2.555259e+003,9.747194e-003
2.557188e+003,9.813921e-003
2.559116e+003,9.627219e-003
2.561045e+003,9.686508e-003
2.562973e+003,9.787690e-003
2.564902e+003,9.752989e-003
2.566830e+003,9.790265e-003
2.568759e+003,9.876048e-003
2.570687e+003,9.764103e-003
2.572616e+003,9.754480e-003
2.574544e+003,9.740146e-003
2.576473e+003,9.759156e-003
2.578401e+003,9.802262e-003
2.580330e+003,9.776811e-003
2.582258e+003,9.778743e-003
2.584187e+003,9.881505e-003
2.586115e+003,9.809617e-003
2.588044e+003,9.817920e-003
2.589972e+003,9.987378e-003
2.591901e+003,9.882183e-003
2.593829e+003,9.818157e-003
2.595758e+003,9.820767e-003
2.597686e+003,9.891200e-003
2.599615e+003,1.000002e-002
2.601543e+003,1.005533e-002
2.603472e+003,9.973070e-003
2.605400e+003,9.983139e-003
2.607329e+003,1.016677e-002
2.609257e+003,1.014269e-002
2.611186e+003,1.003634e-002
2.613114e+003,1.012841e-002
2.615043e+003,1.019974e-002
2.616971e+003,1.020045e-002
2.618900e+003,1.025042e-002
2.620828e+003,1.020795e-002
2.622757e+003,1.025392e-002
2.624685e+003,1.036052e-002
2.626614e+003,1.039219e-002
2.628542e+003,1.043430e-002
2.630471e+003,1.048841e-002
2.632399e+003,1.049655e-002
2.634328e+003,1.053630e-002
2.636256e+003,1.052996e-002
2.638185e+003,1.058197e-002
2.640113e+003,1.070852e-002
2.642042e+003,1.075121e-002
2.643970e+003,1.076460e-002
2.645899e+003,1.082268e-002
2.647827e+003,1.093391e-002
2.649756e+003,1.096813e-002
2.651684e+003,1.095243e-002
2.653613e+003,1.097098e-002
2.655541e+003,1.100327e-002
2.657470e+003,1.108936e-002
2.659398e+003,1.114286e-002
2.661327e+003,1.113314e-002
2.663255e+003,1.119961e-002
2.665184e+003,1.128869e-002
2.667112e+003,1.128982e-002
2.669041e+003,1.127302e-002
2.670969e+003,1.126033e-002
2.672898e+003,1.129039e-002
2.674826e+003,1.135770e-002
2.676755e+003,1.134450e-002
2.678683e+003,1.128502e-002
2.680612e+003,1.133243e-002
2.682540e+003,1.139474e-002
2.684469e+003,1.138559e-002
2.686397e+003,1.138100e-002
2.688326e+003,1.142512e-002
2.690254e+003,1.144716e-002
2.692183e+003,1.144821e-002
2.694111e+003,1.147029e-002
2.696040e+003,1.146318e-002
2.697968e+003,1.148237e-002
2.699897e+003,1.150425e-002
2.701825e+003,1.146968e-002
2.703754e+003,1.147339e-002
2.705682e+003,1.153865e-002
2.707611e+003,1.155355e-002
2.709539e+003,1.152949e-002
2.711468e+003,1.155454e-002
2.713396e+003,1.154355e-002
2.715325e+003,1.153198e-002
2.717253e+003,1.156920e-002
2.719182e+003,1.162699e-002
2.721110e+003,1.162723e-002
2.723039e+003,1.163308e-002
2.724967e+003,1.165626e-002
2.726896e+003,1.168760e-002
2.728824e+003,1.166732e-002
2.730753e+003,1.164782e-002
2.732681e+003,1.163012e-002
2.734610e+003,1.164278e-002
2.736538e+003,1.170622e-002
2.738467e+003,1.172937e-002
2.740395e+003,1.172158e-002
2.742324e+003,1.168454e-002
2.744252e+003,1.170844e-002
2.746181e+003,1.174435e-002
2.748109e+003,1.175031e-002
2.750038e+003,1.176648e-002
2.751966e+003,1.181945e-002
2.753895e+003,1.185800e-002
2.755823e+003,1.189164e-002
2.757752e+003,1.186038e-002
2.759680e+003,1.184809e-002
2.761609e+003,1.192178e-002
2.763537e+003,1.192328e-002
2.765466e+003,1.190833e-002
2.767394e+003,1.196548e-002
2.769323e+003,1.202100e-002
2.771251e+003,1.201156e-002
2.773180e+003,1.205016e-002
2.775108e+003,1.209043e-002
2.777037e+003,1.205745e-002
2.778965e+003,1.204035e-002
2.780894e+003,1.212361e-002
2.782822e+003,1.214698e-002
2.784750e+003,1.216538e-002
2.786679e+003,1.222413e-002
2.788608e+003,1.220945e-002
2.790536e+003,1.223378e-002
2.792465e+003,1.223950e-002
2.794393e+003,1.219404e-002
2.796322e+003,1.224605e-002
2.798250e+003,1.225876e-002
2.800178e+003,1.229025e-002
2.802107e+003,1.238205e-002
2.804036e+003,1.243834e-002
2.805964e+003,1.244670e-002
2.807893e+003,1.248649e-002
2.809821e+003,1.251299e-002
2.811750e+003,1.251006e-002
2.813678e+003,1.254222e-002
2.815606e+003,1.259402e-002
2.817535e+003,1.265573e-002
2.819464e+003,1.269998e-002
2.821392e+003,1.270847e-002
2.823321e+003,1.272335e-002
2.825249e+003,1.279941e-002
2.827177e+003,1.291750e-002
2.829106e+003,1.296112e-002
2.831034e+003,1.300667e-002
2.832963e+003,1.302271e-002
2.834892e+003,1.309479e-002
2.836820e+003,1.323489e-002
2.838749e+003,1.332724e-002
2.840677e+003,1.333000e-002
2.842605e+003,1.344082e-002
2.844534e+003,1.361399e-002
2.846462e+003,1.376999e-002
2.848391e+003,1.388246e-002
2.850320e+003,1.402120e-002
2.852248e+003,1.411535e-002
2.854177e+003,1.412819e-002
2.856105e+003,1.413007e-002
2.858033e+003,1.417142e-002
2.859962e+003,1.421309e-002
2.861890e+003,1.429228e-002
2.863819e+003,1.435728e-002
2.865748e+003,1.443256e-002
2.867676e+003,1.454723e-002
2.869604e+003,1.463861e-002
2.871533e+003,1.464704e-002
2.873461e+003,1.469766e-002
2.875390e+003,1.472762e-002
2.877319e+003,1.472587e-002
2.879247e+003,1.470414e-002
2.881176e+003,1.471693e-002
2.883104e+003,1.474973e-002
2.885032e+003,1.476989e-002
2.886961e+003,1.476533e-002
2.888889e+003,1.486650e-002
2.890818e+003,1.497106e-002
2.892747e+003,1.497696e-002
2.894675e+003,1.496619e-002
2.896604e+003,1.502477e-002
2.898532e+003,1.505365e-002
2.900460e+003,1.501684e-002
2.902389e+003,1.498522e-002
2.904317e+003,1.497730e-002
2.906246e+003,1.505811e-002
2.908175e+003,1.513152e-002
2.910103e+003,1.515527e-002
2.912031e+003,1.515369e-002
2.913960e+003,1.513176e-002
2.915888e+003,1.521274e-002
2.917817e+003,1.525093e-002
2.919745e+003,1.522039e-002
2.921674e+003,1.520258e-002
2.923603e+003,1.521363e-002
2.925531e+003,1.516473e-002
2.927459e+003,1.509409e-002
2.929388e+003,1.503976e-002
2.931316e+003,1.493995e-002
2.933245e+003,1.487133e-002
2.935173e+003,1.481959e-002
2.937102e+003,1.473533e-002
2.939031e+003,1.465648e-002
2.940959e+003,1.460005e-002
2.942887e+003,1.456482e-002
2.944816e+003,1.439850e-002
2.946744e+003,1.429642e-002
2.948673e+003,1.428080e-002
2.950601e+003,1.417749e-002
2.952530e+003,1.405777e-002
2.954458e+003,1.403364e-002
2.956387e+003,1.400938e-002
2.958315e+003,1.396609e-002
2.960244e+003,1.384187e-002
2.962172e+003,1.380565e-002
2.964101e+003,1.376207e-002
2.966029e+003,1.368397e-002
2.967958e+003,1.359928e-002
2.969886e+003,1.350907e-002
2.971815e+003,1.344483e-002
2.973743e+003,1.337785e-002
2.975672e+003,1.334234e-002
2.977600e+003,1.325631e-002
2.979529e+003,1.312048e-002
2.981457e+003,1.302052e-002
2.983386e+003,1.301302e-002
2.985314e+003,1.301854e-002
2.987243e+003,1.301818e-002
2.989171e+003,1.296687e-002
2.991100e+003,1.291534e-002
2.993028e+003,1.285671e-002
2.994957e+003,1.285110e-002
2.996885e+003,1.284727e-002
2.998814e+003,1.280842e-002
3.000742e+003,1.284261e-002
3.002671e+003,1.289423e-002
3.004599e+003,1.293062e-002
3.006528e+003,1.291315e-002
3.008456e+003,1.290055e-002
3.010385e+003,1.293023e-002
3.012313e+003,1.293853e-002
3.014242e+003,1.293371e-002
3.016170e+003,1.294538e-002
3.018099e+003,1.296519e-002
3.020027e+003,1.299046e-002
3.021956e+003,1.307460e-002
3.023884e+003,1.310378e-002
3.025813e+003,1.315519e-002
3.027741e+003,1.315242e-002
3.029670e+003,1.319344e-002
3.031598e+003,1.321900e-002
3.033527e+003,1.323582e-002
3.035455e+003,1.324781e-002
3.037384e+003,1.337826e-002
3.039312e+003,1.339498e-002
3.041241e+003,1.339786e-002
3.043169e+003,1.342952e-002
3.045098e+003,1.345407e-002
3.047026e+003,1.352847e-002
3.048955e+003,1.358769e-002
3.050883e+003,1.364763e-002
3.052812e+003,1.372768e-002
3.054740e+003,1.376465e-002
3.056669e+003,1.374495e-002
3.058597e+003,1.381157e-002
3.060526e+003,1.390555e-002
3.062454e+003,1.395534e-002
3.064383e+003,1.398685e-002
3.066311e+003,1.401476e-002
3.068240e+003,1.401784e-002
3.070168e+003,1.408184e-002
3.072097e+003,1.412813e-002
3.074025e+003,1.419259e-002
3.075954e+003,1.416983e-002
3.077882e+003,1.419467e-002
3.079811e+003,1.421748e-002
3.081739e+003,1.426036e-002
3.083668e+003,1.435201e-002
3.085596e+003,1.437532e-002
3.087525e+003,1.430690e-002
3.089453e+003,1.432830e-002
3.091382e+003,1.450469e-002
3.093310e+003,1.455981e-002
3.095239e+003,1.453991e-002
3.097167e+003,1.454022e-002
3.099096e+003,1.454989e-002
3.101024e+003,1.462355e-002
3.102953e+003,1.470269e-002
3.104881e+003,1.469275e-002
3.106810e+003,1.475136e-002
3.108738e+003,1.472361e-002
3.110667e+003,1.473855e-002
3.112595e+003,1.485906e-002
3.114524e+003,1.496889e-002
3.116452e+003,1.499340e-002
3.118381e+003,1.503873e-002
3.120309e+003,1.509732e-002
3.122238e+003,1.513401e-002
3.124166e+003,1.517836e-002
3.126095e+003,1.521728e-002
3.128023e+003,1.538864e-002
3.129952e+003,1.541599e-002
3.131880e+003,1.542555e-002
3.133809e+003,1.544733e-002
3.135737e+003,1.548915e-002
3.137666e+003,1.553530e-002
3.139594e+003,1.560223e-002
3.141523e+003,1.570415e-002
3.143451e+003,1.577753e-002
3.145380e+003,1.590148e-002
3.147308e+003,1.593199e-002
3.149237e+003,1.601935e-002
3.151165e+003,1.608201e-002
3.153094e+003,1.612762e-002
3.155022e+003,1.615657e-002
3.156951e+003,1.623007e-002
3.158879e+003,1.636618e-002
3.160808e+003,1.638379e-002
3.162736e+003,1.640611e-002
3.164665e+003,1.656063e-002
3.166593e+003,1.666890e-002
3.168522e+003,1.673187e-002
3.170450e+003,1.681033e-002
3.172379e+003,1.682940e-002
3.174307e+003,1.682824e-002
3.176236e+003,1.697655e-002
3.178164e+003,1.713282e-002
3.180093e+003,1.717546e-002
3.182021e+003,1.718070e-002
3.183950e+003,1.723849e-002
3.185878e+003,1.732960e-002
3.187807e+003,1.737542e-002
3.189735e+003,1.743249e-002
3.191664e+003,1.751409e-002
3.193592e+003,1.756877e-002
3.195521e+003,1.763315e-002
3.197449e+003,1.776712e-002
3.199378e+003,1.789357e-002
3.201306e+003,1.794779e-002
3.203235e+003,1.799795e-002
3.205163e+003,1.807860e-002
3.207092e+003,1.809239e-002
3.209020e+003,1.818823e-002
3.210948e+003,1.832792e-002
3.212877e+003,1.842399e-002
3.214806e+003,1.841730e-002
3.216734e+003,1.857159e-002
3.218663e+003,1.864004e-002
3.220591e+003,1.868426e-002
3.222520e+003,1.883440e-002
3.224448e+003,1.893093e-002
3.226376e+003,1.904919e-002
3.228305e+003,1.914863e-002
3.230234e+003,1.918004e-002
3.232162e+003,1.925410e-002
3.234091e+003,1.929634e-002
3.236019e+003,1.943815e-002
3.237948e+003,1.954252e-002
3.239876e+003,1.962296e-002
3.241804e+003,1.974658e-002
3.243733e+003,1.979958e-002
3.245662e+003,1.988667e-002
3.247590e+003,2.004820e-002
3.249519e+003,2.007795e-002
3.251447e+003,2.013156e-002
3.253375e+003,2.030825e-002
3.255304e+003,2.043822e-002
3.257232e+003,2.047137e-002
3.259161e+003,2.055801e-002
3.261090e+003,2.073996e-002
3.263018e+003,2.088449e-002
3.264947e+003,2.099772e-002
3.266875e+003,2.104038e-002
3.268803e+003,2.116571e-002
3.270732e+003,2.130776e-002
3.272660e+003,2.136412e-002
3.274589e+003,2.139865e-002
3.276518e+003,2.141805e-002
3.278446e+003,2.154575e-002
3.280375e+003,2.158751e-002
3.282303e+003,2.161350e-002
3.284231e+003,2.159216e-002
3.286160e+003,2.156709e-002
3.288088e+003,2.164061e-002
3.290017e+003,2.164508e-002
3.291946e+003,2.165864e-002
3.293874e+003,2.166277e-002
3.295802e+003,2.162277e-002
3.297731e+003,2.163351e-002
3.299659e+003,2.166660e-002
3.301588e+003,2.168775e-002
3.303516e+003,2.166183e-002
3.305445e+003,2.171362e-002
3.307374e+003,2.175395e-002
3.309302e+003,2.172467e-002
3.311230e+003,2.169911e-002
3.313159e+003,2.178583e-002
3.315087e+003,2.178654e-002
3.317016e+003,2.175808e-002
3.318944e+003,2.178983e-002
3.320873e+003,2.185647e-002
3.322802e+003,2.181843e-002
3.324730e+003,2.187156e-002
3.326658e+003,2.197327e-002
3.328587e+003,2.197861e-002
3.330515e+003,2.194277e-002
3.332444e+003,2.190884e-002
3.334372e+003,2.194132e-002
3.336301e+003,2.201753e-002
3.338229e+003,2.201116e-002
3.340158e+003,2.200853e-002
3.342086e+003,2.201319e-002
3.344015e+003,2.192556e-002
3.345943e+003,2.178028e-002
3.347872e+003,2.174759e-002
3.349800e+003,2.181236e-002
3.351729e+003,2.184360e-002
3.353657e+003,2.170696e-002
3.355586e+003,2.159600e-002
3.357514e+003,2.155525e-002
3.359443e+003,2.156547e-002
3.361371e+003,2.149505e-002
3.363300e+003,2.141373e-002
3.365229e+003,2.126911e-002
3.367157e+003,2.122179e-002
3.369085e+003,2.116381e-002
3.371014e+003,2.102562e-002
3.372942e+003,2.102537e-002
3.374871e+003,2.104650e-002
3.376799e+003,2.092209e-002
3.378728e+003,2.080029e-002
3.380656e+003,2.078409e-002
3.382585e+003,2.084245e-002
3.384513e+003,2.073240e-002
3.386442e+003,2.068939e-002
3.388370e+003,2.067035e-002
3.390299e+003,2.069013e-002
3.392227e+003,2.055790e-002
3.394156e+003,2.040948e-002
3.396084e+003,2.038599e-002
3.398013e+003,2.031754e-002
3.399941e+003,2.021476e-002
3.401870e+003,2.017603e-002
3.403798e+003,2.003100e-002
3.405727e+003,1.992820e-002
3.407655e+003,1.994666e-002
3.409584e+003,1.983931e-002
3.411512e+003,1.976145e-002
3.413441e+003,1.976365e-002
3.415369e+003,1.964656e-002
3.417298e+003,1.954165e-002
3.419226e+003,1.938432e-002
3.421155e+003,1.920715e-002
3.423083e+003,1.910096e-002
3.425012e+003,1.902555e-002
3.426940e+003,1.898939e-002
3.428869e+003,1.887197e-002
3.430797e+003,1.874971e-002
3.432726e+003,1.869448e-002
3.434654e+003,1.851968e-002
3.436583e+003,1.833583e-002
3.438511e+003,1.828925e-002
3.440440e+003,1.824474e-002
3.442368e+003,1.813938e-002
3.444297e+003,1.798637e-002
3.446225e+003,1.783080e-002
3.448154e+003,1.772906e-002
3.450082e+003,1.767437e-002
3.452011e+003,1.750802e-002
3.453939e+003,1.738602e-002
3.455868e+003,1.722435e-002
3.457796e+003,1.706332e-002
3.459725e+003,1.691400e-002
3.461653e+003,1.677606e-002
3.463582e+003,1.663798e-002
3.465510e+003,1.659788e-002
3.467439e+003,1.645182e-002
3.469367e+003,1.634138e-002
3.471296e+003,1.625110e-002
3.473224e+003,1.610694e-002
3.475153e+003,1.601272e-002
3.477081e+003,1.588909e-002
3.479010e+003,1.583942e-002
3.480938e+003,1.574092e-002
3.482867e+003,1.563112e-002
3.484795e+003,1.545134e-002
3.486724e+003,1.530718e-002
3.488652e+003,1.521733e-002
3.490581e+003,1.507943e-002
3.492509e+003,1.492509e-002
3.494438e+003,1.483728e-002
3.496366e+003,1.476387e-002
3.498295e+003,1.474015e-002
3.500223e+003,1.453263e-002
3.502152e+003,1.427793e-002
3.504080e+003,1.419369e-002
3.506009e+003,1.407582e-002
3.507937e+003,1.402835e-002
3.509866e+003,1.398863e-002
3.511794e+003,1.389672e-002
3.513723e+003,1.379835e-002
3.515651e+003,1.375302e-002
3.517580e+003,1.368241e-002
3.519508e+003,1.354455e-002
3.521437e+003,1.332852e-002
3.523365e+003,1.327406e-002
3.525294e+003,1.319494e-002
3.527222e+003,1.311648e-002
3.529151e+003,1.310109e-002
3.531079e+003,1.302402e-002
3.533008e+003,1.286071e-002
3.534936e+003,1.280318e-002
3.536865e+003,1.281459e-002
3.538793e+003,1.259612e-002
3.540722e+003,1.235337e-002
3.542650e+003,1.238001e-002
3.544579e+003,1.237221e-002
3.546507e+003,1.219816e-002
3.548436e+003,1.201148e-002
3.550364e+003,1.183825e-002
3.552293e+003,1.169531e-002
3.554221e+003,1.170793e-002
3.556150e+003,1.169885e-002
3.558078e+003,1.166013e-002
3.560007e+003,1.169813e-002
3.561935e+003,1.160517e-002
3.563864e+003,1.137094e-002
3.565792e+003,1.128381e-002
3.567721e+003,1.135730e-002
3.569649e+003,1.127060e-002
3.571578e+003,1.115730e-002
3.573506e+003,1.107178e-002
3.575435e+003,1.092244e-002
3.577363e+003,1.087230e-002
3.579292e+003,1.083976e-002
3.581220e+003,1.080678e-002
3.583149e+003,1.080846e-002
3.585077e+003,1.081405e-002
3.587006e+003,1.073853e-002
3.588934e+003,1.076608e-002
3.590863e+003,1.076530e-002
3.592791e+003,1.068837e-002
3.594720e+003,1.068169e-002
3.596648e+003,1.068258e-002
3.598577e+003,1.067294e-002
3.600505e+003,1.056995e-002
3.602434e+003,1.048528e-002
3.604362e+003,1.038362e-002
3.606291e+003,1.022051e-002
3.608219e+003,1.002401e-002
3.610148e+003,9.836387e-003
3.612076e+003,9.622484e-003
3.614005e+003,9.601557e-003
3.615933e+003,9.744792e-003
3.617862e+003,9.957295e-003
3.619790e+003,1.008849e-002
3.621719e+003,1.008658e-002
3.623647e+003,1.003571e-002
3.625576e+003,1.001493e-002
3.627504e+003,9.936974e-003
3.629433e+003,9.775762e-003
3.631361e+003,9.653180e-003
3.633290e+003,9.513301e-003
3.635218e+003,9.303105e-003
3.637146e+003,9.190909e-003
3.639075e+003,9.138143e-003
3.641004e+003,9.126904e-003
3.642932e+003,8.946860e-003
3.644861e+003,8.718316e-003
3.646789e+003,8.687626e-003
3.648718e+003,8.721641e-003
3.650646e+003,8.723991e-003
3.652574e+003,8.703997e-003
3.654503e+003,8.635891e-003
3.656432e+003,8.597874e-003
3.658360e+003,8.607987e-003
3.660289e+003,8.529003e-003
3.662217e+003,8.496791e-003
3.664146e+003,8.488714e-003
3.666074e+003,8.376150e-003
3.668002e+003,8.343670e-003
3.669931e+003,8.424598e-003
3.671860e+003,8.384638e-003
3.673788e+003,8.473300e-003
3.675717e+003,8.600258e-003
3.677645e+003,8.581499e-003
3.679573e+003,8.634893e-003
3.681502e+003,8.664339e-003
3.683430e+003,8.738879e-003
3.685359e+003,8.747502e-003
3.687288e+003,8.900242e-003
3.689216e+003,9.072246e-003
3.691145e+003,9.071278e-003
3.693073e+003,9.158324e-003
3.695001e+003,9.365772e-003
3.696930e+003,9.413630e-003
3.698858e+003,9.391055e-003
3.700787e+003,9.427434e-003
3.702716e+003,9.404385e-003
3.704644e+003,9.504335e-003
3.706573e+003,9.390998e-003
3.708501e+003,9.116889e-003
3.710429e+003,9.012807e-003
3.712358e+003,8.791772e-003
3.714286e+003,8.642195e-003
3.716215e+003,8.726460e-003
3.718144e+003,8.939934e-003
3.720072e+003,9.112118e-003
3.722000e+003,9.371038e-003
3.723929e+003,9.610591e-003
3.725857e+003,9.751407e-003
3.727786e+003,9.770788e-003
3.729714e+003,9.843206e-003
3.731643e+003,9.794559e-003
3.733572e+003,9.547256e-003
3.735500e+003,9.334100e-003
3.737428e+003,9.277367e-003
3.739357e+003,9.134761e-003
3.741285e+003,9.083894e-003
3.743214e+003,8.935433e-003
3.745142e+003,8.788514e-003
3.747071e+003,8.626614e-003
3.749000e+003,8.525464e-003
3.750928e+003,8.569825e-003
3.752856e+003,8.594928e-003
3.754785e+003,8.556697e-003
3.756713e+003,8.571196e-003
3.758642e+003,8.540160e-003
3.760570e+003,8.553761e-003
3.762499e+003,8.525309e-003
3.764427e+003,8.588016e-003
3.766356e+003,8.613300e-003
3.768284e+003,8.626913e-003
3.770213e+003,8.615646e-003
3.772141e+003,8.624604e-003
3.774070e+003,8.669510e-003
3.775998e+003,8.659699e-003
3.777927e+003,8.673677e-003
3.779855e+003,8.719303e-003
3.781784e+003,8.777581e-003
3.783712e+003,8.765549e-003
3.785641e+003,8.707244e-003
3.787569e+003,8.707935e-003
3.789498e+003,8.707189e-003
3.791426e+003,8.706384e-003
3.793355e+003,8.720784e-003
3.795283e+003,8.778690e-003
3.797212e+003,8.866096e-003
3.799140e+003,8.900320e-003
3.801069e+003,8.839391e-003
3.802997e+003,8.808913e-003
3.804926e+003,8.796525e-003
3.806854e+003,8.846072e-003
3.808783e+003,8.852726e-003
3.810711e+003,8.849653e-003
3.812640e+003,8.860040e-003
3.814568e+003,8.884770e-003
3.816497e+003,8.970652e-003
3.818425e+003,8.903941e-003
3.820354e+003,8.901359e-003
3.822282e+003,8.912624e-003
3.824211e+003,8.902935e-003
3.826139e+003,8.921520e-003
3.828068e+003,8.882703e-003
3.829996e+003,8.887861e-003
3.831925e+003,9.028342e-003
3.833853e+003,9.057011e-003
3.835782e+003,8.948681e-003
3.837710e+003,8.909545e-003
3.839639e+003,8.915481e-003
3.841567e+003,8.894876e-003
3.843496e+003,8.943231e-003
3.845424e+003,8.917344e-003
3.847353e+003,8.971204e-003
3.849281e+003,9.062333e-003
3.851210e+003,9.032125e-003
3.853138e+003,9.002459e-003
3.855067e+003,9.093690e-003
3.856995e+003,9.060396e-003
3.858924e+003,8.994277e-003
3.860852e+003,8.955414e-003
3.862781e+003,8.973957e-003
3.864709e+003,9.068040e-003
3.866638e+003,9.132965e-003
3.868566e+003,9.101799e-003
3.870495e+003,9.111823e-003
3.872423e+003,9.106489e-003
3.874352e+003,9.052299e-003
3.876280e+003,9.068305e-003
3.878209e+003,9.036226e-003
3.880137e+003,8.952363e-003
3.882066e+003,8.975235e-003
3.883994e+003,9.092043e-003
3.885923e+003,9.111190e-003
3.887851e+003,9.119873e-003
3.889780e+003,9.135325e-003
3.891708e+003,9.095166e-003
3.893637e+003,9.175307e-003
3.895565e+003,9.200240e-003
3.897494e+003,9.192119e-003
3.899422e+003,9.154183e-003
3.901351e+003,9.107688e-003
3.903279e+003,9.054941e-003
3.905208e+003,9.089330e-003
3.907136e+003,9.195101e-003
3.909065e+003,9.198178e-003
3.910993e+003,9.175696e-003
3.912922e+003,9.237272e-003
3.914850e+003,9.242596e-003
3.916779e+003,9.237800e-003
3.918707e+003,9.218881e-003
3.920636e+003,9.260535e-003
3.922564e+003,9.234023e-003
3.924493e+003,9.180585e-003
3.926421e+003,9.136955e-003
3.928350e+003,9.182638e-003
3.930278e+003,9.287095e-003
3.932207e+003,9.240667e-003
3.934135e+003,9.151651e-003
3.936064e+003,9.202117e-003
3.937992e+003,9.234657e-003
3.939921e+003,9.152364e-003
3.941849e+003,9.177447e-003
3.943778e+003,9.224858e-003
3.945706e+003,9.165483e-003
3.947635e+003,9.177773e-003
3.949563e+003,9.187467e-003
3.951492e+003,9.280510e-003
3.953420e+003,9.268715e-003
3.955349e+003,9.272638e-003
3.957277e+003,9.333964e-003
3.959206e+003,9.291256e-003
3.961134e+003,9.230673e-003
3.963063e+003,9.254354e-003
3.964991e+003,9.257320e-003
3.966920e+003,9.278486e-003
3.968848e+003,9.280141e-003
3.970777e+003,9.364237e-003
3.972705e+003,9.332999e-003
3.974634e+003,9.316516e-003
3.976562e+003,9.303408e-003
3.978491e+003,9.252027e-003
3.980419e+003,9.270535e-003
3.982348e+003,9.377417e-003
3.984276e+003,9.392160e-003
3.986205e+003,9.288439e-003
3.988133e+003,9.219306e-003
3.990062e+003,9.244944e-003
3.991990e+003,9.355335e-003
3.993919e+003,9.340389e-003
3.995847e+003,9.324320e-003
3.997776e+003,9.372966e-003
3.999704e+003,9.372948e-003
4.001633e+003,0.000000e+000
