3.991989e+002,4.299965e-002
4.011274e+002,4.116686e-002
4.030559e+002,4.116686e-002
4.049844e+002,4.179545e-002
4.069129e+002,4.193880e-002
4.088414e+002,4.124926e-002
4.107699e+002,4.079447e-002
4.126984e+002,4.224966e-002
4.146269e+002,4.331910e-002
4.165554e+002,4.358170e-002
4.184839e+002,4.256393e-002
4.204124e+002,4.303350e-002
4.223409e+002,4.381867e-002
4.242694e+002,4.335989e-002
4.261979e+002,4.401860e-002
4.281264e+002,4.436027e-002
4.300549e+002,4.429941e-002
4.319834e+002,4.497047e-002
4.339119e+002,4.404771e-002
4.358404e+002,4.365081e-002
4.377689e+002,4.418632e-002
4.396974e+002,4.390761e-002
4.416259e+002,4.406931e-002
4.435544e+002,4.397206e-002
4.454829e+002,4.422154e-002
4.474114e+002,4.432752e-002
4.493399e+002,4.348696e-002
4.512684e+002,4.355250e-002
4.531969e+002,4.351716e-002
4.551254e+002,4.402660e-002
4.570539e+002,4.409476e-002
4.589824e+002,4.398866e-002
4.609109e+002,4.403309e-002
4.628394e+002,4.439345e-002
4.647679e+002,4.422840e-002
4.666964e+002,4.374373e-002
4.686249e+002,4.306447e-002
4.705533e+002,4.310476e-002
4.724819e+002,4.276530e-002
4.744103e+002,4.256678e-002
4.763389e+002,4.266519e-002
4.782673e+002,4.276747e-002
4.801959e+002,4.246109e-002
4.821243e+002,4.207154e-002
4.840529e+002,4.159959e-002
4.859813e+002,4.134068e-002
4.879099e+002,4.148145e-002
4.898383e+002,4.117692e-002
4.917668e+002,4.098424e-002
4.936953e+002,4.109453e-002
4.956238e+002,4.119362e-002
4.975523e+002,4.122783e-002
4.994808e+002,4.072833e-002
5.014093e+002,4.082331e-002
5.033378e+002,4.078526e-002
5.052663e+002,4.088015e-002
5.071948e+002,4.111123e-002
5.091233e+002,4.154521e-002
5.110518e+002,4.155077e-002
5.129803e+002,4.144493e-002
5.149088e+002,4.221031e-002
5.168373e+002,4.275373e-002
5.187658e+002,4.297344e-002
5.206943e+002,4.306953e-002
5.226228e+002,4.278932e-002
5.245513e+002,4.289866e-002
5.264798e+002,4.301726e-002
5.284083e+002,4.327816e-002
5.303368e+002,4.320589e-002
5.322653e+002,4.310098e-002
5.341938e+002,4.296361e-002
5.361223e+002,4.300069e-002
5.380508e+002,4.264406e-002
5.399792e+002,4.257695e-002
5.419078e+002,4.263315e-002
5.438363e+002,4.271923e-002
5.457648e+002,4.214487e-002
5.476932e+002,4.196028e-002
5.496218e+002,4.293624e-002
5.515503e+002,4.332841e-002
5.534788e+002,4.313827e-002
5.554072e+002,4.300411e-002
5.573358e+002,4.330059e-002
5.592643e+002,4.378982e-002
5.611927e+002,4.371263e-002
5.631212e+002,4.340940e-002
5.650497e+002,4.300570e-002
5.669783e+002,4.270885e-002
5.689067e+002,4.255013e-002
5.708352e+002,4.231870e-002
5.727637e+002,4.208227e-002
5.746923e+002,4.181004e-002
5.766207e+002,4.153118e-002
5.785492e+002,4.142713e-002
5.804777e+002,4.108303e-002
5.824063e+002,4.075716e-002
5.843347e+002,4.072079e-002
5.862632e+002,4.099407e-002
5.881917e+002,4.099433e-002
5.901202e+002,4.063138e-002
5.920487e+002,4.056766e-002
5.939772e+002,4.054858e-002
5.959057e+002,4.057801e-002
5.978342e+002,4.051736e-002
5.997627e+002,4.016571e-002
6.016912e+002,4.006923e-002
6.036197e+002,3.995359e-002
6.055482e+002,3.992940e-002
6.074767e+002,3.960071e-002
6.094052e+002,3.961220e-002
6.113337e+002,3.925073e-002
6.132622e+002,3.876777e-002
6.151907e+002,3.816201e-002
6.171192e+002,3.773221e-002
6.190477e+002,3.759428e-002
6.209762e+002,3.719915e-002
6.229047e+002,3.666922e-002
6.248332e+002,3.622361e-002
6.267617e+002,3.562641e-002
6.286902e+002,3.504170e-002
6.306187e+002,3.468807e-002
6.325472e+002,3.464527e-002
6.344756e+002,3.443177e-002
6.364042e+002,3.392883e-002
6.383326e+002,3.373689e-002
6.402612e+002,3.343119e-002
6.421896e+002,3.309910e-002
6.441182e+002,3.280782e-002
6.460466e+002,3.250756e-002
6.479752e+002,3.237442e-002
6.499036e+002,3.240945e-002
6.518322e+002,3.229294e-002
6.537606e+002,3.219169e-002
6.556891e+002,3.223315e-002
6.576177e+002,3.222912e-002
6.595461e+002,3.224660e-002
6.614746e+002,3.230570e-002
6.634031e+002,3.231389e-002
6.653317e+002,3.204400e-002
6.672601e+002,3.182770e-002
6.691886e+002,3.164628e-002
6.711171e+002,3.136963e-002
6.730457e+002,3.084356e-002
6.749741e+002,3.020287e-002
6.769026e+002,2.985311e-002
6.788311e+002,2.948507e-002
6.807596e+002,2.891548e-002
6.826881e+002,2.831777e-002
6.846166e+002,2.800015e-002
6.865451e+002,2.797872e-002
6.884736e+002,2.779458e-002
6.904021e+002,2.761008e-002
6.923306e+002,2.737116e-002
6.942591e+002,2.718869e-002
6.961876e+002,2.703057e-002
6.981161e+002,2.688720e-002
7.000446e+002,2.673485e-002
7.019731e+002,2.658592e-002
7.039016e+002,2.632116e-002
7.058301e+002,2.607585e-002
7.077585e+002,2.583210e-002
7.096871e+002,2.574851e-002
7.116156e+002,2.558581e-002
7.135441e+002,2.529013e-002
7.154725e+002,2.510411e-002
7.174011e+002,2.505450e-002
7.193296e+002,2.477607e-002
7.212581e+002,2.455117e-002
7.231865e+002,2.443053e-002
7.251151e+002,2.435559e-002
7.270436e+002,2.400325e-002
7.289720e+002,2.360464e-002
7.309005e+002,2.324285e-002
7.328290e+002,2.298308e-002
7.347576e+002,2.289085e-002
7.366860e+002,2.290612e-002
7.386145e+002,2.267594e-002
7.405430e+002,2.251501e-002
7.424716e+002,2.231460e-002
7.444000e+002,2.215731e-002
7.463285e+002,2.187934e-002
7.482570e+002,2.164720e-002
7.501855e+002,2.151042e-002
7.521140e+002,2.136180e-002
7.540425e+002,2.115704e-002
7.559710e+002,2.093221e-002
7.578995e+002,2.087377e-002
7.598280e+002,2.072775e-002
7.617565e+002,2.048607e-002
7.636850e+002,2.035199e-002
7.656135e+002,2.022207e-002
7.675420e+002,2.010423e-002
7.694705e+002,1.996082e-002
7.713990e+002,1.990695e-002
7.733275e+002,1.988485e-002
7.752560e+002,1.985943e-002
7.771844e+002,1.976007e-002
7.791130e+002,1.971954e-002
7.810415e+002,1.965331e-002
7.829700e+002,1.957307e-002
7.848984e+002,1.932233e-002
7.868270e+002,1.925184e-002
7.887555e+002,1.922365e-002
7.906840e+002,1.923161e-002
7.926124e+002,1.915331e-002
7.945410e+002,1.894178e-002
7.964695e+002,1.887724e-002
7.983979e+002,1.887056e-002
8.003264e+002,1.882800e-002
8.022549e+002,1.879274e-002
8.041835e+002,1.882831e-002
8.061119e+002,1.885066e-002
8.080404e+002,1.879537e-002
8.099689e+002,1.876928e-002
8.118975e+002,1.869214e-002
8.138259e+002,1.863652e-002
8.157545e+002,1.852973e-002
8.176830e+002,1.838487e-002
8.196115e+002,1.821324e-002
8.215399e+002,1.811291e-002
8.234684e+002,1.809820e-002
8.253970e+002,1.807360e-002
8.273254e+002,1.802341e-002
8.292539e+002,1.796874e-002
8.311824e+002,1.788332e-002
8.331110e+002,1.787289e-002
8.350394e+002,1.777481e-002
8.369679e+002,1.768783e-002
8.388964e+002,1.757379e-002
8.408250e+002,1.755223e-002
8.427534e+002,1.758207e-002
8.446819e+002,1.733669e-002
8.466104e+002,1.715913e-002
8.485389e+002,1.711670e-002
8.504674e+002,1.706859e-002
8.523959e+002,1.714972e-002
8.543244e+002,1.718016e-002
8.562529e+002,1.705201e-002
8.581814e+002,1.701738e-002
8.601099e+002,1.716940e-002
8.620384e+002,1.722635e-002
8.639669e+002,1.730100e-002
8.658954e+002,1.723311e-002
8.678239e+002,1.729969e-002
8.697524e+002,1.738524e-002
8.716809e+002,1.742359e-002
8.736094e+002,1.751462e-002
8.755378e+002,1.756872e-002
8.774664e+002,1.763321e-002
8.793949e+002,1.777964e-002
8.813234e+002,1.791021e-002
8.832518e+002,1.802134e-002
8.851804e+002,1.825958e-002
8.871089e+002,1.852585e-002
8.890374e+002,1.890818e-002
8.909658e+002,1.934242e-002
8.928943e+002,1.968649e-002
8.948229e+002,1.988687e-002
8.967513e+002,2.003185e-002
8.986798e+002,2.003573e-002
9.006083e+002,1.997519e-002
9.025369e+002,1.981365e-002
9.044653e+002,1.955234e-002
9.063938e+002,1.931980e-002
9.083223e+002,1.901884e-002
9.102509e+002,1.883527e-002
9.121793e+002,1.881686e-002
9.141078e+002,1.884308e-002
9.160364e+002,1.870120e-002
9.179648e+002,1.877838e-002
9.198933e+002,1.895722e-002
9.218218e+002,1.914573e-002
9.237504e+002,1.939515e-002
9.256788e+002,1.955203e-002
9.276073e+002,1.965519e-002
9.295358e+002,1.983855e-002
9.314644e+002,2.008837e-002
9.333928e+002,2.033455e-002
9.353213e+002,2.064435e-002
9.372498e+002,2.096731e-002
9.391783e+002,2.131789e-002
9.411068e+002,2.169812e-002
9.430353e+002,2.214318e-002
9.449637e+002,2.264486e-002
9.468923e+002,2.317033e-002
9.488208e+002,2.372604e-002
9.507493e+002,2.430565e-002
9.526777e+002,2.481496e-002
9.546063e+002,2.537805e-002
9.565348e+002,2.598087e-002
9.584633e+002,2.663418e-002
9.603917e+002,2.727216e-002
9.623203e+002,2.796200e-002
9.642488e+002,2.865797e-002
9.661772e+002,2.931776e-002
9.681057e+002,3.001341e-002
9.700343e+002,3.073003e-002
9.719628e+002,3.142546e-002
9.738912e+002,3.215801e-002
9.758197e+002,3.297186e-002
9.777483e+002,3.399892e-002
9.796768e+002,3.509013e-002
9.816052e+002,3.616636e-002
9.835337e+002,3.734763e-002
9.854623e+002,3.854346e-002
9.873907e+002,3.969967e-002
9.893192e+002,4.063493e-002
9.912477e+002,4.131464e-002
9.931763e+002,4.189556e-002
9.951047e+002,4.232018e-002
9.970332e+002,4.278796e-002
9.989617e+002,4.335212e-002
1.000890e+003,4.399968e-002
1.002819e+003,4.475123e-002
1.004747e+003,4.548970e-002
1.006676e+003,4.629378e-002
1.008604e+003,4.707413e-002
1.010533e+003,4.788619e-002
1.012461e+003,4.883129e-002
1.014390e+003,4.987541e-002
1.016318e+003,5.103961e-002
1.018247e+003,5.216748e-002
1.020175e+003,5.330450e-002
1.022104e+003,5.447166e-002
1.024032e+003,5.572405e-002
1.025961e+003,5.697428e-002
1.027889e+003,5.833410e-002
1.029818e+003,5.968998e-002
1.031746e+003,6.091121e-002
1.033675e+003,6.185406e-002
1.035603e+003,6.237683e-002
1.037532e+003,6.233874e-002
1.039460e+003,6.190457e-002
1.041389e+003,6.129539e-002
1.043317e+003,6.072109e-002
1.045246e+003,6.027636e-002
1.047174e+003,5.995956e-002
1.049103e+003,5.968375e-002
1.051031e+003,5.956174e-002
1.052960e+003,5.933415e-002
1.054888e+003,5.900407e-002
1.056817e+003,5.852181e-002
1.058745e+003,5.787503e-002
1.060674e+003,5.703412e-002
1.062602e+003,5.599442e-002
1.064531e+003,5.484346e-002
1.066459e+003,5.365550e-002
1.068388e+003,5.253259e-002
1.070316e+003,5.151061e-002
1.072245e+003,5.053245e-002
1.074173e+003,4.959330e-002
1.076102e+003,4.860251e-002
1.078030e+003,4.759379e-002
1.079959e+003,4.651925e-002
1.081887e+003,4.542374e-002
1.083816e+003,4.446171e-002
1.085744e+003,4.368996e-002
1.087673e+003,4.306905e-002
1.089601e+003,4.254056e-002
1.091530e+003,4.196391e-002
1.093458e+003,4.143757e-002
1.095387e+003,4.102947e-002
1.097315e+003,4.068186e-002
1.099244e+003,4.038642e-002
1.101172e+003,4.021631e-002
1.103101e+003,3.997564e-002
1.105029e+003,3.961501e-002
1.106958e+003,3.921185e-002
1.108886e+003,3.863348e-002
1.110815e+003,3.782725e-002
1.112743e+003,3.683788e-002
1.114672e+003,3.579596e-002
1.116600e+003,3.477488e-002
1.118529e+003,3.375723e-002
1.120457e+003,3.288225e-002
1.122386e+003,3.200785e-002
1.124314e+003,3.120424e-002
1.126243e+003,3.030842e-002
1.128171e+003,2.925913e-002
1.130100e+003,2.827276e-002
1.132028e+003,2.742788e-002
1.133957e+003,2.663210e-002
1.135885e+003,2.596279e-002
1.137814e+003,2.550143e-002
1.139742e+003,2.519833e-002
1.141671e+003,2.507272e-002
1.143599e+003,2.511088e-002
1.145528e+003,2.531261e-002
1.147456e+003,2.551025e-002
1.149385e+003,2.567505e-002
1.151313e+003,2.594274e-002
1.153242e+003,2.624351e-002
1.155170e+003,2.657936e-002
1.157099e+003,2.678869e-002
1.159027e+003,2.684028e-002
1.160956e+003,2.676194e-002
1.162884e+003,2.638802e-002
1.164813e+003,2.577215e-002
1.166741e+003,2.493180e-002
1.168670e+003,2.391582e-002
1.170598e+003,2.284629e-002
1.172526e+003,2.171014e-002
1.174455e+003,2.062465e-002
1.176384e+003,1.969211e-002
1.178312e+003,1.882973e-002
1.180240e+003,1.808928e-002
1.182169e+003,1.753456e-002
1.184098e+003,1.711229e-002
1.186026e+003,1.673592e-002
1.187954e+003,1.644549e-002
1.189883e+003,1.627160e-002
1.191812e+003,1.631060e-002
1.193740e+003,1.642132e-002
1.195668e+003,1.655389e-002
1.197597e+003,1.679032e-002
1.199526e+003,1.702903e-002
1.201454e+003,1.721762e-002
1.203382e+003,1.736945e-002
1.205311e+003,1.743288e-002
1.207240e+003,1.740511e-002
1.209168e+003,1.744374e-002
1.211096e+003,1.754327e-002
1.213025e+003,1.762565e-002
1.214953e+003,1.774617e-002
1.216882e+003,1.793962e-002
1.218810e+003,1.811912e-002
1.220739e+003,1.835371e-002
1.222667e+003,1.858965e-002
1.224596e+003,1.878796e-002
1.226524e+003,1.901912e-002
1.228453e+003,1.930873e-002
1.230381e+003,1.955735e-002
1.232310e+003,1.970482e-002
1.234238e+003,1.980624e-002
1.236167e+003,1.989384e-002
1.238095e+003,1.994026e-002
1.240024e+003,1.996760e-002
1.241952e+003,1.995611e-002
1.243881e+003,1.992232e-002
1.245809e+003,1.986100e-002
1.247738e+003,1.975940e-002
1.249666e+003,1.963326e-002
1.251595e+003,1.949102e-002
1.253523e+003,1.932204e-002
1.255452e+003,1.913518e-002
1.257380e+003,1.893373e-002
1.259309e+003,1.872965e-002
1.261237e+003,1.850203e-002
1.263166e+003,1.825467e-002
1.265094e+003,1.794853e-002
1.267023e+003,1.765827e-002
1.268951e+003,1.738405e-002
1.270880e+003,1.709729e-002
1.272808e+003,1.686125e-002
1.274737e+003,1.661552e-002
1.276665e+003,1.639810e-002
1.278594e+003,1.618252e-002
1.280522e+003,1.601379e-002
1.282451e+003,1.584259e-002
1.284379e+003,1.565292e-002
1.286308e+003,1.546196e-002
1.288236e+003,1.528885e-002
1.290165e+003,1.514472e-002
1.292093e+003,1.512036e-002
1.294022e+003,1.509379e-002
1.295950e+003,1.510399e-002
1.297879e+003,1.516569e-002
1.299807e+003,1.525921e-002
1.301736e+003,1.538138e-002
1.303664e+003,1.554926e-002
1.305593e+003,1.578167e-002
1.307521e+003,1.599189e-002
1.309450e+003,1.622034e-002
1.311378e+003,1.642938e-002
1.313307e+003,1.658667e-002
1.315235e+003,1.674021e-002
1.317164e+003,1.677832e-002
1.319092e+003,1.669127e-002
1.321021e+003,1.660538e-002
1.322949e+003,1.652057e-002
1.324878e+003,1.641766e-002
1.326806e+003,1.632182e-002
1.328735e+003,1.629175e-002
1.330663e+003,1.622369e-002
1.332592e+003,1.614830e-002
1.334520e+003,1.613152e-002
1.336449e+003,1.609789e-002
1.338377e+003,1.599997e-002
1.340306e+003,1.587110e-002
1.342234e+003,1.579726e-002
1.344163e+003,1.572980e-002
1.346091e+003,1.564775e-002
1.348020e+003,1.563205e-002
1.349948e+003,1.567075e-002
1.351877e+003,1.577973e-002
1.353805e+003,1.586594e-002
1.355734e+003,1.593160e-002
1.357662e+003,1.607476e-002
1.359591e+003,1.620319e-002
1.361519e+003,1.631095e-002
1.363448e+003,1.647503e-002
1.365376e+003,1.663863e-002
1.367305e+003,1.673637e-002
1.369233e+003,1.680011e-002
1.371162e+003,1.675252e-002
1.373090e+003,1.669242e-002
1.375019e+003,1.662008e-002
1.376947e+003,1.647790e-002
1.378876e+003,1.633356e-002
1.380804e+003,1.610656e-002
1.382733e+003,1.580457e-002
1.384661e+003,1.553347e-002
1.386590e+003,1.533526e-002
1.388518e+003,1.519362e-002
1.390447e+003,1.502722e-002
1.392375e+003,1.490867e-002
1.394304e+003,1.481756e-002
1.396232e+003,1.474347e-002
1.398161e+003,1.473126e-002
1.400089e+003,1.469739e-002
1.402018e+003,1.475746e-002
1.403946e+003,1.480128e-002
1.405875e+003,1.479379e-002
1.407803e+003,1.483453e-002
1.409732e+003,1.492791e-002
1.411660e+003,1.500563e-002
1.413589e+003,1.505083e-002
1.415517e+003,1.513161e-002
1.417446e+003,1.524308e-002
1.419374e+003,1.532294e-002
1.421303e+003,1.533650e-002
1.423231e+003,1.534711e-002
1.425160e+003,1.533590e-002
1.427088e+003,1.527181e-002
1.429017e+003,1.520361e-002
1.430945e+003,1.510587e-002
1.432874e+003,1.497663e-002
1.434802e+003,1.487360e-002
1.436731e+003,1.477143e-002
1.438659e+003,1.464284e-002
1.440588e+003,1.450904e-002
1.442516e+003,1.447405e-002
1.444445e+003,1.449425e-002
1.446373e+003,1.447502e-002
1.448302e+003,1.446764e-002
1.450230e+003,1.448549e-002
1.452159e+003,1.443129e-002
1.454087e+003,1.431979e-002
1.456016e+003,1.421601e-002
1.457944e+003,1.409437e-002
1.459873e+003,1.396776e-002
1.461801e+003,1.385712e-002
1.463730e+003,1.369015e-002
1.465658e+003,1.353211e-002
1.467587e+003,1.326428e-002
1.469515e+003,1.289578e-002
1.471444e+003,1.245906e-002
1.473372e+003,1.208698e-002
1.475301e+003,1.176382e-002
1.477229e+003,1.150948e-002
1.479158e+003,1.130515e-002
1.481086e+003,1.120629e-002
1.483015e+003,1.122241e-002
1.484943e+003,1.124610e-002
1.486872e+003,1.128378e-002
1.488800e+003,1.137224e-002
1.490729e+003,1.152198e-002
1.492657e+003,1.171979e-002
1.494586e+003,1.194488e-002
1.496514e+003,1.218775e-002
1.498443e+003,1.244953e-002
1.500371e+003,1.274877e-002
1.502300e+003,1.304515e-002
1.504228e+003,1.333492e-002
1.506157e+003,1.356760e-002
1.508085e+003,1.372873e-002
1.510014e+003,1.386625e-002
1.511942e+003,1.402414e-002
1.513871e+003,1.409586e-002
1.515799e+003,1.405307e-002
1.517728e+003,1.399914e-002
1.519656e+003,1.388995e-002
1.521585e+003,1.373268e-002
1.523513e+003,1.364728e-002
1.525442e+003,1.358783e-002
1.527370e+003,1.356965e-002
1.529299e+003,1.364793e-002
1.531227e+003,1.365028e-002
1.533156e+003,1.366918e-002
1.535084e+003,1.375100e-002
1.537013e+003,1.376656e-002
1.538941e+003,1.375931e-002
1.540870e+003,1.368643e-002
1.542798e+003,1.363943e-002
1.544727e+003,1.360106e-002
1.546655e+003,1.355624e-002
1.548584e+003,1.343981e-002
1.550512e+003,1.331712e-002
1.552441e+003,1.321321e-002
1.554369e+003,1.311987e-002
1.556298e+003,1.301178e-002
1.558226e+003,1.288473e-002
1.560155e+003,1.284623e-002
1.562083e+003,1.275375e-002
1.564012e+003,1.264756e-002
1.565940e+003,1.264073e-002
1.567869e+003,1.264393e-002
1.569797e+003,1.268700e-002
1.571726e+003,1.273753e-002
1.573654e+003,1.278932e-002
1.575583e+003,1.286951e-002
1.577511e+003,1.298947e-002
1.579440e+003,1.308486e-002
1.581368e+003,1.327132e-002
1.583297e+003,1.347615e-002
1.585225e+003,1.366153e-002
1.587154e+003,1.383164e-002
1.589082e+003,1.402717e-002
1.591010e+003,1.421921e-002
1.592939e+003,1.442925e-002
1.594868e+003,1.458825e-002
1.596796e+003,1.478198e-002
1.598724e+003,1.493139e-002
1.600653e+003,1.506337e-002
1.602582e+003,1.518312e-002
1.604510e+003,1.527692e-002
1.606438e+003,1.536832e-002
1.608367e+003,1.546461e-002
1.610296e+003,1.554310e-002
1.612224e+003,1.573297e-002
1.614152e+003,1.600077e-002
1.616081e+003,1.632027e-002
1.618010e+003,1.660787e-002
1.619938e+003,1.691591e-002
1.621866e+003,1.730726e-002
1.623795e+003,1.766367e-002
1.625724e+003,1.791084e-002
1.627652e+003,1.801544e-002
1.629580e+003,1.814700e-002
1.631509e+003,1.818513e-002
1.633438e+003,1.810179e-002
1.635366e+003,1.796510e-002
1.637294e+003,1.794298e-002
1.639223e+003,1.787716e-002
1.641151e+003,1.784878e-002
1.643080e+003,1.771594e-002
1.645008e+003,1.763280e-002
1.646937e+003,1.754519e-002
1.648865e+003,1.750867e-002
1.650794e+003,1.740976e-002
1.652722e+003,1.728744e-002
1.654651e+003,1.715372e-002
1.656579e+003,1.692484e-002
1.658508e+003,1.665564e-002
1.660436e+003,1.637756e-002
1.662365e+003,1.606399e-002
1.664293e+003,1.573803e-002
1.666222e+003,1.539875e-002
1.668150e+003,1.502408e-002
1.670079e+003,1.462421e-002
1.672007e+003,1.429167e-002
1.673936e+003,1.393385e-002
1.675864e+003,1.356297e-002
1.677793e+003,1.324872e-002
1.679721e+003,1.294294e-002
1.681650e+003,1.262708e-002
1.683578e+003,1.230950e-002
1.685507e+003,1.207444e-002
1.687435e+003,1.174614e-002
1.689364e+003,1.144878e-002
1.691292e+003,1.122708e-002
1.693221e+003,1.101300e-002
1.695149e+003,1.080428e-002
1.697078e+003,1.055118e-002
1.699006e+003,1.021612e-002
1.700935e+003,9.967092e-003
1.702863e+003,9.754073e-003
1.704792e+003,9.615365e-003
1.706720e+003,9.529671e-003
1.708649e+003,9.543707e-003
1.710577e+003,9.463109e-003
1.712506e+003,9.414542e-003
1.714434e+003,9.408797e-003
1.716363e+003,9.419112e-003
1.718291e+003,9.460974e-003
1.720220e+003,9.498569e-003
1.722148e+003,9.490942e-003
1.724077e+003,9.484063e-003
1.726005e+003,9.446189e-003
1.727934e+003,9.395660e-003
1.729862e+003,9.330197e-003
1.731791e+003,9.305616e-003
1.733719e+003,9.219158e-003
1.735648e+003,9.085023e-003
1.737576e+003,8.953773e-003
1.739505e+003,8.787547e-003
1.741433e+003,8.590342e-003
1.743362e+003,8.434949e-003
1.745290e+003,8.346529e-003
1.747219e+003,8.088629e-003
1.749147e+003,7.830062e-003
1.751076e+003,7.667390e-003
1.753004e+003,7.524700e-003
1.754933e+003,7.368474e-003
1.756861e+003,7.210044e-003
1.758790e+003,7.076927e-003
1.760718e+003,6.935138e-003
1.762647e+003,6.812683e-003
1.764575e+003,6.734728e-003
1.766504e+003,6.635694e-003
1.768432e+003,6.572332e-003
1.770361e+003,6.515997e-003
1.772289e+003,6.521929e-003
1.774218e+003,6.519867e-003
1.776146e+003,6.469011e-003
1.778075e+003,6.485507e-003
1.780003e+003,6.491629e-003
1.781932e+003,6.512613e-003
1.783860e+003,6.440256e-003
1.785789e+003,6.381866e-003
1.787717e+003,6.362010e-003
1.789646e+003,6.399651e-003
1.791574e+003,6.440552e-003
1.793503e+003,6.449609e-003
1.795431e+003,6.432327e-003
1.797360e+003,6.440199e-003
1.799288e+003,6.460467e-003
1.801217e+003,6.486577e-003
1.803145e+003,6.437530e-003
1.805074e+003,6.375026e-003
1.807002e+003,6.372858e-003
1.808931e+003,6.396823e-003
1.810859e+003,6.431058e-003
1.812788e+003,6.415122e-003
1.814716e+003,6.416085e-003
1.816645e+003,6.395711e-003
1.818573e+003,6.346838e-003
1.820502e+003,6.306343e-003
1.822430e+003,6.333923e-003
1.824359e+003,6.310726e-003
1.826287e+003,6.274296e-003
1.828216e+003,6.265796e-003
1.830144e+003,6.250666e-003
1.832073e+003,6.227391e-003
1.834001e+003,6.263345e-003
1.835930e+003,6.264232e-003
1.837858e+003,6.207121e-003
1.839787e+003,6.080043e-003
1.841715e+003,6.054457e-003
1.843644e+003,6.109545e-003
1.845572e+003,6.202891e-003
1.847501e+003,6.106165e-003
1.849429e+003,6.064525e-003
1.851358e+003,6.126510e-003
1.853286e+003,6.155573e-003
1.855215e+003,6.181050e-003
1.857143e+003,6.054019e-003
1.859072e+003,6.067499e-003
1.861000e+003,6.187582e-003
1.862929e+003,6.121904e-003
1.864857e+003,5.922716e-003
1.866786e+003,5.939452e-003
1.868714e+003,6.036079e-003
1.870643e+003,5.983381e-003
1.872571e+003,6.012402e-003
1.874500e+003,5.981283e-003
1.876428e+003,5.941177e-003
1.878357e+003,5.951557e-003
1.880285e+003,6.061870e-003
1.882214e+003,6.039742e-003
1.884142e+003,5.959978e-003
1.886071e+003,6.057141e-003
1.887999e+003,6.169004e-003
1.889928e+003,6.037008e-003
1.891856e+003,5.941980e-003
1.893785e+003,5.873465e-003
1.895713e+003,5.901059e-003
1.897642e+003,5.874494e-003
1.899570e+003,5.884861e-003
1.901499e+003,5.952420e-003
1.903427e+003,5.849810e-003
1.905356e+003,5.763753e-003
1.907284e+003,5.832962e-003
1.909213e+003,6.003425e-003
1.911141e+003,5.885191e-003
1.913070e+003,5.816673e-003
1.914998e+003,5.983668e-003
1.916927e+003,5.905444e-003
1.918855e+003,5.597961e-003
1.920784e+003,5.276318e-003
1.922712e+003,5.366343e-003
1.924641e+003,5.688034e-003
1.926569e+003,5.764558e-003
1.928498e+003,5.829544e-003
1.930426e+003,5.653379e-003
1.932355e+003,5.447813e-003
1.934283e+003,5.572822e-003
1.936212e+003,5.677674e-003
1.938140e+003,5.356023e-003
1.940069e+003,4.963807e-003
1.941997e+003,5.089636e-003
1.943926e+003,5.232070e-003
1.945854e+003,4.872374e-003
1.947783e+003,4.579803e-003
1.949711e+003,4.584828e-003
1.951640e+003,4.861068e-003
1.953568e+003,4.205412e-003
1.955497e+003,3.775728e-003
1.957425e+003,3.893886e-003
1.959354e+003,3.885428e-003
1.961282e+003,3.010583e-003
1.963211e+003,2.782196e-003
1.965139e+003,2.351037e-003
1.967068e+003,2.238624e-003
1.968996e+003,2.135737e-003
1.970925e+003,1.811948e-003
1.972853e+003,1.858112e-003
1.974782e+003,1.607850e-003
1.976710e+003,1.055730e-003
1.978639e+003,1.093809e-003
1.980567e+003,8.626048e-004
1.982496e+003,1.875856e-003
1.984424e+003,3.563917e-003
1.986353e+003,4.043348e-003
1.988281e+003,4.376341e-003
1.990210e+003,4.310190e-003
1.992138e+003,4.068161e-003
1.994067e+003,3.903928e-003
1.995995e+003,4.100410e-003
1.997924e+003,4.494064e-003
1.999852e+003,3.878581e-003
2.001781e+003,3.695756e-003
2.003709e+003,3.512261e-003
2.005638e+003,2.692396e-003
2.007566e+003,1.708102e-003
2.009495e+003,1.813764e-003
2.011423e+003,2.317245e-003
2.013352e+003,2.238119e-003
2.015280e+003,1.261339e-003
2.017208e+003,2.013038e-003
2.019137e+003,3.098791e-003
2.021066e+003,3.076016e-003
2.022994e+003,2.274796e-003
2.024922e+003,2.193351e-003
2.026851e+003,1.755074e-003
2.028780e+003,1.133751e-003
2.030708e+003,2.172343e-003
2.032636e+003,1.739955e-003
2.034565e+003,1.881041e-003
2.036494e+003,2.256495e-003
2.038422e+003,2.719627e-003
2.040350e+003,3.641106e-003
2.042279e+003,2.779817e-003
2.044208e+003,2.271759e-003
2.046136e+003,2.746289e-003
2.048064e+003,3.997996e-003
2.049993e+003,3.942010e-003
2.051921e+003,4.232701e-003
2.053850e+003,4.512284e-003
2.055778e+003,5.092531e-003
2.057707e+003,4.738686e-003
2.059635e+003,4.298349e-003
2.061564e+003,4.426675e-003
2.063492e+003,4.577301e-003
2.065421e+003,4.898853e-003
2.067349e+003,5.109168e-003
2.069278e+003,5.021759e-003
2.071206e+003,4.986950e-003
2.073135e+003,5.161902e-003
2.075063e+003,5.229450e-003
2.076992e+003,5.173534e-003
2.078920e+003,5.470377e-003
2.080849e+003,5.867447e-003
2.082777e+003,5.914787e-003
2.084706e+003,5.856242e-003
2.086634e+003,6.218981e-003
2.088563e+003,6.504472e-003
2.090491e+003,6.409716e-003
2.092420e+003,6.029998e-003
2.094348e+003,6.029607e-003
2.096277e+003,5.797258e-003
2.098205e+003,5.626399e-003
2.100134e+003,5.859578e-003
2.102062e+003,6.093756e-003
2.103991e+003,6.318042e-003
2.105919e+003,6.387068e-003
2.107848e+003,6.125276e-003
2.109776e+003,6.182778e-003
2.111705e+003,6.467069e-003
2.113633e+003,6.607233e-003
2.115562e+003,6.649792e-003
2.117490e+003,6.754811e-003
2.119419e+003,6.766994e-003
2.121347e+003,6.854807e-003
2.123276e+003,6.881198e-003
2.125204e+003,6.673513e-003
2.127133e+003,6.582204e-003
2.129061e+003,6.346081e-003
2.130990e+003,6.138853e-003
2.132918e+003,6.153976e-003
2.134847e+003,6.476755e-003
2.136775e+003,6.453012e-003
2.138704e+003,5.924266e-003
2.140632e+003,6.234101e-003
2.142561e+003,6.431153e-003
2.144489e+003,6.030689e-003
2.146418e+003,5.418071e-003
2.148346e+003,4.549425e-003
2.150275e+003,4.104162e-003
2.152203e+003,3.540584e-003
2.154132e+003,3.502604e-003
2.156060e+003,2.350750e-003
2.157989e+003,1.085003e-003
2.159917e+003,3.190986e-004
2.161846e+003,1.481894e-003
2.163774e+003,2.932499e-003
2.165703e+003,3.330783e-003
2.167631e+003,4.359384e-003
2.169560e+003,5.031579e-003
2.171488e+003,4.821592e-003
2.173417e+003,4.467265e-003
2.175345e+003,4.498266e-003
2.177274e+003,4.521769e-003
2.179202e+003,4.904054e-003
2.181131e+003,4.743401e-003
2.183059e+003,4.817706e-003
2.184988e+003,5.645263e-003
2.186916e+003,5.296838e-003
2.188845e+003,5.401027e-003
2.190773e+003,6.052326e-003
2.192702e+003,5.519202e-003
2.194630e+003,6.121445e-003
2.196559e+003,6.687308e-003
2.198487e+003,6.476486e-003
2.200416e+003,6.365145e-003
2.202344e+003,6.173636e-003
2.204273e+003,5.987284e-003
2.206201e+003,5.973712e-003
2.208130e+003,6.003913e-003
2.210058e+003,6.067211e-003
2.211987e+003,6.621598e-003
2.213915e+003,7.016613e-003
2.215844e+003,6.836126e-003
2.217772e+003,6.926276e-003
2.219701e+003,7.424829e-003
2.221629e+003,7.587522e-003
2.223558e+003,7.128121e-003
2.225486e+003,7.002134e-003
2.227415e+003,6.965297e-003
2.229343e+003,7.233560e-003
2.231272e+003,7.397263e-003
2.233200e+003,7.538880e-003
2.235129e+003,7.232266e-003
2.237057e+003,7.198161e-003
2.238986e+003,7.298241e-003
2.240914e+003,7.464658e-003
2.242843e+003,7.294154e-003
2.244771e+003,7.310660e-003
2.246700e+003,7.347636e-003
2.248628e+003,7.396810e-003
2.250557e+003,7.218531e-003
2.252485e+003,6.759943e-003
2.254414e+003,6.838952e-003
2.256342e+003,7.089697e-003
2.258271e+003,6.859739e-003
2.260199e+003,6.697420e-003
2.262128e+003,6.858114e-003
2.264056e+003,7.058754e-003
2.265985e+003,7.148733e-003
2.267913e+003,7.202502e-003
2.269842e+003,7.271630e-003
2.271770e+003,7.540551e-003
2.273699e+003,7.745971e-003
2.275627e+003,7.700562e-003
2.277556e+003,7.604568e-003
2.279484e+003,7.543060e-003
2.281413e+003,7.869278e-003
2.283341e+003,8.019681e-003
2.285270e+003,7.970205e-003
2.287198e+003,8.100818e-003
2.289127e+003,8.111945e-003
2.291055e+003,7.962508e-003
2.292984e+003,7.934952e-003
2.294912e+003,8.041128e-003
2.296841e+003,8.222315e-003
2.298769e+003,8.125156e-003
2.300698e+003,8.074781e-003
2.302626e+003,8.032595e-003
2.304555e+003,8.064208e-003
2.306483e+003,8.164970e-003
2.308412e+003,8.263227e-003
2.310340e+003,8.204903e-003
2.312269e+003,8.216189e-003
2.314197e+003,8.280953e-003
2.316125e+003,8.552723e-003
2.318054e+003,8.847062e-003
2.319983e+003,8.934236e-003
2.321911e+003,8.778000e-003
2.323840e+003,8.608392e-003
2.325768e+003,8.498504e-003
2.327697e+003,8.609394e-003
2.329625e+003,8.487430e-003
2.331553e+003,8.522580e-003
2.333482e+003,8.468434e-003
2.335411e+003,8.254807e-003
2.337339e+003,8.012304e-003
2.339268e+003,7.897042e-003
2.341196e+003,7.931608e-003
2.343125e+003,8.150875e-003
2.345053e+003,8.009480e-003
2.346981e+003,7.958323e-003
2.348910e+003,7.917432e-003
2.350839e+003,7.766837e-003
2.352767e+003,7.820398e-003
2.354696e+003,8.036137e-003
2.356624e+003,7.954266e-003
2.358552e+003,7.876472e-003
2.360481e+003,7.842866e-003
2.362409e+003,7.626075e-003
2.364338e+003,7.590436e-003
2.366267e+003,7.664636e-003
2.368195e+003,7.663835e-003
2.370124e+003,7.719935e-003
2.372052e+003,7.632481e-003
2.373980e+003,7.535207e-003
2.375909e+003,7.802166e-003
2.377838e+003,7.904555e-003
2.379766e+003,7.974165e-003
2.381695e+003,8.046615e-003
2.383623e+003,8.060480e-003
2.385552e+003,8.049575e-003
2.387480e+003,7.989586e-003
2.389408e+003,7.966991e-003
2.391337e+003,8.043232e-003
2.393266e+003,7.979779e-003
2.395194e+003,7.951088e-003
2.397123e+003,7.959894e-003
2.399051e+003,7.994617e-003
2.400979e+003,8.152261e-003
2.402908e+003,8.204224e-003
2.404836e+003,8.155738e-003
2.406765e+003,8.212935e-003
2.408694e+003,8.249776e-003
2.410622e+003,8.347921e-003
2.412551e+003,8.428724e-003
2.414479e+003,8.399231e-003
2.416407e+003,8.283884e-003
2.418336e+003,8.336065e-003
2.420264e+003,8.463758e-003
2.422193e+003,8.480854e-003
2.424122e+003,8.482274e-003
2.426050e+003,8.375180e-003
2.427979e+003,8.384503e-003
2.429907e+003,8.488930e-003
2.431835e+003,8.412845e-003
2.433764e+003,8.221276e-003
2.435692e+003,8.244778e-003
2.437621e+003,8.306749e-003
2.439550e+003,8.284121e-003
2.441478e+003,8.180453e-003
2.443406e+003,8.139870e-003
2.445335e+003,8.117690e-003
2.447263e+003,8.014602e-003
2.449192e+003,8.007109e-003
2.451121e+003,8.005557e-003
2.453049e+003,8.036911e-003
2.454978e+003,7.993373e-003
2.456906e+003,8.017505e-003
2.458834e+003,8.052033e-003
2.460763e+003,8.074176e-003
2.462691e+003,8.124037e-003
2.464620e+003,7.982911e-003
2.466549e+003,7.928309e-003
2.468477e+003,7.870171e-003
2.470406e+003,7.895746e-003
2.472334e+003,7.976161e-003
2.474262e+003,8.022702e-003
2.476191e+003,8.073536e-003
2.478119e+003,7.951964e-003
2.480048e+003,7.819260e-003
2.481977e+003,7.850973e-003
2.483905e+003,8.024221e-003
2.485833e+003,8.144563e-003
2.487762e+003,8.020508e-003
2.489690e+003,7.950513e-003
2.491619e+003,8.050953e-003
2.493547e+003,8.255956e-003
2.495476e+003,8.199868e-003
2.497405e+003,8.003836e-003
2.499333e+003,8.157426e-003
2.501261e+003,8.195546e-003
2.503190e+003,8.026820e-003
2.505118e+003,7.938196e-003
2.507047e+003,7.992428e-003
2.508975e+003,7.967555e-003
2.510904e+003,7.954732e-003
2.512833e+003,8.085316e-003
2.514761e+003,8.143314e-003
2.516689e+003,8.030668e-003
2.518618e+003,8.007683e-003
2.520546e+003,8.132139e-003
2.522475e+003,8.211652e-003
2.524403e+003,8.180994e-003
2.526332e+003,8.194905e-003
2.528260e+003,8.183154e-003
2.530189e+003,8.120188e-003
2.532117e+003,8.069417e-003
2.534046e+003,8.123565e-003
2.535974e+003,8.244238e-003
2.537903e+003,8.383727e-003
2.539831e+003,8.416156e-003
2.541760e+003,8.353596e-003
2.543688e+003,8.274564e-003
2.545617e+003,8.309991e-003
2.547545e+003,8.410279e-003
2.549474e+003,8.415616e-003
2.551402e+003,8.444298e-003
2.553331e+003,8.568204e-003
2.555259e+003,8.605818e-003
2.557188e+003,8.520219e-003
2.559116e+003,8.469773e-003
2.561045e+003,8.483625e-003
2.562973e+003,8.547387e-003
2.564902e+003,8.548401e-003
2.566830e+003,8.553639e-003
2.568759e+003,8.709013e-003
2.570687e+003,8.784744e-003
2.572616e+003,8.738358e-003
2.574544e+003,8.734604e-003
2.576473e+003,8.772369e-003
2.578401e+003,8.836783e-003
2.580330e+003,8.838303e-003
2.582258e+003,8.770239e-003
2.584187e+003,8.827212e-003
2.586115e+003,8.830965e-003
2.588044e+003,8.844458e-003
2.589972e+003,8.917236e-003
2.591901e+003,8.864512e-003
2.593829e+003,8.832893e-003
2.595758e+003,8.798572e-003
2.597686e+003,8.900664e-003
2.599615e+003,8.939424e-003
2.601543e+003,8.895556e-003
2.603472e+003,8.825387e-003
2.605400e+003,8.846385e-003
2.607329e+003,8.932760e-003
2.609257e+003,8.884227e-003
2.611186e+003,8.825860e-003
2.613114e+003,8.846182e-003
2.615043e+003,8.899480e-003
2.616971e+003,8.943752e-003
2.618900e+003,8.994964e-003
2.620828e+003,8.949672e-003
2.622757e+003,8.963100e-003
2.624685e+003,8.986033e-003
2.626614e+003,8.984174e-003
2.628542e+003,9.009510e-003
2.630471e+003,9.061271e-003
2.632399e+003,9.087391e-003
2.634328e+003,9.131412e-003
2.636256e+003,9.100451e-003
2.638185e+003,9.142951e-003
2.640113e+003,9.206268e-003
2.642042e+003,9.212225e-003
2.643970e+003,9.209416e-003
2.645899e+003,9.276940e-003
2.647827e+003,9.331577e-003
2.649756e+003,9.355952e-003
2.651684e+003,9.384222e-003
2.653613e+003,9.472871e-003
2.655541e+003,9.562893e-003
2.657470e+003,9.618344e-003
2.659398e+003,9.595580e-003
2.661327e+003,9.552596e-003
2.663255e+003,9.624002e-003
2.665184e+003,9.715613e-003
2.667112e+003,9.735910e-003
2.669041e+003,9.722390e-003
2.670969e+003,9.753429e-003
2.672898e+003,9.778540e-003
2.674826e+003,9.818970e-003
2.676755e+003,9.844491e-003
2.678683e+003,9.826867e-003
2.680612e+003,9.797891e-003
2.682540e+003,9.860863e-003
2.684469e+003,9.914318e-003
2.686397e+003,9.926217e-003
2.688326e+003,9.953100e-003
2.690254e+003,9.936489e-003
2.692183e+003,9.905844e-003
2.694111e+003,9.927675e-003
2.696040e+003,9.950117e-003
2.697968e+003,1.000552e-002
2.699897e+003,1.001315e-002
2.701825e+003,9.948999e-003
2.703754e+003,9.949303e-003
2.705682e+003,9.942659e-003
2.707611e+003,9.914115e-003
2.709539e+003,9.901911e-003
2.711468e+003,9.934387e-003
2.713396e+003,9.926828e-003
2.715325e+003,9.874488e-003
2.717253e+003,9.852694e-003
2.719182e+003,9.893403e-003
2.721110e+003,9.909301e-003
2.723039e+003,9.940320e-003
2.724967e+003,9.910996e-003
2.726896e+003,9.898183e-003
2.728824e+003,9.927132e-003
2.730753e+003,9.967713e-003
2.732681e+003,9.917776e-003
2.734610e+003,9.892691e-003
2.736538e+003,9.910014e-003
2.738467e+003,9.920217e-003
2.740395e+003,9.915810e-003
2.742324e+003,9.931810e-003
2.744252e+003,9.963984e-003
2.746181e+003,9.980325e-003
2.748109e+003,9.963238e-003
2.750038e+003,9.959237e-003
2.751966e+003,9.968831e-003
2.753895e+003,9.997108e-003
2.755823e+003,9.995786e-003
2.757752e+003,9.999583e-003
2.759680e+003,9.985072e-003
2.761609e+003,9.987818e-003
2.763537e+003,9.965238e-003
2.765466e+003,9.975104e-003
2.767394e+003,1.003675e-002
2.769323e+003,1.009972e-002
2.771251e+003,1.008032e-002
2.773180e+003,1.003458e-002
2.775108e+003,1.007089e-002
2.777037e+003,1.008741e-002
2.778965e+003,1.013106e-002
2.780894e+003,1.015585e-002
2.782822e+003,1.016080e-002
2.784750e+003,1.013343e-002
2.786679e+003,1.013628e-002
2.788608e+003,1.015188e-002
2.790536e+003,1.024140e-002
2.792465e+003,1.027641e-002
2.794393e+003,1.026606e-002
2.796322e+003,1.022342e-002
2.798250e+003,1.024214e-002
2.800178e+003,1.029046e-002
2.802107e+003,1.027560e-002
2.804036e+003,1.030902e-002
2.805964e+003,1.035998e-002
2.807893e+003,1.038648e-002
2.809821e+003,1.041333e-002
2.811750e+003,1.043821e-002
2.813678e+003,1.050467e-002
2.815606e+003,1.053664e-002
2.817535e+003,1.056295e-002
2.819464e+003,1.060862e-002
2.821392e+003,1.062590e-002
2.823321e+003,1.061880e-002
2.825249e+003,1.067446e-002
2.827177e+003,1.076996e-002
2.829106e+003,1.081772e-002
2.831034e+003,1.085244e-002
2.832963e+003,1.088974e-002
2.834892e+003,1.094373e-002
2.836820e+003,1.104680e-002
2.838749e+003,1.109347e-002
2.840677e+003,1.112257e-002
2.842605e+003,1.125775e-002
2.844534e+003,1.138977e-002
2.846462e+003,1.147563e-002
2.848391e+003,1.159878e-002
2.850320e+003,1.167525e-002
2.852248e+003,1.169278e-002
2.854177e+003,1.176365e-002
2.856105e+003,1.182081e-002
2.858033e+003,1.182276e-002
2.859962e+003,1.183900e-002
2.861890e+003,1.181789e-002
2.863819e+003,1.183638e-002
2.865748e+003,1.191848e-002
2.867676e+003,1.205339e-002
2.869604e+003,1.212405e-002
2.871533e+003,1.210364e-002
2.873461e+003,1.213151e-002
2.875390e+003,1.213683e-002
2.877319e+003,1.219322e-002
2.879247e+003,1.222325e-002
2.881176e+003,1.221551e-002
2.883104e+003,1.219588e-002
2.885032e+003,1.220498e-002
2.886961e+003,1.219469e-002
2.888889e+003,1.224857e-002
2.890818e+003,1.229209e-002
2.892747e+003,1.236736e-002
2.894675e+003,1.242201e-002
2.896604e+003,1.242846e-002
2.898532e+003,1.241496e-002
2.900460e+003,1.238962e-002
2.902389e+003,1.237496e-002
2.904317e+003,1.240387e-002
2.906246e+003,1.244455e-002
2.908175e+003,1.248878e-002
2.910103e+003,1.248677e-002
2.912031e+003,1.255320e-002
2.913960e+003,1.261770e-002
2.915888e+003,1.262592e-002
2.917817e+003,1.263646e-002
2.919745e+003,1.264632e-002
2.921674e+003,1.265338e-002
2.923603e+003,1.263083e-002
2.925531e+003,1.260491e-002
2.927459e+003,1.250150e-002
2.929388e+003,1.240800e-002
2.931316e+003,1.231258e-002
2.933245e+003,1.226530e-002
2.935173e+003,1.223348e-002
2.937102e+003,1.218946e-002
2.939031e+003,1.210235e-002
2.940959e+003,1.202758e-002
2.942887e+003,1.195031e-002
2.944816e+003,1.183523e-002
2.946744e+003,1.176218e-002
2.948673e+003,1.175541e-002
2.950601e+003,1.163695e-002
2.952530e+003,1.147216e-002
2.954458e+003,1.150581e-002
2.956387e+003,1.151355e-002
2.958315e+003,1.144178e-002
2.960244e+003,1.137509e-002
2.962172e+003,1.134690e-002
2.964101e+003,1.126024e-002
2.966029e+003,1.122807e-002
2.967958e+003,1.116674e-002
2.969886e+003,1.115790e-002
2.971815e+003,1.106429e-002
2.973743e+003,1.104282e-002
2.975672e+003,1.100800e-002
2.977600e+003,1.089858e-002
2.979529e+003,1.079240e-002
2.981457e+003,1.073543e-002
2.983386e+003,1.070513e-002
2.985314e+003,1.068854e-002
2.987243e+003,1.065129e-002
2.989171e+003,1.064538e-002
2.991100e+003,1.064803e-002
2.993028e+003,1.061775e-002
2.994957e+003,1.062760e-002
2.996885e+003,1.067550e-002
2.998814e+003,1.062830e-002
3.000742e+003,1.061617e-002
3.002671e+003,1.064781e-002
3.004599e+003,1.070234e-002
3.006528e+003,1.066575e-002
3.008456e+003,1.068297e-002
3.010385e+003,1.074354e-002
3.012313e+003,1.076047e-002
3.014242e+003,1.075571e-002
3.016170e+003,1.076342e-002
3.018099e+003,1.076774e-002
3.020027e+003,1.078168e-002
3.021956e+003,1.083331e-002
3.023884e+003,1.089349e-002
3.025813e+003,1.094455e-002
3.027741e+003,1.090692e-002
3.029670e+003,1.092778e-002
3.031598e+003,1.094154e-002
3.033527e+003,1.098015e-002
3.035455e+003,1.095787e-002
3.037384e+003,1.096678e-002
3.039312e+003,1.101625e-002
3.041241e+003,1.108428e-002
3.043169e+003,1.115758e-002
3.045098e+003,1.121116e-002
3.047026e+003,1.121871e-002
3.048955e+003,1.117986e-002
3.050883e+003,1.119512e-002
3.052812e+003,1.123467e-002
3.054740e+003,1.130061e-002
3.056669e+003,1.138115e-002
3.058597e+003,1.145896e-002
3.060526e+003,1.149263e-002
3.062454e+003,1.150662e-002
3.064383e+003,1.149547e-002
3.066311e+003,1.154975e-002
3.068240e+003,1.161145e-002
3.070168e+003,1.169454e-002
3.072097e+003,1.171111e-002
3.074025e+003,1.173576e-002
3.075954e+003,1.172412e-002
3.077882e+003,1.177465e-002
3.079811e+003,1.178976e-002
3.081739e+003,1.180176e-002
3.083668e+003,1.184919e-002
3.085596e+003,1.187732e-002
3.087525e+003,1.191311e-002
3.089453e+003,1.197301e-002
3.091382e+003,1.203430e-002
3.093310e+003,1.200162e-002
3.095239e+003,1.205979e-002
3.097167e+003,1.203366e-002
3.099096e+003,1.200918e-002
3.101024e+003,1.212469e-002
3.102953e+003,1.222676e-002
3.104881e+003,1.220268e-002
3.106810e+003,1.222980e-002
3.108738e+003,1.221716e-002
3.110667e+003,1.222799e-002
3.112595e+003,1.235221e-002
3.114524e+003,1.245136e-002
3.116452e+003,1.246631e-002
3.118381e+003,1.251488e-002
3.120309e+003,1.254496e-002
3.122238e+003,1.257001e-002
3.124166e+003,1.265877e-002
3.126095e+003,1.268627e-002
3.128023e+003,1.272814e-002
3.129952e+003,1.273822e-002
3.131880e+003,1.277885e-002
3.133809e+003,1.285869e-002
3.135737e+003,1.290531e-002
3.137666e+003,1.291981e-002
3.139594e+003,1.291392e-002
3.141523e+003,1.299704e-002
3.143451e+003,1.306550e-002
3.145380e+003,1.303538e-002
3.147308e+003,1.309652e-002
3.149237e+003,1.331978e-002
3.151165e+003,1.341212e-002
3.153094e+003,1.345454e-002
3.155022e+003,1.347597e-002
3.156951e+003,1.350640e-002
3.158879e+003,1.357126e-002
3.160808e+003,1.363835e-002
3.162736e+003,1.368826e-002
3.164665e+003,1.379289e-002
3.166593e+003,1.382776e-002
3.168522e+003,1.381545e-002
3.170450e+003,1.390340e-002
3.172379e+003,1.402693e-002
3.174307e+003,1.405323e-002
3.176236e+003,1.409939e-002
3.178164e+003,1.412591e-002
3.180093e+003,1.416525e-002
3.182021e+003,1.421412e-002
3.183950e+003,1.421033e-002
3.185878e+003,1.426739e-002
3.187807e+003,1.442159e-002
3.189735e+003,1.451521e-002
3.191664e+003,1.455471e-002
3.193592e+003,1.458908e-002
3.195521e+003,1.460199e-002
3.197449e+003,1.468108e-002
3.199378e+003,1.469476e-002
3.201306e+003,1.474056e-002
3.203235e+003,1.492347e-002
3.205163e+003,1.503978e-002
3.207092e+003,1.508442e-002
3.209020e+003,1.513419e-002
3.210948e+003,1.515265e-002
3.212877e+003,1.521881e-002
3.214806e+003,1.530722e-002
3.216734e+003,1.536518e-002
3.218663e+003,1.541872e-002
3.220591e+003,1.546849e-002
3.222520e+003,1.554856e-002
3.224448e+003,1.566778e-002
3.226376e+003,1.577434e-002
3.228305e+003,1.575377e-002
3.230234e+003,1.581569e-002
3.232162e+003,1.589351e-002
3.234091e+003,1.590444e-002
3.236019e+003,1.598832e-002
3.237948e+003,1.614498e-002
3.239876e+003,1.619021e-002
3.241804e+003,1.626615e-002
3.243733e+003,1.636386e-002
3.245662e+003,1.645140e-002
3.247590e+003,1.659098e-002
3.249519e+003,1.666456e-002
3.251447e+003,1.670117e-002
3.253375e+003,1.670869e-002
3.255304e+003,1.674199e-002
3.257232e+003,1.683635e-002
3.259161e+003,1.699586e-002
3.261090e+003,1.712791e-002
3.263018e+003,1.722475e-002
3.264947e+003,1.721220e-002
3.266875e+003,1.717963e-002
3.268803e+003,1.721896e-002
3.270732e+003,1.737490e-002
3.272660e+003,1.746750e-002
3.274589e+003,1.746568e-002
3.276518e+003,1.753958e-002
3.278446e+003,1.762185e-002
3.280375e+003,1.759869e-002
3.282303e+003,1.762531e-002
3.284231e+003,1.765513e-002
3.286160e+003,1.764758e-002
3.288088e+003,1.766044e-002
3.290017e+003,1.770135e-002
3.291946e+003,1.772177e-002
3.293874e+003,1.774380e-002
3.295802e+003,1.773661e-002
3.297731e+003,1.779223e-002
3.299659e+003,1.778266e-002
3.301588e+003,1.771579e-002
3.303516e+003,1.772261e-002
3.305445e+003,1.784917e-002
3.307374e+003,1.790050e-002
3.309302e+003,1.790270e-002
3.311230e+003,1.789001e-002
3.313159e+003,1.794801e-002
3.315087e+003,1.789827e-002
3.317016e+003,1.791021e-002
3.318944e+003,1.791920e-002
3.320873e+003,1.793876e-002
3.322802e+003,1.794036e-002
3.324730e+003,1.799793e-002
3.326658e+003,1.800939e-002
3.328587e+003,1.803527e-002
3.330515e+003,1.803547e-002
3.332444e+003,1.809571e-002
3.334372e+003,1.811927e-002
3.336301e+003,1.810635e-002
3.338229e+003,1.807067e-002
3.340158e+003,1.805116e-002
3.342086e+003,1.805816e-002
3.344015e+003,1.795670e-002
3.345943e+003,1.785119e-002
3.347872e+003,1.786238e-002
3.349800e+003,1.785423e-002
3.351729e+003,1.785480e-002
3.353657e+003,1.778554e-002
3.355586e+003,1.770888e-002
3.357514e+003,1.769442e-002
3.359443e+003,1.769302e-002
3.361371e+003,1.766354e-002
3.363300e+003,1.768441e-002
3.365229e+003,1.760105e-002
3.367157e+003,1.753167e-002
3.369085e+003,1.753372e-002
3.371014e+003,1.747326e-002
3.372942e+003,1.747908e-002
3.374871e+003,1.748530e-002
3.376799e+003,1.733988e-002
3.378728e+003,1.722413e-002
3.380656e+003,1.721499e-002
3.382585e+003,1.725345e-002
3.384513e+003,1.719501e-002
3.386442e+003,1.712125e-002
3.388370e+003,1.711538e-002
3.390299e+003,1.712319e-002
3.392227e+003,1.705302e-002
3.394156e+003,1.697688e-002
3.396084e+003,1.692948e-002
3.398013e+003,1.693496e-002
3.399941e+003,1.687143e-002
3.401870e+003,1.674926e-002
3.403798e+003,1.667155e-002
3.405727e+003,1.659594e-002
3.407655e+003,1.661912e-002
3.409584e+003,1.659169e-002
3.411512e+003,1.637734e-002
3.413441e+003,1.633013e-002
3.415369e+003,1.635177e-002
3.417298e+003,1.626261e-002
3.419226e+003,1.615555e-002
3.421155e+003,1.606716e-002
3.423083e+003,1.600120e-002
3.425012e+003,1.589028e-002
3.426940e+003,1.581589e-002
3.428869e+003,1.573660e-002
3.430797e+003,1.560535e-002
3.432726e+003,1.554022e-002
3.434654e+003,1.551620e-002
3.436583e+003,1.538110e-002
3.438511e+003,1.530810e-002
3.440440e+003,1.523558e-002
3.442368e+003,1.512842e-002
3.444297e+003,1.502505e-002
3.446225e+003,1.499233e-002
3.448154e+003,1.484058e-002
3.450082e+003,1.475348e-002
3.452011e+003,1.463860e-002
3.453939e+003,1.460990e-002
3.455868e+003,1.453111e-002
3.457796e+003,1.443721e-002
3.459725e+003,1.429176e-002
3.461653e+003,1.413450e-002
3.463582e+003,1.403187e-002
3.465510e+003,1.390426e-002
3.467439e+003,1.383226e-002
3.469367e+003,1.386196e-002
3.471296e+003,1.373244e-002
3.473224e+003,1.357373e-002
3.475153e+003,1.347889e-002
3.477081e+003,1.339980e-002
3.479010e+003,1.337585e-002
3.480938e+003,1.330540e-002
3.482867e+003,1.326413e-002
3.484795e+003,1.314674e-002
3.486724e+003,1.295436e-002
3.488652e+003,1.283168e-002
3.490581e+003,1.277555e-002
3.492509e+003,1.272163e-002
3.494438e+003,1.269363e-002
3.496366e+003,1.256517e-002
3.498295e+003,1.251756e-002
3.500223e+003,1.238352e-002
3.502152e+003,1.227896e-002
3.504080e+003,1.224626e-002
3.506009e+003,1.215312e-002
3.507937e+003,1.206599e-002
3.509866e+003,1.195707e-002
3.511794e+003,1.187725e-002
3.513723e+003,1.189340e-002
3.515651e+003,1.187738e-002
3.517580e+003,1.179900e-002
3.519508e+003,1.163158e-002
3.521437e+003,1.150868e-002
3.523365e+003,1.138674e-002
3.525294e+003,1.126642e-002
3.527222e+003,1.129140e-002
3.529151e+003,1.129679e-002
3.531079e+003,1.116118e-002
3.533008e+003,1.109962e-002
3.534936e+003,1.104578e-002
3.536865e+003,1.105038e-002
3.538793e+003,1.100701e-002
3.540722e+003,1.086696e-002
3.542650e+003,1.074156e-002
3.544579e+003,1.072129e-002
3.546507e+003,1.071108e-002
3.548436e+003,1.061738e-002
3.550364e+003,1.046950e-002
3.552293e+003,1.045016e-002
3.554221e+003,1.036992e-002
3.556150e+003,1.031375e-002
3.558078e+003,1.039114e-002
3.560007e+003,1.038026e-002
3.561935e+003,1.025864e-002
3.563864e+003,1.011786e-002
3.565792e+003,1.003642e-002
3.567721e+003,1.004631e-002
3.569649e+003,1.000054e-002
3.571578e+003,9.901060e-003
3.573506e+003,9.816539e-003
3.575435e+003,9.737662e-003
3.577363e+003,9.701307e-003
3.579292e+003,9.669482e-003
3.581220e+003,9.747265e-003
3.583149e+003,9.932237e-003
3.585077e+003,1.007044e-002
3.587006e+003,1.005120e-002
3.588934e+003,1.002788e-002
3.590863e+003,1.015237e-002
3.592791e+003,1.014252e-002
3.594720e+003,1.008806e-002
3.596648e+003,1.004934e-002
3.598577e+003,1.000834e-002
3.600505e+003,9.882719e-003
3.602434e+003,9.867223e-003
3.604362e+003,9.779315e-003
3.606291e+003,9.494184e-003
3.608219e+003,9.261145e-003
3.610148e+003,9.090622e-003
3.612076e+003,8.813573e-003
3.614005e+003,8.767141e-003
3.615933e+003,8.837494e-003
3.617862e+003,9.126899e-003
3.619790e+003,9.399050e-003
3.621719e+003,9.543036e-003
3.623647e+003,9.551330e-003
3.625576e+003,9.493195e-003
3.627504e+003,9.360652e-003
3.629433e+003,9.226401e-003
3.631361e+003,9.075062e-003
3.633290e+003,8.882659e-003
3.635218e+003,8.746928e-003
3.637146e+003,8.628865e-003
3.639075e+003,8.454910e-003
3.641004e+003,8.331969e-003
3.642932e+003,8.273013e-003
3.644861e+003,8.147431e-003
3.646789e+003,7.996546e-003
3.648718e+003,8.051967e-003
3.650646e+003,8.088736e-003
3.652574e+003,7.964908e-003
3.654503e+003,7.865604e-003
3.656432e+003,7.884906e-003
3.658360e+003,7.951681e-003
3.660289e+003,7.920240e-003
3.662217e+003,7.877905e-003
3.664146e+003,7.850759e-003
3.666074e+003,7.858738e-003
3.668002e+003,7.806559e-003
3.669931e+003,7.857317e-003
3.671860e+003,7.930439e-003
3.673788e+003,7.887520e-003
3.675717e+003,7.936270e-003
3.677645e+003,8.091052e-003
3.679573e+003,8.164505e-003
3.681502e+003,8.118925e-003
3.683430e+003,8.257897e-003
3.685359e+003,8.324995e-003
3.687288e+003,8.501607e-003
3.689216e+003,8.677145e-003
3.691145e+003,8.749510e-003
3.693073e+003,8.992724e-003
3.695001e+003,9.186403e-003
3.696930e+003,9.322132e-003
3.698858e+003,9.403191e-003
3.700787e+003,9.385140e-003
3.702716e+003,9.314379e-003
3.704644e+003,9.250906e-003
3.706573e+003,9.105165e-003
3.708501e+003,8.985540e-003
3.710429e+003,8.862597e-003
3.712358e+003,8.585399e-003
3.714286e+003,8.311343e-003
3.716215e+003,8.439405e-003
3.718144e+003,8.836258e-003
3.720072e+003,9.087563e-003
3.722000e+003,9.375156e-003
3.723929e+003,9.619942e-003
3.725857e+003,9.808633e-003
3.727786e+003,9.939440e-003
3.729714e+003,9.830110e-003
3.731643e+003,9.721649e-003
3.733572e+003,9.514407e-003
3.735500e+003,9.229913e-003
3.737428e+003,9.001169e-003
3.739357e+003,8.859082e-003
3.741285e+003,8.756791e-003
3.743214e+003,8.570367e-003
3.745142e+003,8.414011e-003
3.747071e+003,8.213041e-003
3.749000e+003,8.059750e-003
3.750928e+003,8.021687e-003
3.752856e+003,8.076934e-003
3.754785e+003,7.993349e-003
3.756713e+003,8.024929e-003
3.758642e+003,8.056723e-003
3.760570e+003,8.072952e-003
3.762499e+003,8.024656e-003
3.764427e+003,8.062433e-003
3.766356e+003,8.108174e-003
3.768284e+003,8.156318e-003
3.770213e+003,8.129660e-003
3.772141e+003,8.120940e-003
3.774070e+003,8.240472e-003
3.775998e+003,8.247173e-003
3.777927e+003,8.242364e-003
3.779855e+003,8.277897e-003
3.781784e+003,8.303548e-003
3.783712e+003,8.351031e-003
3.785641e+003,8.330075e-003
3.787569e+003,8.268883e-003
3.789498e+003,8.234012e-003
3.791426e+003,8.241628e-003
3.793355e+003,8.255203e-003
3.795283e+003,8.288234e-003
3.797212e+003,8.395245e-003
3.799140e+003,8.395313e-003
3.801069e+003,8.290798e-003
3.802997e+003,8.293524e-003
3.804926e+003,8.381004e-003
3.806854e+003,8.486316e-003
3.808783e+003,8.471716e-003
3.810711e+003,8.374474e-003
3.812640e+003,8.402938e-003
3.814568e+003,8.437362e-003
3.816497e+003,8.506433e-003
3.818425e+003,8.475806e-003
3.820354e+003,8.381014e-003
3.822282e+003,8.396340e-003
3.824211e+003,8.381006e-003
3.826139e+003,8.338506e-003
3.828068e+003,8.353053e-003
3.829996e+003,8.422069e-003
3.831925e+003,8.546796e-003
3.833853e+003,8.550521e-003
3.835782e+003,8.516615e-003
3.837710e+003,8.574038e-003
3.839639e+003,8.429425e-003
3.841567e+003,8.423035e-003
3.843496e+003,8.557402e-003
3.845424e+003,8.486666e-003
3.847353e+003,8.398635e-003
3.849281e+003,8.342519e-003
3.851210e+003,8.395720e-003
3.853138e+003,8.456517e-003
3.855067e+003,8.477406e-003
3.856995e+003,8.456115e-003
3.858924e+003,8.484663e-003
3.860852e+003,8.430531e-003
3.862781e+003,8.445386e-003
3.864709e+003,8.523320e-003
3.866638e+003,8.577396e-003
3.868566e+003,8.571173e-003
3.870495e+003,8.585227e-003
3.872423e+003,8.543019e-003
3.874352e+003,8.503761e-003
3.876280e+003,8.493928e-003
3.878209e+003,8.532013e-003
3.880137e+003,8.520935e-003
3.882066e+003,8.507837e-003
3.883994e+003,8.484187e-003
3.885923e+003,8.542919e-003
3.887851e+003,8.546821e-003
3.889780e+003,8.482464e-003
3.891708e+003,8.427945e-003
3.893637e+003,8.476858e-003
3.895565e+003,8.487775e-003
3.897494e+003,8.426215e-003
3.899422e+003,8.391173e-003
3.901351e+003,8.459816e-003
3.903279e+003,8.444786e-003
3.905208e+003,8.471749e-003
3.907136e+003,8.573477e-003
3.909065e+003,8.598127e-003
3.910993e+003,8.599637e-003
3.912922e+003,8.640378e-003
3.914850e+003,8.604744e-003
3.916779e+003,8.571787e-003
3.918707e+003,8.606486e-003
3.920636e+003,8.595726e-003
3.922564e+003,8.553411e-003
3.924493e+003,8.486703e-003
3.926421e+003,8.495731e-003
3.928350e+003,8.577053e-003
3.930278e+003,8.590518e-003
3.932207e+003,8.572671e-003
3.934135e+003,8.544692e-003
3.936064e+003,8.565891e-003
3.937992e+003,8.598089e-003
3.939921e+003,8.519172e-003
3.941849e+003,8.544941e-003
3.943778e+003,8.648642e-003
3.945706e+003,8.664411e-003
3.947635e+003,8.667516e-003
3.949563e+003,8.651841e-003
3.951492e+003,8.665364e-003
3.953420e+003,8.647461e-003
3.955349e+003,8.629525e-003
3.957277e+003,8.674684e-003
3.959206e+003,8.637146e-003
3.961134e+003,8.571682e-003
3.963063e+003,8.569813e-003
3.964991e+003,8.599452e-003
3.966920e+003,8.662182e-003
3.968848e+003,8.644983e-003
3.970777e+003,8.673853e-003
3.972705e+003,8.658148e-003
3.974634e+003,8.637591e-003
3.976562e+003,8.590857e-003
3.978491e+003,8.538361e-003
3.980419e+003,8.521601e-003
3.982348e+003,8.611153e-003
3.984276e+003,8.661244e-003
3.986205e+003,8.653519e-003
3.988133e+003,8.641241e-003
3.990062e+003,8.602416e-003
3.991990e+003,8.638719e-003
3.993919e+003,8.667182e-003
3.995847e+003,8.623921e-003
3.997776e+003,8.630957e-003
3.999704e+003,8.631065e-003
4.001633e+003,0.000000e+000
