3.991989e+002,4.004954e-002
4.011274e+002,3.918791e-002
4.030559e+002,3.918791e-002
4.049844e+002,4.144704e-002
4.069129e+002,4.142004e-002
4.088414e+002,4.057107e-002
4.107699e+002,3.934613e-002
4.126984e+002,3.981277e-002
4.146269e+002,3.979024e-002
4.165554e+002,4.006051e-002
4.184839e+002,4.023246e-002
4.204124e+002,3.954068e-002
4.223409e+002,3.947927e-002
4.242694e+002,3.975929e-002
4.261979e+002,4.043526e-002
4.281264e+002,4.096873e-002
4.300549e+002,4.125380e-002
4.319834e+002,4.136530e-002
4.339119e+002,4.090371e-002
4.358404e+002,4.042561e-002
4.377689e+002,4.045215e-002
4.396974e+002,4.097321e-002
4.416259e+002,4.118732e-002
4.435544e+002,4.074132e-002
4.454829e+002,4.095239e-002
4.474114e+002,4.065006e-002
4.493399e+002,4.014107e-002
4.512684e+002,4.042785e-002
4.531969e+002,4.068902e-002
4.551254e+002,4.137867e-002
4.570539e+002,4.125673e-002
4.589824e+002,4.093997e-002
4.609109e+002,4.037701e-002
4.628394e+002,4.039701e-002
4.647679e+002,4.059222e-002
4.666964e+002,4.000550e-002
4.686249e+002,3.984463e-002
4.705533e+002,3.987341e-002
4.724819e+002,3.992873e-002
4.744103e+002,4.037013e-002
4.763389e+002,4.040520e-002
4.782673e+002,3.920835e-002
4.801959e+002,3.892387e-002
4.821243e+002,3.889763e-002
4.840529e+002,3.865618e-002
4.859813e+002,3.862428e-002
4.879099e+002,3.866497e-002
4.898383e+002,3.881545e-002
4.917668e+002,3.833666e-002
4.936953e+002,3.845434e-002
4.956238e+002,3.841790e-002
4.975523e+002,3.859584e-002
4.994808e+002,3.840969e-002
5.014093e+002,3.828841e-002
5.033378e+002,3.826653e-002
5.052663e+002,3.828148e-002
5.071948e+002,3.838364e-002
5.091233e+002,3.878267e-002
5.110518e+002,3.862337e-002
5.129803e+002,3.861573e-002
5.149088e+002,3.930821e-002
5.168373e+002,3.953062e-002
5.187658e+002,3.964552e-002
5.206943e+002,3.998761e-002
5.226228e+002,4.004423e-002
5.245513e+002,3.988925e-002
5.264798e+002,4.031924e-002
5.284083e+002,4.094169e-002
5.303368e+002,4.069822e-002
5.322653e+002,4.013047e-002
5.341938e+002,4.026344e-002
5.361223e+002,4.020490e-002
5.380508e+002,3.999013e-002
5.399792e+002,3.988761e-002
5.419078e+002,3.997920e-002
5.438363e+002,3.982284e-002
5.457648e+002,3.952409e-002
5.476932e+002,3.972586e-002
5.496218e+002,4.008834e-002
5.515503e+002,4.011237e-002
5.534788e+002,4.018125e-002
5.554072e+002,4.057366e-002
5.573358e+002,4.113028e-002
5.592643e+002,4.145480e-002
5.611927e+002,4.153695e-002
5.631212e+002,4.128687e-002
5.650497e+002,4.060644e-002
5.669783e+002,4.014317e-002
5.689067e+002,3.979758e-002
5.708352e+002,3.966950e-002
5.727637e+002,3.960897e-002
5.746923e+002,3.942139e-002
5.766207e+002,3.914861e-002
5.785492e+002,3.888898e-002
5.804777e+002,3.873205e-002
5.824063e+002,3.853168e-002
5.843347e+002,3.836143e-002
5.862632e+002,3.836321e-002
5.881917e+002,3.797216e-002
5.901202e+002,3.755076e-002
5.920487e+002,3.774164e-002
5.939772e+002,3.800708e-002
5.959057e+002,3.791912e-002
5.978342e+002,3.780338e-002
5.997627e+002,3.741349e-002
6.016912e+002,3.746213e-002
6.036197e+002,3.737464e-002
6.055482e+002,3.726733e-002
6.074767e+002,3.718758e-002
6.094052e+002,3.720962e-002
6.113337e+002,3.677260e-002
6.132622e+002,3.625635e-002
6.151907e+002,3.582690e-002
6.171192e+002,3.541897e-002
6.190477e+002,3.530820e-002
6.209762e+002,3.505619e-002
6.229047e+002,3.451547e-002
6.248332e+002,3.385956e-002
6.267617e+002,3.314101e-002
6.286902e+002,3.273645e-002
6.306187e+002,3.252592e-002
6.325472e+002,3.241401e-002
6.344756e+002,3.215517e-002
6.364042e+002,3.172708e-002
6.383326e+002,3.154694e-002
6.402612e+002,3.115805e-002
6.421896e+002,3.088185e-002
6.441182e+002,3.080270e-002
6.460466e+002,3.053595e-002
6.479752e+002,3.020484e-002
6.499036e+002,3.008876e-002
6.518322e+002,2.983899e-002
6.537606e+002,2.964263e-002
6.556891e+002,2.988388e-002
6.576177e+002,2.996010e-002
6.595461e+002,2.969649e-002
6.614746e+002,2.965660e-002
6.634031e+002,2.984270e-002
6.653317e+002,2.987638e-002
6.672601e+002,2.967491e-002
6.691886e+002,2.956653e-002
6.711171e+002,2.933259e-002
6.730457e+002,2.881337e-002
6.749741e+002,2.822566e-002
6.769026e+002,2.783664e-002
6.788311e+002,2.746818e-002
6.807596e+002,2.692509e-002
6.826881e+002,2.647164e-002
6.846166e+002,2.607350e-002
6.865451e+002,2.580395e-002
6.884736e+002,2.561681e-002
6.904021e+002,2.570519e-002
6.923306e+002,2.557640e-002
6.942591e+002,2.540953e-002
6.961876e+002,2.527907e-002
6.981161e+002,2.515635e-002
7.000446e+002,2.490278e-002
7.019731e+002,2.477415e-002
7.039016e+002,2.452368e-002
7.058301e+002,2.431342e-002
7.077585e+002,2.416772e-002
7.096871e+002,2.403485e-002
7.116156e+002,2.380313e-002
7.135441e+002,2.356630e-002
7.154725e+002,2.344508e-002
7.174011e+002,2.329092e-002
7.193296e+002,2.305812e-002
7.212581e+002,2.288524e-002
7.231865e+002,2.265183e-002
7.251151e+002,2.241883e-002
7.270436e+002,2.217137e-002
7.289720e+002,2.199536e-002
7.309005e+002,2.167648e-002
7.328290e+002,2.143331e-002
7.347576e+002,2.124739e-002
7.366860e+002,2.114119e-002
7.386145e+002,2.091768e-002
7.405430e+002,2.081016e-002
7.424716e+002,2.063783e-002
7.444000e+002,2.044951e-002
7.463285e+002,2.028313e-002
7.482570e+002,2.018317e-002
7.501855e+002,1.997539e-002
7.521140e+002,1.980582e-002
7.540425e+002,1.970766e-002
7.559710e+002,1.953742e-002
7.578995e+002,1.928778e-002
7.598280e+002,1.909552e-002
7.617565e+002,1.890008e-002
7.636850e+002,1.888420e-002
7.656135e+002,1.884011e-002
7.675420e+002,1.864942e-002
7.694705e+002,1.863890e-002
7.713990e+002,1.864423e-002
7.733275e+002,1.852658e-002
7.752560e+002,1.843081e-002
7.771844e+002,1.837425e-002
7.791130e+002,1.839178e-002
7.810415e+002,1.826359e-002
7.829700e+002,1.814584e-002
7.848984e+002,1.797551e-002
7.868270e+002,1.792033e-002
7.887555e+002,1.794550e-002
7.906840e+002,1.786388e-002
7.926124e+002,1.768145e-002
7.945410e+002,1.762920e-002
7.964695e+002,1.761109e-002
7.983979e+002,1.760812e-002
8.003264e+002,1.758362e-002
8.022549e+002,1.760370e-002
8.041835e+002,1.758966e-002
8.061119e+002,1.749844e-002
8.080404e+002,1.746316e-002
8.099689e+002,1.743508e-002
8.118975e+002,1.726310e-002
8.138259e+002,1.715072e-002
8.157545e+002,1.714276e-002
8.176830e+002,1.709216e-002
8.196115e+002,1.686311e-002
8.215399e+002,1.684385e-002
8.234684e+002,1.688047e-002
8.253970e+002,1.682584e-002
8.273254e+002,1.673382e-002
8.292539e+002,1.668371e-002
8.311824e+002,1.671023e-002
8.331110e+002,1.670637e-002
8.350394e+002,1.656109e-002
8.369679e+002,1.644754e-002
8.388964e+002,1.635763e-002
8.408250e+002,1.631727e-002
8.427534e+002,1.627390e-002
8.446819e+002,1.614891e-002
8.466104e+002,1.604524e-002
8.485389e+002,1.604706e-002
8.504674e+002,1.602660e-002
8.523959e+002,1.597074e-002
8.543244e+002,1.598879e-002
8.562529e+002,1.596544e-002
8.581814e+002,1.584738e-002
8.601099e+002,1.602454e-002
8.620384e+002,1.608216e-002
8.639669e+002,1.606724e-002
8.658954e+002,1.607257e-002
8.678239e+002,1.615716e-002
8.697524e+002,1.619523e-002
8.716809e+002,1.621088e-002
8.736094e+002,1.624541e-002
8.755378e+002,1.627696e-002
8.774664e+002,1.645941e-002
8.793949e+002,1.663283e-002
8.813234e+002,1.677528e-002
8.832518e+002,1.692246e-002
8.851804e+002,1.701456e-002
8.871089e+002,1.719260e-002
8.890374e+002,1.752518e-002
8.909658e+002,1.793984e-002
8.928943e+002,1.833230e-002
8.948229e+002,1.857437e-002
8.967513e+002,1.874001e-002
8.986798e+002,1.880264e-002
9.006083e+002,1.866602e-002
9.025369e+002,1.846628e-002
9.044653e+002,1.826197e-002
9.063938e+002,1.810825e-002
9.083223e+002,1.785031e-002
9.102509e+002,1.766740e-002
9.121793e+002,1.754274e-002
9.141078e+002,1.755985e-002
9.160364e+002,1.756706e-002
9.179648e+002,1.764246e-002
9.198933e+002,1.776912e-002
9.218218e+002,1.792081e-002
9.237504e+002,1.807277e-002
9.256788e+002,1.820830e-002
9.276073e+002,1.833354e-002
9.295358e+002,1.850407e-002
9.314644e+002,1.878655e-002
9.333928e+002,1.908645e-002
9.353213e+002,1.937991e-002
9.372498e+002,1.963165e-002
9.391783e+002,1.991590e-002
9.411068e+002,2.033160e-002
9.430353e+002,2.079421e-002
9.449637e+002,2.126994e-002
9.468923e+002,2.170704e-002
9.488208e+002,2.221522e-002
9.507493e+002,2.276810e-002
9.526777e+002,2.320056e-002
9.546063e+002,2.368191e-002
9.565348e+002,2.427002e-002
9.584633e+002,2.487969e-002
9.603917e+002,2.548229e-002
9.623203e+002,2.612122e-002
9.642488e+002,2.671144e-002
9.661772e+002,2.733923e-002
9.681057e+002,2.803894e-002
9.700343e+002,2.867938e-002
9.719628e+002,2.932892e-002
9.738912e+002,3.003852e-002
9.758197e+002,3.083567e-002
9.777483e+002,3.174128e-002
9.796768e+002,3.271302e-002
9.816052e+002,3.378079e-002
9.835337e+002,3.495415e-002
9.854623e+002,3.614800e-002
9.873907e+002,3.724867e-002
9.893192e+002,3.816010e-002
9.912477e+002,3.883181e-002
9.931763e+002,3.940812e-002
9.951047e+002,3.985076e-002
9.970332e+002,4.030534e-002
9.989617e+002,4.086340e-002
1.000890e+003,4.146698e-002
1.002819e+003,4.206925e-002
1.004747e+003,4.282032e-002
1.006676e+003,4.367058e-002
1.008604e+003,4.435627e-002
1.010533e+003,4.508781e-002
1.012461e+003,4.597041e-002
1.014390e+003,4.698736e-002
1.016318e+003,4.805107e-002
1.018247e+003,4.910990e-002
1.020175e+003,5.019959e-002
1.022104e+003,5.131558e-002
1.024032e+003,5.252182e-002
1.025961e+003,5.372955e-002
1.027889e+003,5.499398e-002
1.029818e+003,5.621253e-002
1.031746e+003,5.736516e-002
1.033675e+003,5.827275e-002
1.035603e+003,5.876145e-002
1.037532e+003,5.871548e-002
1.039460e+003,5.831371e-002
1.041389e+003,5.774126e-002
1.043317e+003,5.714624e-002
1.045246e+003,5.677395e-002
1.047174e+003,5.660469e-002
1.049103e+003,5.644536e-002
1.051031e+003,5.631011e-002
1.052960e+003,5.616724e-002
1.054888e+003,5.593264e-002
1.056817e+003,5.539844e-002
1.058745e+003,5.478869e-002
1.060674e+003,5.405350e-002
1.062602e+003,5.314716e-002
1.064531e+003,5.207371e-002
1.066459e+003,5.090271e-002
1.068388e+003,4.982632e-002
1.070316e+003,4.881097e-002
1.072245e+003,4.789688e-002
1.074173e+003,4.704024e-002
1.076102e+003,4.610090e-002
1.078030e+003,4.505959e-002
1.079959e+003,4.399305e-002
1.081887e+003,4.296855e-002
1.083816e+003,4.211646e-002
1.085744e+003,4.135294e-002
1.087673e+003,4.072084e-002
1.089601e+003,4.021609e-002
1.091530e+003,3.970987e-002
1.093458e+003,3.920960e-002
1.095387e+003,3.874638e-002
1.097315e+003,3.845225e-002
1.099244e+003,3.817294e-002
1.101172e+003,3.795177e-002
1.103101e+003,3.777173e-002
1.105029e+003,3.746879e-002
1.106958e+003,3.701703e-002
1.108886e+003,3.645740e-002
1.110815e+003,3.574653e-002
1.112743e+003,3.483343e-002
1.114672e+003,3.378602e-002
1.116600e+003,3.285548e-002
1.118529e+003,3.192518e-002
1.120457e+003,3.109314e-002
1.122386e+003,3.030877e-002
1.124314e+003,2.947918e-002
1.126243e+003,2.853782e-002
1.128171e+003,2.762646e-002
1.130100e+003,2.674101e-002
1.132028e+003,2.591967e-002
1.133957e+003,2.517018e-002
1.135885e+003,2.453173e-002
1.137814e+003,2.406390e-002
1.139742e+003,2.379617e-002
1.141671e+003,2.371361e-002
1.143599e+003,2.377339e-002
1.145528e+003,2.392520e-002
1.147456e+003,2.409798e-002
1.149385e+003,2.423726e-002
1.151313e+003,2.450999e-002
1.153242e+003,2.477848e-002
1.155170e+003,2.502912e-002
1.157099e+003,2.516863e-002
1.159027e+003,2.523268e-002
1.160956e+003,2.517850e-002
1.162884e+003,2.482366e-002
1.164813e+003,2.426392e-002
1.166741e+003,2.349405e-002
1.168670e+003,2.251618e-002
1.170598e+003,2.144257e-002
1.172526e+003,2.039904e-002
1.174455e+003,1.935843e-002
1.176384e+003,1.844989e-002
1.178312e+003,1.766192e-002
1.180240e+003,1.694740e-002
1.182169e+003,1.640198e-002
1.184098e+003,1.598164e-002
1.186026e+003,1.560851e-002
1.187954e+003,1.536905e-002
1.189883e+003,1.526925e-002
1.191812e+003,1.526081e-002
1.193740e+003,1.535172e-002
1.195668e+003,1.553120e-002
1.197597e+003,1.576056e-002
1.199526e+003,1.596086e-002
1.201454e+003,1.609486e-002
1.203382e+003,1.621360e-002
1.205311e+003,1.626607e-002
1.207240e+003,1.624782e-002
1.209168e+003,1.630853e-002
1.211096e+003,1.638733e-002
1.213025e+003,1.647937e-002
1.214953e+003,1.661230e-002
1.216882e+003,1.680623e-002
1.218810e+003,1.697802e-002
1.220739e+003,1.717882e-002
1.222667e+003,1.739635e-002
1.224596e+003,1.760141e-002
1.226524e+003,1.782446e-002
1.228453e+003,1.806030e-002
1.230381e+003,1.827268e-002
1.232310e+003,1.843136e-002
1.234238e+003,1.853291e-002
1.236167e+003,1.860459e-002
1.238095e+003,1.864911e-002
1.240024e+003,1.865348e-002
1.241952e+003,1.864538e-002
1.243881e+003,1.865860e-002
1.245809e+003,1.859691e-002
1.247738e+003,1.849196e-002
1.249666e+003,1.837187e-002
1.251595e+003,1.820830e-002
1.253523e+003,1.810138e-002
1.255452e+003,1.794835e-002
1.257380e+003,1.774451e-002
1.259309e+003,1.755311e-002
1.261237e+003,1.732130e-002
1.263166e+003,1.704066e-002
1.265094e+003,1.677664e-002
1.267023e+003,1.653046e-002
1.268951e+003,1.627668e-002
1.270880e+003,1.606640e-002
1.272808e+003,1.587448e-002
1.274737e+003,1.560585e-002
1.276665e+003,1.535384e-002
1.278594e+003,1.518517e-002
1.280522e+003,1.505383e-002
1.282451e+003,1.491775e-002
1.284379e+003,1.476435e-002
1.286308e+003,1.455992e-002
1.288236e+003,1.436891e-002
1.290165e+003,1.424701e-002
1.292093e+003,1.417216e-002
1.294022e+003,1.416328e-002
1.295950e+003,1.420488e-002
1.297879e+003,1.427639e-002
1.299807e+003,1.434349e-002
1.301736e+003,1.446719e-002
1.303664e+003,1.467632e-002
1.305593e+003,1.492588e-002
1.307521e+003,1.513675e-002
1.309450e+003,1.530213e-002
1.311378e+003,1.546081e-002
1.313307e+003,1.561103e-002
1.315235e+003,1.576078e-002
1.317164e+003,1.578301e-002
1.319092e+003,1.570945e-002
1.321021e+003,1.565115e-002
1.322949e+003,1.554500e-002
1.324878e+003,1.544610e-002
1.326806e+003,1.537652e-002
1.328735e+003,1.533490e-002
1.330663e+003,1.528824e-002
1.332592e+003,1.523120e-002
1.334520e+003,1.522436e-002
1.336449e+003,1.521114e-002
1.338377e+003,1.511231e-002
1.340306e+003,1.499276e-002
1.342234e+003,1.490001e-002
1.344163e+003,1.482061e-002
1.346091e+003,1.476135e-002
1.348020e+003,1.473058e-002
1.349948e+003,1.474814e-002
1.351877e+003,1.485775e-002
1.353805e+003,1.493623e-002
1.355734e+003,1.500661e-002
1.357662e+003,1.513163e-002
1.359591e+003,1.522666e-002
1.361519e+003,1.537024e-002
1.363448e+003,1.553745e-002
1.365376e+003,1.564544e-002
1.367305e+003,1.575837e-002
1.369233e+003,1.586110e-002
1.371162e+003,1.586289e-002
1.373090e+003,1.582215e-002
1.375019e+003,1.571155e-002
1.376947e+003,1.552194e-002
1.378876e+003,1.536464e-002
1.380804e+003,1.518497e-002
1.382733e+003,1.489747e-002
1.384661e+003,1.462630e-002
1.386590e+003,1.444964e-002
1.388518e+003,1.432556e-002
1.390447e+003,1.419758e-002
1.392375e+003,1.406816e-002
1.394304e+003,1.396623e-002
1.396232e+003,1.392431e-002
1.398161e+003,1.392041e-002
1.400089e+003,1.392030e-002
1.402018e+003,1.396596e-002
1.403946e+003,1.400150e-002
1.405875e+003,1.401089e-002
1.407803e+003,1.404645e-002
1.409732e+003,1.412974e-002
1.411660e+003,1.418701e-002
1.413589e+003,1.423466e-002
1.415517e+003,1.428852e-002
1.417446e+003,1.437741e-002
1.419374e+003,1.445550e-002
1.421303e+003,1.448632e-002
1.423231e+003,1.447520e-002
1.425160e+003,1.444935e-002
1.427088e+003,1.441339e-002
1.429017e+003,1.433817e-002
1.430945e+003,1.423134e-002
1.432874e+003,1.412831e-002
1.434802e+003,1.402200e-002
1.436731e+003,1.390311e-002
1.438659e+003,1.376522e-002
1.440588e+003,1.366061e-002
1.442516e+003,1.365104e-002
1.444445e+003,1.367493e-002
1.446373e+003,1.364770e-002
1.448302e+003,1.362530e-002
1.450230e+003,1.363229e-002
1.452159e+003,1.360473e-002
1.454087e+003,1.349747e-002
1.456016e+003,1.340240e-002
1.457944e+003,1.328593e-002
1.459873e+003,1.314330e-002
1.461801e+003,1.305042e-002
1.463730e+003,1.290101e-002
1.465658e+003,1.274093e-002
1.467587e+003,1.247091e-002
1.469515e+003,1.209274e-002
1.471444e+003,1.171257e-002
1.473372e+003,1.137185e-002
1.475301e+003,1.106090e-002
1.477229e+003,1.083020e-002
1.479158e+003,1.065862e-002
1.481086e+003,1.059765e-002
1.483015e+003,1.060942e-002
1.484943e+003,1.063181e-002
1.486872e+003,1.066484e-002
1.488800e+003,1.072375e-002
1.490729e+003,1.087549e-002
1.492657e+003,1.104430e-002
1.494586e+003,1.129262e-002
1.496514e+003,1.160714e-002
1.498443e+003,1.182322e-002
1.500371e+003,1.206735e-002
1.502300e+003,1.235935e-002
1.504228e+003,1.263588e-002
1.506157e+003,1.284804e-002
1.508085e+003,1.305935e-002
1.510014e+003,1.318757e-002
1.511942e+003,1.329236e-002
1.513871e+003,1.337335e-002
1.515799e+003,1.336347e-002
1.517728e+003,1.330663e-002
1.519656e+003,1.319519e-002
1.521585e+003,1.307097e-002
1.523513e+003,1.301479e-002
1.525442e+003,1.294610e-002
1.527370e+003,1.292414e-002
1.529299e+003,1.300009e-002
1.531227e+003,1.301988e-002
1.533156e+003,1.302075e-002
1.535084e+003,1.308062e-002
1.537013e+003,1.311107e-002
1.538941e+003,1.314612e-002
1.540870e+003,1.308758e-002
1.542798e+003,1.302441e-002
1.544727e+003,1.294251e-002
1.546655e+003,1.287313e-002
1.548584e+003,1.275632e-002
1.550512e+003,1.262585e-002
1.552441e+003,1.252064e-002
1.554369e+003,1.246926e-002
1.556298e+003,1.234334e-002
1.558226e+003,1.222900e-002
1.560155e+003,1.219023e-002
1.562083e+003,1.208459e-002
1.564012e+003,1.198344e-002
1.565940e+003,1.196175e-002
1.567869e+003,1.193517e-002
1.569797e+003,1.194634e-002
1.571726e+003,1.204032e-002
1.573654e+003,1.210882e-002
1.575583e+003,1.219761e-002
1.577511e+003,1.231124e-002
1.579440e+003,1.241196e-002
1.581368e+003,1.255363e-002
1.583297e+003,1.273721e-002
1.585225e+003,1.289731e-002
1.587154e+003,1.303150e-002
1.589082e+003,1.320598e-002
1.591010e+003,1.341867e-002
1.592939e+003,1.361733e-002
1.594868e+003,1.375651e-002
1.596796e+003,1.390119e-002
1.598724e+003,1.407578e-002
1.600653e+003,1.420433e-002
1.602582e+003,1.430699e-002
1.604510e+003,1.442201e-002
1.606438e+003,1.451370e-002
1.608367e+003,1.463543e-002
1.610296e+003,1.474622e-002
1.612224e+003,1.487773e-002
1.614152e+003,1.510802e-002
1.616081e+003,1.547875e-002
1.618010e+003,1.578743e-002
1.619938e+003,1.611554e-002
1.621866e+003,1.646248e-002
1.623795e+003,1.674653e-002
1.625724e+003,1.698235e-002
1.627652e+003,1.714833e-002
1.629580e+003,1.724408e-002
1.631509e+003,1.725511e-002
1.633438e+003,1.718657e-002
1.635366e+003,1.705748e-002
1.637294e+003,1.703653e-002
1.639223e+003,1.695074e-002
1.641151e+003,1.691005e-002
1.643080e+003,1.680845e-002
1.645008e+003,1.673272e-002
1.646937e+003,1.664217e-002
1.648865e+003,1.660568e-002
1.650794e+003,1.653966e-002
1.652722e+003,1.643678e-002
1.654651e+003,1.630994e-002
1.656579e+003,1.610146e-002
1.658508e+003,1.589653e-002
1.660436e+003,1.559794e-002
1.662365e+003,1.526945e-002
1.664293e+003,1.495748e-002
1.666222e+003,1.459586e-002
1.668150e+003,1.424495e-002
1.670079e+003,1.389900e-002
1.672007e+003,1.357554e-002
1.673936e+003,1.320758e-002
1.675864e+003,1.290666e-002
1.677793e+003,1.260840e-002
1.679721e+003,1.228172e-002
1.681650e+003,1.192933e-002
1.683578e+003,1.165286e-002
1.685507e+003,1.144768e-002
1.687435e+003,1.114228e-002
1.689364e+003,1.087048e-002
1.691292e+003,1.062827e-002
1.693221e+003,1.035062e-002
1.695149e+003,1.018934e-002
1.697078e+003,9.992259e-003
1.699006e+003,9.643573e-003
1.700935e+003,9.418577e-003
1.702863e+003,9.214769e-003
1.704792e+003,9.066132e-003
1.706720e+003,8.940620e-003
1.708649e+003,8.921059e-003
1.710577e+003,8.893268e-003
1.712506e+003,8.902444e-003
1.714434e+003,8.887620e-003
1.716363e+003,8.853766e-003
1.718291e+003,8.853061e-003
1.720220e+003,8.878415e-003
1.722148e+003,8.902012e-003
1.724077e+003,8.901185e-003
1.726005e+003,8.830896e-003
1.727934e+003,8.770217e-003
1.729862e+003,8.712682e-003
1.731791e+003,8.692278e-003
1.733719e+003,8.622845e-003
1.735648e+003,8.546840e-003
1.737576e+003,8.381435e-003
1.739505e+003,8.234295e-003
1.741433e+003,8.120246e-003
1.743362e+003,7.991699e-003
1.745290e+003,7.829227e-003
1.747219e+003,7.583562e-003
1.749147e+003,7.379783e-003
1.751076e+003,7.231996e-003
1.753004e+003,7.029678e-003
1.754933e+003,6.856405e-003
1.756861e+003,6.738129e-003
1.758790e+003,6.633331e-003
1.760718e+003,6.508810e-003
1.762647e+003,6.429489e-003
1.764575e+003,6.333779e-003
1.766504e+003,6.211305e-003
1.768432e+003,6.122150e-003
1.770361e+003,6.086785e-003
1.772289e+003,6.132939e-003
1.774218e+003,6.102488e-003
1.776146e+003,6.056410e-003
1.778075e+003,6.081326e-003
1.780003e+003,6.088874e-003
1.781932e+003,6.136131e-003
1.783860e+003,6.120066e-003
1.785789e+003,6.076319e-003
1.787717e+003,6.006522e-003
1.789646e+003,6.006744e-003
1.791574e+003,6.058670e-003
1.793503e+003,6.065199e-003
1.795431e+003,6.046706e-003
1.797360e+003,6.037793e-003
1.799288e+003,6.059383e-003
1.801217e+003,6.064163e-003
1.803145e+003,6.045714e-003
1.805074e+003,6.055071e-003
1.807002e+003,6.074075e-003
1.808931e+003,6.000551e-003
1.810859e+003,5.935923e-003
1.812788e+003,6.013505e-003
1.814716e+003,6.042831e-003
1.816645e+003,5.991357e-003
1.818573e+003,5.858203e-003
1.820502e+003,5.840519e-003
1.822430e+003,5.879979e-003
1.824359e+003,5.950085e-003
1.826287e+003,5.960270e-003
1.828216e+003,5.826817e-003
1.830144e+003,5.763473e-003
1.832073e+003,5.818047e-003
1.834001e+003,5.850042e-003
1.835930e+003,5.795395e-003
1.837858e+003,5.803459e-003
1.839787e+003,5.813825e-003
1.841715e+003,5.724159e-003
1.843644e+003,5.754129e-003
1.845572e+003,5.817667e-003
1.847501e+003,5.813069e-003
1.849429e+003,5.761460e-003
1.851358e+003,5.715363e-003
1.853286e+003,5.693315e-003
1.855215e+003,5.696902e-003
1.857143e+003,5.676731e-003
1.859072e+003,5.792795e-003
1.861000e+003,5.768041e-003
1.862929e+003,5.646730e-003
1.864857e+003,5.500806e-003
1.866786e+003,5.504318e-003
1.868714e+003,5.435227e-003
1.870643e+003,5.475622e-003
1.872571e+003,5.588287e-003
1.874500e+003,5.482428e-003
1.876428e+003,5.494946e-003
1.878357e+003,5.506247e-003
1.880285e+003,5.504033e-003
1.882214e+003,5.514801e-003
1.884142e+003,5.634905e-003
1.886071e+003,5.705891e-003
1.887999e+003,5.592943e-003
1.889928e+003,5.550039e-003
1.891856e+003,5.511716e-003
1.893785e+003,5.350643e-003
1.895713e+003,5.245666e-003
1.897642e+003,5.374445e-003
1.899570e+003,5.451791e-003
1.901499e+003,5.424872e-003
1.903427e+003,5.302899e-003
1.905356e+003,5.334493e-003
1.907284e+003,5.637214e-003
1.909213e+003,5.553980e-003
1.911141e+003,5.319449e-003
1.913070e+003,5.210481e-003
1.914998e+003,5.293029e-003
1.916927e+003,5.151629e-003
1.918855e+003,5.110014e-003
1.920784e+003,5.008612e-003
1.922712e+003,4.782244e-003
1.924641e+003,4.994806e-003
1.926569e+003,5.235590e-003
1.928498e+003,5.120764e-003
1.930426e+003,5.066978e-003
1.932355e+003,4.906464e-003
1.934283e+003,4.762022e-003
1.936212e+003,4.946553e-003
1.938140e+003,4.953198e-003
1.940069e+003,4.588411e-003
1.941997e+003,4.525154e-003
1.943926e+003,4.646881e-003
1.945854e+003,4.226871e-003
1.947783e+003,4.060339e-003
1.949711e+003,4.018588e-003
1.951640e+003,4.052735e-003
1.953568e+003,3.862407e-003
1.955497e+003,3.386205e-003
1.957425e+003,2.946034e-003
1.959354e+003,2.543521e-003
1.961282e+003,2.025386e-003
1.963211e+003,1.334074e-003
1.965139e+003,1.060059e-003
1.967068e+003,7.893830e-004
1.968996e+003,5.743824e-004
1.970925e+003,1.236592e-003
1.972853e+003,1.265151e-003
1.974782e+003,6.474279e-004
1.976710e+003,-7.773149e-005
1.978639e+003,-1.086141e-004
1.980567e+003,5.269682e-004
1.982496e+003,9.447733e-004
1.984424e+003,2.025225e-003
1.986353e+003,2.770368e-003
1.988281e+003,2.487374e-003
1.990210e+003,2.279593e-003
1.992138e+003,2.520925e-003
1.994067e+003,2.589129e-003
1.995995e+003,3.132702e-003
1.997924e+003,3.420243e-003
1.999852e+003,2.343673e-003
2.001781e+003,2.317685e-003
2.003709e+003,2.003655e-003
2.005638e+003,1.790798e-003
2.007566e+003,1.260471e-003
2.009495e+003,2.751524e-004
2.011423e+003,4.889253e-004
2.013352e+003,9.664146e-004
2.015280e+003,9.589164e-004
2.017208e+003,8.209713e-004
2.019137e+003,3.601644e-004
2.021066e+003,8.973664e-004
2.022994e+003,1.741464e-003
2.024922e+003,1.790705e-003
2.026851e+003,1.848607e-003
2.028780e+003,9.213504e-004
2.030708e+003,1.258346e-003
2.032636e+003,6.700371e-004
2.034565e+003,2.970146e-004
2.036494e+003,5.071091e-004
2.038422e+003,1.653006e-003
2.040350e+003,2.168129e-003
2.042279e+003,1.792290e-003
2.044208e+003,2.252365e-003
2.046136e+003,2.008207e-003
2.048064e+003,2.636850e-003
2.049993e+003,3.232484e-003
2.051921e+003,3.146035e-003
2.053850e+003,3.152742e-003
2.055778e+003,4.024598e-003
2.057707e+003,4.231239e-003
2.059635e+003,4.232404e-003
2.061564e+003,4.305060e-003
2.063492e+003,4.131789e-003
2.065421e+003,4.075709e-003
2.067349e+003,4.333596e-003
2.069278e+003,4.253261e-003
2.071206e+003,4.567364e-003
2.073135e+003,4.760917e-003
2.075063e+003,4.699785e-003
2.076992e+003,4.750683e-003
2.078920e+003,5.075345e-003
2.080849e+003,5.189399e-003
2.082777e+003,5.126233e-003
2.084706e+003,5.008927e-003
2.086634e+003,5.260134e-003
2.088563e+003,5.334571e-003
2.090491e+003,5.229702e-003
2.092420e+003,5.326613e-003
2.094348e+003,5.281300e-003
2.096277e+003,5.008038e-003
2.098205e+003,4.923255e-003
2.100134e+003,5.197099e-003
2.102062e+003,5.570213e-003
2.103991e+003,5.752525e-003
2.105919e+003,5.668392e-003
2.107848e+003,5.564474e-003
2.109776e+003,5.520880e-003
2.111705e+003,5.874624e-003
2.113633e+003,6.119899e-003
2.115562e+003,5.961451e-003
2.117490e+003,5.923393e-003
2.119419e+003,6.005492e-003
2.121347e+003,6.071344e-003
2.123276e+003,6.129880e-003
2.125204e+003,5.811253e-003
2.127133e+003,5.754640e-003
2.129061e+003,5.377410e-003
2.130990e+003,5.276882e-003
2.132918e+003,5.257798e-003
2.134847e+003,5.379490e-003
2.136775e+003,5.280403e-003
2.138704e+003,4.978755e-003
2.140632e+003,5.156359e-003
2.142561e+003,4.811776e-003
2.144489e+003,4.195119e-003
2.146418e+003,3.796377e-003
2.148346e+003,4.288637e-003
2.150275e+003,4.079846e-003
2.152203e+003,3.560227e-003
2.154132e+003,2.309742e-003
2.156060e+003,7.223592e-004
2.157989e+003,-8.002445e-004
2.159917e+003,-1.949565e-003
2.161846e+003,-6.596486e-005
2.163774e+003,9.307710e-004
2.165703e+003,1.357068e-003
2.167631e+003,2.499222e-003
2.169560e+003,4.374712e-003
2.171488e+003,4.247714e-003
2.173417e+003,3.873194e-003
2.175345e+003,3.708444e-003
2.177274e+003,3.506011e-003
2.179202e+003,3.250189e-003
2.181131e+003,3.587487e-003
2.183059e+003,4.062287e-003
2.184988e+003,3.825190e-003
2.186916e+003,3.320432e-003
2.188845e+003,3.735481e-003
2.190773e+003,5.168798e-003
2.192702e+003,5.474975e-003
2.194630e+003,6.071646e-003
2.196559e+003,6.042079e-003
2.198487e+003,5.882852e-003
2.200416e+003,5.510980e-003
2.202344e+003,5.616564e-003
2.204273e+003,5.706965e-003
2.206201e+003,5.766829e-003
2.208130e+003,5.639557e-003
2.210058e+003,5.210446e-003
2.211987e+003,5.313843e-003
2.213915e+003,5.840637e-003
2.215844e+003,5.974652e-003
2.217772e+003,6.159286e-003
2.219701e+003,6.738153e-003
2.221629e+003,6.885979e-003
2.223558e+003,6.629303e-003
2.225486e+003,6.715439e-003
2.227415e+003,6.732668e-003
2.229343e+003,6.755182e-003
2.231272e+003,6.549314e-003
2.233200e+003,6.758288e-003
2.235129e+003,7.057735e-003
2.237057e+003,6.510730e-003
2.238986e+003,6.161354e-003
2.240914e+003,6.509566e-003
2.242843e+003,6.785819e-003
2.244771e+003,6.500717e-003
2.246700e+003,6.564841e-003
2.248628e+003,6.744502e-003
2.250557e+003,6.643901e-003
2.252485e+003,6.373091e-003
2.254414e+003,6.206414e-003
2.256342e+003,6.517582e-003
2.258271e+003,6.349695e-003
2.260199e+003,6.119909e-003
2.262128e+003,6.162804e-003
2.264056e+003,6.113896e-003
2.265985e+003,6.459250e-003
2.267913e+003,6.582114e-003
2.269842e+003,6.622697e-003
2.271770e+003,6.856621e-003
2.273699e+003,7.004250e-003
2.275627e+003,6.879286e-003
2.277556e+003,6.818880e-003
2.279484e+003,6.859709e-003
2.281413e+003,7.178992e-003
2.283341e+003,7.296489e-003
2.285270e+003,7.312676e-003
2.287198e+003,7.496254e-003
2.289127e+003,7.481936e-003
2.291055e+003,7.353856e-003
2.292984e+003,7.368437e-003
2.294912e+003,7.502953e-003
2.296841e+003,7.562178e-003
2.298769e+003,7.545855e-003
2.300698e+003,7.502175e-003
2.302626e+003,7.382684e-003
2.304555e+003,7.390996e-003
2.306483e+003,7.407385e-003
2.308412e+003,7.369292e-003
2.310340e+003,7.390152e-003
2.312269e+003,7.515689e-003
2.314197e+003,7.657573e-003
2.316125e+003,7.936651e-003
2.318054e+003,8.215391e-003
2.319983e+003,8.551786e-003
2.321911e+003,8.398756e-003
2.323840e+003,8.306867e-003
2.325768e+003,8.152267e-003
2.327697e+003,8.110461e-003
2.329625e+003,8.044070e-003
2.331553e+003,8.095005e-003
2.333482e+003,7.940550e-003
2.335411e+003,7.700365e-003
2.337339e+003,7.286732e-003
2.339268e+003,7.471096e-003
2.341196e+003,7.654865e-003
2.343125e+003,7.903588e-003
2.345053e+003,7.525708e-003
2.346981e+003,7.361152e-003
2.348910e+003,7.361467e-003
2.350839e+003,7.107408e-003
2.352767e+003,7.016197e-003
2.354696e+003,7.117309e-003
2.356624e+003,7.064698e-003
2.358552e+003,7.286412e-003
2.360481e+003,7.307593e-003
2.362409e+003,7.145556e-003
2.364338e+003,7.071304e-003
2.366267e+003,7.329463e-003
2.368195e+003,7.410503e-003
2.370124e+003,7.369672e-003
2.372052e+003,7.342199e-003
2.373980e+003,7.465963e-003
2.375909e+003,7.556535e-003
2.377838e+003,7.542286e-003
2.379766e+003,7.604493e-003
2.381695e+003,7.688747e-003
2.383623e+003,7.733874e-003
2.385552e+003,7.776731e-003
2.387480e+003,7.715604e-003
2.389408e+003,7.710342e-003
2.391337e+003,7.780082e-003
2.393266e+003,7.733601e-003
2.395194e+003,7.718210e-003
2.397123e+003,7.786403e-003
2.399051e+003,7.797939e-003
2.400979e+003,7.824152e-003
2.402908e+003,7.875603e-003
2.404836e+003,8.064489e-003
2.406765e+003,8.141322e-003
2.408694e+003,8.030128e-003
2.410622e+003,8.027495e-003
2.412551e+003,8.206047e-003
2.414479e+003,8.266593e-003
2.416407e+003,8.167758e-003
2.418336e+003,8.222829e-003
2.420264e+003,8.170830e-003
2.422193e+003,8.091561e-003
2.424122e+003,8.132578e-003
2.426050e+003,8.178461e-003
2.427979e+003,8.119682e-003
2.429907e+003,8.079443e-003
2.431835e+003,8.061181e-003
2.433764e+003,7.974237e-003
2.435692e+003,7.983991e-003
2.437621e+003,7.962695e-003
2.439550e+003,7.889572e-003
2.441478e+003,7.833058e-003
2.443406e+003,7.698603e-003
2.445335e+003,7.748252e-003
2.447263e+003,7.683494e-003
2.449192e+003,7.629975e-003
2.451121e+003,7.703696e-003
2.453049e+003,7.768322e-003
2.454978e+003,7.686024e-003
2.456906e+003,7.761575e-003
2.458834e+003,7.778712e-003
2.460763e+003,7.776080e-003
2.462691e+003,7.802460e-003
2.464620e+003,7.677963e-003
2.466549e+003,7.662585e-003
2.468477e+003,7.708688e-003
2.470406e+003,7.617869e-003
2.472334e+003,7.665418e-003
2.474262e+003,7.770380e-003
2.476191e+003,7.783602e-003
2.478119e+003,7.709733e-003
2.480048e+003,7.786234e-003
2.481977e+003,7.785121e-003
2.483905e+003,7.876514e-003
2.485833e+003,7.943359e-003
2.487762e+003,7.957093e-003
2.489690e+003,7.769502e-003
2.491619e+003,7.758033e-003
2.493547e+003,7.876649e-003
2.495476e+003,7.866459e-003
2.497405e+003,7.760867e-003
2.499333e+003,7.827087e-003
2.501261e+003,7.846789e-003
2.503190e+003,7.689227e-003
2.505118e+003,7.716175e-003
2.507047e+003,7.823815e-003
2.508975e+003,7.796051e-003
2.510904e+003,7.748285e-003
2.512833e+003,7.908602e-003
2.514761e+003,7.858699e-003
2.516689e+003,7.856135e-003
2.518618e+003,7.900403e-003
2.520546e+003,7.843247e-003
2.522475e+003,7.999650e-003
2.524403e+003,8.112728e-003
2.526332e+003,8.103478e-003
2.528260e+003,8.080489e-003
2.530189e+003,7.978118e-003
2.532117e+003,7.949905e-003
2.534046e+003,8.092034e-003
2.535974e+003,8.170830e-003
2.537903e+003,8.116812e-003
2.539831e+003,8.108238e-003
2.541760e+003,8.159182e-003
2.543688e+003,8.006332e-003
2.545617e+003,8.060371e-003
2.547545e+003,8.311309e-003
2.549474e+003,8.261967e-003
2.551402e+003,8.106415e-003
2.553331e+003,8.087173e-003
2.555259e+003,8.235155e-003
2.557188e+003,8.412102e-003
2.559116e+003,8.245048e-003
2.561045e+003,8.169716e-003
2.562973e+003,8.251600e-003
2.564902e+003,8.315834e-003
2.566830e+003,8.428250e-003
2.568759e+003,8.517008e-003
2.570687e+003,8.460482e-003
2.572616e+003,8.412913e-003
2.574544e+003,8.475381e-003
2.576473e+003,8.501972e-003
2.578401e+003,8.533938e-003
2.580330e+003,8.539953e-003
2.582258e+003,8.433994e-003
2.584187e+003,8.427102e-003
2.586115e+003,8.476429e-003
2.588044e+003,8.514001e-003
2.589972e+003,8.623157e-003
2.591901e+003,8.597809e-003
2.593829e+003,8.583175e-003
2.595758e+003,8.587332e-003
2.597686e+003,8.664291e-003
2.599615e+003,8.723922e-003
2.601543e+003,8.652630e-003
2.603472e+003,8.635730e-003
2.605400e+003,8.659356e-003
2.607329e+003,8.694545e-003
2.609257e+003,8.658985e-003
2.611186e+003,8.634345e-003
2.613114e+003,8.705701e-003
2.615043e+003,8.697283e-003
2.616971e+003,8.632248e-003
2.618900e+003,8.631640e-003
2.620828e+003,8.621028e-003
2.622757e+003,8.659593e-003
2.624685e+003,8.629275e-003
2.626614e+003,8.583513e-003
2.628542e+003,8.616026e-003
2.630471e+003,8.704247e-003
2.632399e+003,8.729736e-003
2.634328e+003,8.764626e-003
2.636256e+003,8.763782e-003
2.638185e+003,8.824676e-003
2.640113e+003,8.890585e-003
2.642042e+003,8.872560e-003
2.643970e+003,8.907833e-003
2.645899e+003,9.010830e-003
2.647827e+003,9.032176e-003
2.649756e+003,9.049193e-003
2.651684e+003,9.114392e-003
2.653613e+003,9.097136e-003
2.655541e+003,9.144169e-003
2.657470e+003,9.234834e-003
2.659398e+003,9.287366e-003
2.661327e+003,9.318509e-003
2.663255e+003,9.351957e-003
2.665184e+003,9.368614e-003
2.667112e+003,9.358051e-003
2.669041e+003,9.397461e-003
2.670969e+003,9.459528e-003
2.672898e+003,9.437281e-003
2.674826e+003,9.415643e-003
2.676755e+003,9.477545e-003
2.678683e+003,9.473176e-003
2.680612e+003,9.477545e-003
2.682540e+003,9.513713e-003
2.684469e+003,9.518659e-003
2.686397e+003,9.519031e-003
2.688326e+003,9.546533e-003
2.690254e+003,9.602998e-003
2.692183e+003,9.598019e-003
2.694111e+003,9.569769e-003
2.696040e+003,9.572749e-003
2.697968e+003,9.605607e-003
2.699897e+003,9.591108e-003
2.701825e+003,9.546499e-003
2.703754e+003,9.513341e-003
2.705682e+003,9.557642e-003
2.707611e+003,9.593073e-003
2.709539e+003,9.574578e-003
2.711468e+003,9.588500e-003
2.713396e+003,9.567905e-003
2.715325e+003,9.541824e-003
2.717253e+003,9.513815e-003
2.719182e+003,9.531088e-003
2.721110e+003,9.524619e-003
2.723039e+003,9.526889e-003
2.724967e+003,9.535119e-003
2.726896e+003,9.535390e-003
2.728824e+003,9.539488e-003
2.730753e+003,9.541824e-003
2.732681e+003,9.545246e-003
2.734610e+003,9.580404e-003
2.736538e+003,9.599746e-003
2.738467e+003,9.600356e-003
2.740395e+003,9.569192e-003
2.742324e+003,9.549039e-003
2.744252e+003,9.563638e-003
2.746181e+003,9.585045e-003
2.748109e+003,9.594631e-003
2.750038e+003,9.616616e-003
2.751966e+003,9.612111e-003
2.753895e+003,9.663198e-003
2.755823e+003,9.708837e-003
2.757752e+003,9.716935e-003
2.759680e+003,9.688982e-003
2.761609e+003,9.661775e-003
2.763537e+003,9.696131e-003
2.765466e+003,9.714359e-003
2.767394e+003,9.723948e-003
2.769323e+003,9.714393e-003
2.771251e+003,9.683493e-003
2.773180e+003,9.777117e-003
2.775108e+003,9.833646e-003
2.777037e+003,9.793553e-003
2.778965e+003,9.772168e-003
2.780894e+003,9.828460e-003
2.782822e+003,9.838696e-003
2.784750e+003,9.844187e-003
2.786679e+003,9.846492e-003
2.788608e+003,9.873709e-003
2.790536e+003,9.896589e-003
2.792465e+003,9.896488e-003
2.794393e+003,9.894318e-003
2.796322e+003,9.893267e-003
2.798250e+003,9.890013e-003
2.800178e+003,9.928387e-003
2.802107e+003,1.000938e-002
2.804036e+003,1.003895e-002
2.805964e+003,1.001226e-002
2.807893e+003,1.004546e-002
2.809821e+003,1.008524e-002
2.811750e+003,1.011172e-002
2.813678e+003,1.016728e-002
2.815606e+003,1.022291e-002
2.817535e+003,1.022138e-002
2.819464e+003,1.024791e-002
2.821392e+003,1.023638e-002
2.823321e+003,1.021623e-002
2.825249e+003,1.025748e-002
2.827177e+003,1.035442e-002
2.829106e+003,1.042178e-002
2.831034e+003,1.045070e-002
2.832963e+003,1.046122e-002
2.834892e+003,1.053155e-002
2.836820e+003,1.063629e-002
2.838749e+003,1.071542e-002
2.840677e+003,1.076150e-002
2.842605e+003,1.084099e-002
2.844534e+003,1.090724e-002
2.846462e+003,1.103440e-002
2.848391e+003,1.115075e-002
2.850320e+003,1.123925e-002
2.852248e+003,1.129148e-002
2.854177e+003,1.131559e-002
2.856105e+003,1.131695e-002
2.858033e+003,1.131797e-002
2.859962e+003,1.136144e-002
2.861890e+003,1.138375e-002
2.863819e+003,1.145441e-002
2.865748e+003,1.152119e-002
2.867676e+003,1.154780e-002
2.869604e+003,1.155913e-002
2.871533e+003,1.162529e-002
2.873461e+003,1.171027e-002
2.875390e+003,1.171106e-002
2.877319e+003,1.166790e-002
2.879247e+003,1.167661e-002
2.881176e+003,1.169577e-002
2.883104e+003,1.172392e-002
2.885032e+003,1.174786e-002
2.886961e+003,1.172947e-002
2.888889e+003,1.175936e-002
2.890818e+003,1.185636e-002
2.892747e+003,1.189457e-002
2.894675e+003,1.188064e-002
2.896604e+003,1.192246e-002
2.898532e+003,1.194923e-002
2.900460e+003,1.191555e-002
2.902389e+003,1.188507e-002
2.904317e+003,1.188228e-002
2.906246e+003,1.189552e-002
2.908175e+003,1.199811e-002
2.910103e+003,1.203091e-002
2.912031e+003,1.207295e-002
2.913960e+003,1.209243e-002
2.915888e+003,1.213755e-002
2.917817e+003,1.214569e-002
2.919745e+003,1.209267e-002
2.921674e+003,1.208630e-002
2.923603e+003,1.205053e-002
2.925531e+003,1.200362e-002
2.927459e+003,1.199494e-002
2.929388e+003,1.196551e-002
2.931316e+003,1.182623e-002
2.933245e+003,1.174534e-002
2.935173e+003,1.173311e-002
2.937102e+003,1.171099e-002
2.939031e+003,1.159176e-002
2.940959e+003,1.154238e-002
2.942887e+003,1.146513e-002
2.944816e+003,1.137231e-002
2.946744e+003,1.129468e-002
2.948673e+003,1.124620e-002
2.950601e+003,1.119982e-002
2.952530e+003,1.118345e-002
2.954458e+003,1.111721e-002
2.956387e+003,1.107371e-002
2.958315e+003,1.100948e-002
2.960244e+003,1.091217e-002
2.962172e+003,1.092565e-002
2.964101e+003,1.093688e-002
2.966029e+003,1.087850e-002
2.967958e+003,1.075883e-002
2.969886e+003,1.069047e-002
2.971815e+003,1.064604e-002
2.973743e+003,1.064923e-002
2.975672e+003,1.059612e-002
2.977600e+003,1.048693e-002
2.979529e+003,1.041146e-002
2.981457e+003,1.036717e-002
2.983386e+003,1.030128e-002
2.985314e+003,1.028099e-002
2.987243e+003,1.025813e-002
2.989171e+003,1.025533e-002
2.991100e+003,1.029766e-002
2.993028e+003,1.024424e-002
2.994957e+003,1.020321e-002
2.996885e+003,1.016704e-002
2.998814e+003,1.019557e-002
3.000742e+003,1.029048e-002
3.002671e+003,1.029899e-002
3.004599e+003,1.025009e-002
3.006528e+003,1.027693e-002
3.008456e+003,1.028818e-002
3.010385e+003,1.030686e-002
3.012313e+003,1.034764e-002
3.014242e+003,1.033837e-002
3.016170e+003,1.029383e-002
3.018099e+003,1.031202e-002
3.020027e+003,1.041041e-002
3.021956e+003,1.049547e-002
3.023884e+003,1.052501e-002
3.025813e+003,1.055536e-002
3.027741e+003,1.052831e-002
3.029670e+003,1.051566e-002
3.031598e+003,1.058251e-002
3.033527e+003,1.065150e-002
3.035455e+003,1.059762e-002
3.037384e+003,1.057285e-002
3.039312e+003,1.055320e-002
3.041241e+003,1.065663e-002
3.043169e+003,1.080154e-002
3.045098e+003,1.080331e-002
3.047026e+003,1.076705e-002
3.048955e+003,1.079054e-002
3.050883e+003,1.089735e-002
3.052812e+003,1.088157e-002
3.054740e+003,1.092044e-002
3.056669e+003,1.100244e-002
3.058597e+003,1.108171e-002
3.060526e+003,1.108554e-002
3.062454e+003,1.105094e-002
3.064383e+003,1.101525e-002
3.066311e+003,1.107599e-002
3.068240e+003,1.119429e-002
3.070168e+003,1.128033e-002
3.072097e+003,1.126678e-002
3.074025e+003,1.133526e-002
3.075954e+003,1.128387e-002
3.077882e+003,1.129265e-002
3.079811e+003,1.133721e-002
3.081739e+003,1.136606e-002
3.083668e+003,1.142047e-002
3.085596e+003,1.139859e-002
3.087525e+003,1.143899e-002
3.089453e+003,1.147629e-002
3.091382e+003,1.151549e-002
3.093310e+003,1.154753e-002
3.095239e+003,1.156357e-002
3.097167e+003,1.151544e-002
3.099096e+003,1.149392e-002
3.101024e+003,1.162815e-002
3.102953e+003,1.170219e-002
3.104881e+003,1.170296e-002
3.106810e+003,1.176119e-002
3.108738e+003,1.174004e-002
3.110667e+003,1.174803e-002
3.112595e+003,1.184952e-002
3.114524e+003,1.190917e-002
3.116452e+003,1.185582e-002
3.118381e+003,1.190797e-002
3.120309e+003,1.204558e-002
3.122238e+003,1.206398e-002
3.124166e+003,1.209739e-002
3.126095e+003,1.213322e-002
3.128023e+003,1.214625e-002
3.129952e+003,1.216511e-002
3.131880e+003,1.218292e-002
3.133809e+003,1.222585e-002
3.135737e+003,1.228151e-002
3.137666e+003,1.228452e-002
3.139594e+003,1.235901e-002
3.141523e+003,1.247403e-002
3.143451e+003,1.249459e-002
3.145380e+003,1.257648e-002
3.147308e+003,1.260976e-002
3.149237e+003,1.276337e-002
3.151165e+003,1.280211e-002
3.153094e+003,1.281369e-002
3.155022e+003,1.286275e-002
3.156951e+003,1.290626e-002
3.158879e+003,1.295613e-002
3.160808e+003,1.301829e-002
3.162736e+003,1.313811e-002
3.164665e+003,1.312950e-002
3.166593e+003,1.314515e-002
3.168522e+003,1.319821e-002
3.170450e+003,1.325229e-002
3.172379e+003,1.326565e-002
3.174307e+003,1.331778e-002
3.176236e+003,1.346537e-002
3.178164e+003,1.358031e-002
3.180093e+003,1.358473e-002
3.182021e+003,1.352538e-002
3.183950e+003,1.355634e-002
3.185878e+003,1.368344e-002
3.187807e+003,1.381691e-002
3.189735e+003,1.380903e-002
3.191664e+003,1.381015e-002
3.193592e+003,1.388587e-002
3.195521e+003,1.387644e-002
3.197449e+003,1.396172e-002
3.199378e+003,1.408871e-002
3.201306e+003,1.407766e-002
3.203235e+003,1.417411e-002
3.205163e+003,1.429359e-002
3.207092e+003,1.436079e-002
3.209020e+003,1.436759e-002
3.210948e+003,1.439175e-002
3.212877e+003,1.449771e-002
3.214806e+003,1.458973e-002
3.216734e+003,1.464237e-002
3.218663e+003,1.457651e-002
3.220591e+003,1.464774e-002
3.222520e+003,1.477833e-002
3.224448e+003,1.485258e-002
3.226376e+003,1.492725e-002
3.228305e+003,1.498614e-002
3.230234e+003,1.497144e-002
3.232162e+003,1.499804e-002
3.234091e+003,1.507713e-002
3.236019e+003,1.523509e-002
3.237948e+003,1.527810e-002
3.239876e+003,1.539238e-002
3.241804e+003,1.547356e-002
3.243733e+003,1.552711e-002
3.245662e+003,1.560482e-002
3.247590e+003,1.566506e-002
3.249519e+003,1.572740e-002
3.251447e+003,1.574990e-002
3.253375e+003,1.586789e-002
3.255304e+003,1.596428e-002
3.257232e+003,1.601502e-002
3.259161e+003,1.617455e-002
3.261090e+003,1.628333e-002
3.263018e+003,1.632838e-002
3.264947e+003,1.637931e-002
3.266875e+003,1.640789e-002
3.268803e+003,1.646555e-002
3.270732e+003,1.654584e-002
3.272660e+003,1.659188e-002
3.274589e+003,1.667271e-002
3.276518e+003,1.676169e-002
3.278446e+003,1.676983e-002
3.280375e+003,1.675910e-002
3.282303e+003,1.681753e-002
3.284231e+003,1.685124e-002
3.286160e+003,1.675177e-002
3.288088e+003,1.680280e-002
3.290017e+003,1.685635e-002
3.291946e+003,1.681544e-002
3.293874e+003,1.679142e-002
3.295802e+003,1.686143e-002
3.297731e+003,1.690415e-002
3.299659e+003,1.691487e-002
3.301588e+003,1.691045e-002
3.303516e+003,1.687436e-002
3.305445e+003,1.693096e-002
3.307374e+003,1.693019e-002
3.309302e+003,1.690578e-002
3.311230e+003,1.693931e-002
3.313159e+003,1.702205e-002
3.315087e+003,1.702277e-002
3.317016e+003,1.701333e-002
3.318944e+003,1.706901e-002
3.320873e+003,1.713304e-002
3.322802e+003,1.703279e-002
3.324730e+003,1.708118e-002
3.326658e+003,1.711242e-002
3.328587e+003,1.710622e-002
3.330515e+003,1.713761e-002
3.332444e+003,1.712436e-002
3.334372e+003,1.709144e-002
3.336301e+003,1.717277e-002
3.338229e+003,1.718881e-002
3.340158e+003,1.714963e-002
3.342086e+003,1.718190e-002
3.344015e+003,1.712699e-002
3.345943e+003,1.705164e-002
3.347872e+003,1.702035e-002
3.349800e+003,1.701920e-002
3.351729e+003,1.693713e-002
3.353657e+003,1.688104e-002
3.355586e+003,1.681386e-002
3.357514e+003,1.679291e-002
3.359443e+003,1.671555e-002
3.361371e+003,1.668095e-002
3.363300e+003,1.673816e-002
3.365229e+003,1.668691e-002
3.367157e+003,1.665722e-002
3.369085e+003,1.662446e-002
3.371014e+003,1.658399e-002
3.372942e+003,1.655518e-002
3.374871e+003,1.650652e-002
3.376799e+003,1.639558e-002
3.378728e+003,1.639141e-002
3.380656e+003,1.638228e-002
3.382585e+003,1.636949e-002
3.384513e+003,1.631675e-002
3.386442e+003,1.624280e-002
3.388370e+003,1.621466e-002
3.390299e+003,1.617918e-002
3.392227e+003,1.615887e-002
3.394156e+003,1.617908e-002
3.396084e+003,1.615937e-002
3.398013e+003,1.601945e-002
3.399941e+003,1.598964e-002
3.401870e+003,1.594035e-002
3.403798e+003,1.577192e-002
3.405727e+003,1.570335e-002
3.407655e+003,1.568632e-002
3.409584e+003,1.563076e-002
3.411512e+003,1.561685e-002
3.413441e+003,1.559227e-002
3.415369e+003,1.546017e-002
3.417298e+003,1.544112e-002
3.419226e+003,1.530506e-002
3.421155e+003,1.524784e-002
3.423083e+003,1.519901e-002
3.425012e+003,1.504294e-002
3.426940e+003,1.498880e-002
3.428869e+003,1.499398e-002
3.430797e+003,1.486295e-002
3.432726e+003,1.474778e-002
3.434654e+003,1.469763e-002
3.436583e+003,1.454273e-002
3.438511e+003,1.452537e-002
3.440440e+003,1.457089e-002
3.442368e+003,1.441307e-002
3.444297e+003,1.421472e-002
3.446225e+003,1.414377e-002
3.448154e+003,1.416789e-002
3.450082e+003,1.414461e-002
3.452011e+003,1.399058e-002
3.453939e+003,1.393433e-002
3.455868e+003,1.379218e-002
3.457796e+003,1.361030e-002
3.459725e+003,1.350443e-002
3.461653e+003,1.344346e-002
3.463582e+003,1.337252e-002
3.465510e+003,1.334730e-002
3.467439e+003,1.324467e-002
3.469367e+003,1.311833e-002
3.471296e+003,1.305287e-002
3.473224e+003,1.296671e-002
3.475153e+003,1.289887e-002
3.477081e+003,1.288521e-002
3.479010e+003,1.275432e-002
3.480938e+003,1.256722e-002
3.482867e+003,1.252319e-002
3.484795e+003,1.253432e-002
3.486724e+003,1.243346e-002
3.488652e+003,1.229780e-002
3.490581e+003,1.217742e-002
3.492509e+003,1.209629e-002
3.494438e+003,1.201863e-002
3.496366e+003,1.193794e-002
3.498295e+003,1.187971e-002
3.500223e+003,1.185710e-002
3.502152e+003,1.172995e-002
3.504080e+003,1.163008e-002
3.506009e+003,1.150115e-002
3.507937e+003,1.143438e-002
3.509866e+003,1.141414e-002
3.511794e+003,1.138273e-002
3.513723e+003,1.133894e-002
3.515651e+003,1.126681e-002
3.517580e+003,1.118251e-002
3.519508e+003,1.106456e-002
3.521437e+003,1.094316e-002
3.523365e+003,1.087280e-002
3.525294e+003,1.085070e-002
3.527222e+003,1.078809e-002
3.529151e+003,1.070059e-002
3.531079e+003,1.068937e-002
3.533008e+003,1.064007e-002
3.534936e+003,1.056349e-002
3.536865e+003,1.056855e-002
3.538793e+003,1.050196e-002
3.540722e+003,1.042516e-002
3.542650e+003,1.042416e-002
3.544579e+003,1.025490e-002
3.546507e+003,1.010999e-002
3.548436e+003,1.010781e-002
3.550364e+003,9.975884e-003
3.552293e+003,9.951100e-003
3.554221e+003,9.952554e-003
3.556150e+003,9.869277e-003
3.558078e+003,9.894898e-003
3.560007e+003,9.931565e-003
3.561935e+003,9.869640e-003
3.563864e+003,9.748410e-003
3.565792e+003,9.613903e-003
3.567721e+003,9.517197e-003
3.569649e+003,9.491421e-003
3.571578e+003,9.489365e-003
3.573506e+003,9.492828e-003
3.575435e+003,9.385584e-003
3.577363e+003,9.281321e-003
3.579292e+003,9.239696e-003
3.581220e+003,9.228766e-003
3.583149e+003,9.355756e-003
3.585077e+003,9.495917e-003
3.587006e+003,9.455011e-003
3.588934e+003,9.439325e-003
3.590863e+003,9.496816e-003
3.592791e+003,9.474284e-003
3.594720e+003,9.521795e-003
3.596648e+003,9.543641e-003
3.598577e+003,9.537722e-003
3.600505e+003,9.484916e-003
3.602434e+003,9.466848e-003
3.604362e+003,9.314176e-003
3.606291e+003,9.033754e-003
3.608219e+003,8.869162e-003
3.610148e+003,8.702343e-003
3.612076e+003,8.476097e-003
3.614005e+003,8.416267e-003
3.615933e+003,8.577602e-003
3.617862e+003,8.824455e-003
3.619790e+003,9.046801e-003
3.621719e+003,9.125144e-003
3.623647e+003,9.143003e-003
3.625576e+003,9.126854e-003
3.627504e+003,9.168766e-003
3.629433e+003,8.968618e-003
3.631361e+003,8.865350e-003
3.633290e+003,8.757034e-003
3.635218e+003,8.469348e-003
3.637146e+003,8.261387e-003
3.639075e+003,8.164388e-003
3.641004e+003,8.169509e-003
3.642932e+003,7.957193e-003
3.644861e+003,7.797381e-003
3.646789e+003,7.710855e-003
3.648718e+003,7.720920e-003
3.650646e+003,7.766184e-003
3.652574e+003,7.768471e-003
3.654503e+003,7.696079e-003
3.656432e+003,7.614427e-003
3.658360e+003,7.606356e-003
3.660289e+003,7.620858e-003
3.662217e+003,7.644640e-003
3.664146e+003,7.617822e-003
3.666074e+003,7.611478e-003
3.668002e+003,7.580259e-003
3.669931e+003,7.584750e-003
3.671860e+003,7.588547e-003
3.673788e+003,7.589189e-003
3.675717e+003,7.697083e-003
3.677645e+003,7.741267e-003
3.679573e+003,7.791121e-003
3.681502e+003,7.989887e-003
3.683430e+003,8.179313e-003
3.685359e+003,8.160540e-003
3.687288e+003,8.186898e-003
3.689216e+003,8.369776e-003
3.691145e+003,8.500646e-003
3.693073e+003,8.581772e-003
3.695001e+003,8.765564e-003
3.696930e+003,8.937321e-003
3.698858e+003,8.952543e-003
3.700787e+003,9.001806e-003
3.702716e+003,9.001707e-003
3.704644e+003,8.973469e-003
3.706573e+003,8.863801e-003
3.708501e+003,8.676462e-003
3.710429e+003,8.592143e-003
3.712358e+003,8.312935e-003
3.714286e+003,8.063597e-003
3.716215e+003,8.137330e-003
3.718144e+003,8.568106e-003
3.720072e+003,8.807618e-003
3.722000e+003,8.968038e-003
3.723929e+003,9.224620e-003
3.725857e+003,9.444036e-003
3.727786e+003,9.480451e-003
3.729714e+003,9.474115e-003
3.731643e+003,9.404016e-003
3.733572e+003,9.202431e-003
3.735500e+003,8.979840e-003
3.737428e+003,8.794186e-003
3.739357e+003,8.528973e-003
3.741285e+003,8.338812e-003
3.743214e+003,8.190161e-003
3.745142e+003,8.075469e-003
3.747071e+003,7.853519e-003
3.749000e+003,7.767638e-003
3.750928e+003,7.729163e-003
3.752856e+003,7.737996e-003
3.754785e+003,7.723883e-003
3.756713e+003,7.797664e-003
3.758642e+003,7.793794e-003
3.760570e+003,7.861176e-003
3.762499e+003,7.839797e-003
3.764427e+003,7.848040e-003
3.766356e+003,7.833819e-003
3.768284e+003,7.871579e-003
3.770213e+003,7.881612e-003
3.772141e+003,7.953770e-003
3.774070e+003,7.950016e-003
3.775998e+003,7.885956e-003
3.777927e+003,8.004138e-003
3.779855e+003,8.023960e-003
3.781784e+003,8.027898e-003
3.783712e+003,8.007876e-003
3.785641e+003,7.910467e-003
3.787569e+003,7.936887e-003
3.789498e+003,7.946602e-003
3.791426e+003,7.986181e-003
3.793355e+003,8.045606e-003
3.795283e+003,8.048679e-003
3.797212e+003,8.072299e-003
3.799140e+003,8.050825e-003
3.801069e+003,7.945483e-003
3.802997e+003,7.993951e-003
3.804926e+003,8.021729e-003
3.806854e+003,8.100378e-003
3.808783e+003,8.146228e-003
3.810711e+003,8.154806e-003
3.812640e+003,8.107916e-003
3.814568e+003,8.152651e-003
3.816497e+003,8.197187e-003
3.818425e+003,8.153304e-003
3.820354e+003,8.110457e-003
3.822282e+003,8.185872e-003
3.824211e+003,8.166217e-003
3.826139e+003,8.143084e-003
3.828068e+003,8.114524e-003
3.829996e+003,8.075088e-003
3.831925e+003,8.126727e-003
3.833853e+003,8.132608e-003
3.835782e+003,8.170801e-003
3.837710e+003,8.244568e-003
3.839639e+003,8.119724e-003
3.841567e+003,8.080608e-003
3.843496e+003,8.173819e-003
3.845424e+003,8.205107e-003
3.847353e+003,8.200839e-003
3.849281e+003,8.121841e-003
3.851210e+003,8.164902e-003
3.853138e+003,8.188428e-003
3.855067e+003,8.271763e-003
3.856995e+003,8.244651e-003
3.858924e+003,8.210074e-003
3.860852e+003,8.161826e-003
3.862781e+003,8.191366e-003
3.864709e+003,8.292134e-003
3.866638e+003,8.334680e-003
3.868566e+003,8.239371e-003
3.870495e+003,8.253152e-003
3.872423e+003,8.191890e-003
3.874352e+003,8.095635e-003
3.876280e+003,8.097474e-003
3.878209e+003,8.097214e-003
3.880137e+003,8.120005e-003
3.882066e+003,8.237246e-003
3.883994e+003,8.305722e-003
3.885923e+003,8.326394e-003
3.887851e+003,8.243049e-003
3.889780e+003,8.243117e-003
3.891708e+003,8.297564e-003
3.893637e+003,8.376791e-003
3.895565e+003,8.358855e-003
3.897494e+003,8.361924e-003
3.899422e+003,8.288644e-003
3.901351e+003,8.195058e-003
3.903279e+003,8.182677e-003
3.905208e+003,8.250193e-003
3.907136e+003,8.303095e-003
3.909065e+003,8.277895e-003
3.910993e+003,8.311384e-003
3.912922e+003,8.394213e-003
3.914850e+003,8.325019e-003
3.916779e+003,8.275304e-003
3.918707e+003,8.269894e-003
3.920636e+003,8.291838e-003
3.922564e+003,8.329651e-003
3.924493e+003,8.362184e-003
3.926421e+003,8.285172e-003
3.928350e+003,8.271683e-003
3.930278e+003,8.327597e-003
3.932207e+003,8.315767e-003
3.934135e+003,8.304772e-003
3.936064e+003,8.303445e-003
3.937992e+003,8.373820e-003
3.939921e+003,8.343169e-003
3.941849e+003,8.316781e-003
3.943778e+003,8.343745e-003
3.945706e+003,8.376495e-003
3.947635e+003,8.430297e-003
3.949563e+003,8.421575e-003
3.951492e+003,8.413886e-003
3.953420e+003,8.411895e-003
3.955349e+003,8.461980e-003
3.957277e+003,8.478601e-003
3.959206e+003,8.400324e-003
3.961134e+003,8.357302e-003
3.963063e+003,8.399553e-003
3.964991e+003,8.384756e-003
3.966920e+003,8.402444e-003
3.968848e+003,8.373260e-003
3.970777e+003,8.423116e-003
3.972705e+003,8.403748e-003
3.974634e+003,8.426378e-003
3.976562e+003,8.442713e-003
3.978491e+003,8.360093e-003
3.980419e+003,8.330178e-003
3.982348e+003,8.406537e-003
3.984276e+003,8.350423e-003
3.986205e+003,8.351409e-003
3.988133e+003,8.407775e-003
3.990062e+003,8.398200e-003
3.991990e+003,8.358742e-003
3.993919e+003,8.298492e-003
3.995847e+003,8.333201e-003
3.997776e+003,8.306586e-003
3.999704e+003,8.306884e-003
4.001633e+003,0.000000e+000
