3.991989e+002,5.491907e-002
4.011274e+002,5.455036e-002
4.030559e+002,5.455036e-002
4.049844e+002,5.583399e-002
4.069129e+002,5.360699e-002
4.088414e+002,5.417957e-002
4.107699e+002,5.369718e-002
4.126984e+002,5.297288e-002
4.146269e+002,5.262424e-002
4.165554e+002,5.140205e-002
4.184839e+002,5.160052e-002
4.204124e+002,5.188313e-002
4.223409e+002,5.023925e-002
4.242694e+002,4.919947e-002
4.261979e+002,4.992609e-002
4.281264e+002,5.088726e-002
4.300549e+002,5.005937e-002
4.319834e+002,4.929256e-002
4.339119e+002,4.940343e-002
4.358404e+002,4.964093e-002
4.377689e+002,4.901584e-002
4.396974e+002,4.906032e-002
4.416259e+002,4.917860e-002
4.435544e+002,4.861119e-002
4.454829e+002,4.737839e-002
4.474114e+002,4.777491e-002
4.493399e+002,4.765781e-002
4.512684e+002,4.760225e-002
4.531969e+002,4.692652e-002
4.551254e+002,4.689327e-002
4.570539e+002,4.661005e-002
4.589824e+002,4.576445e-002
4.609109e+002,4.530759e-002
4.628394e+002,4.571312e-002
4.647679e+002,4.582337e-002
4.666964e+002,4.534196e-002
4.686249e+002,4.481194e-002
4.705533e+002,4.402854e-002
4.724819e+002,4.362333e-002
4.744103e+002,4.448911e-002
4.763389e+002,4.426859e-002
4.782673e+002,4.396378e-002
4.801959e+002,4.319155e-002
4.821243e+002,4.288354e-002
4.840529e+002,4.298870e-002
4.859813e+002,4.308118e-002
4.879099e+002,4.269741e-002
4.898383e+002,4.218216e-002
4.917668e+002,4.146021e-002
4.936953e+002,4.158516e-002
4.956238e+002,4.231143e-002
4.975523e+002,4.215118e-002
4.994808e+002,4.178799e-002
5.014093e+002,4.139346e-002
5.033378e+002,4.114383e-002
5.052663e+002,4.108194e-002
5.071948e+002,4.145427e-002
5.091233e+002,4.166729e-002
5.110518e+002,4.102517e-002
5.129803e+002,4.155473e-002
5.149088e+002,4.162481e-002
5.168373e+002,4.181011e-002
5.187658e+002,4.184932e-002
5.206943e+002,4.207623e-002
5.226228e+002,4.151670e-002
5.245513e+002,4.161181e-002
5.264798e+002,4.150572e-002
5.284083e+002,4.200958e-002
5.303368e+002,4.182784e-002
5.322653e+002,4.129712e-002
5.341938e+002,4.085115e-002
5.361223e+002,4.058784e-002
5.380508e+002,4.026868e-002
5.399792e+002,4.030698e-002
5.419078e+002,3.966419e-002
5.438363e+002,3.991263e-002
5.457648e+002,4.015857e-002
5.476932e+002,4.027649e-002
5.496218e+002,4.015051e-002
5.515503e+002,3.997861e-002
5.534788e+002,4.005421e-002
5.554072e+002,4.030994e-002
5.573358e+002,4.018980e-002
5.592643e+002,4.054183e-002
5.611927e+002,4.034736e-002
5.631212e+002,3.984366e-002
5.650497e+002,3.980710e-002
5.669783e+002,3.977315e-002
5.689067e+002,3.936709e-002
5.708352e+002,3.930228e-002
5.727637e+002,3.929191e-002
5.746923e+002,3.952017e-002
5.766207e+002,3.918800e-002
5.785492e+002,3.900123e-002
5.804777e+002,3.878364e-002
5.824063e+002,3.847150e-002
5.843347e+002,3.850188e-002
5.862632e+002,3.843578e-002
5.881917e+002,3.815488e-002
5.901202e+002,3.810232e-002
5.920487e+002,3.782433e-002
5.939772e+002,3.770552e-002
5.959057e+002,3.739110e-002
5.978342e+002,3.729425e-002
5.997627e+002,3.716239e-002
6.016912e+002,3.714515e-002
6.036197e+002,3.696496e-002
6.055482e+002,3.706612e-002
6.074767e+002,3.668119e-002
6.094052e+002,3.647605e-002
6.113337e+002,3.601142e-002
6.132622e+002,3.560293e-002
6.151907e+002,3.532046e-002
6.171192e+002,3.513886e-002
6.190477e+002,3.473109e-002
6.209762e+002,3.461185e-002
6.229047e+002,3.423215e-002
6.248332e+002,3.367928e-002
6.267617e+002,3.302591e-002
6.286902e+002,3.294079e-002
6.306187e+002,3.276330e-002
6.325472e+002,3.240782e-002
6.344756e+002,3.208635e-002
6.364042e+002,3.211079e-002
6.383326e+002,3.187334e-002
6.402612e+002,3.162766e-002
6.421896e+002,3.148285e-002
6.441182e+002,3.129861e-002
6.460466e+002,3.089247e-002
6.479752e+002,3.067741e-002
6.499036e+002,3.060308e-002
6.518322e+002,3.070197e-002
6.537606e+002,3.076039e-002
6.556891e+002,3.040377e-002
6.576177e+002,3.023093e-002
6.595461e+002,3.044719e-002
6.614746e+002,3.051925e-002
6.634031e+002,3.064105e-002
6.653317e+002,3.068509e-002
6.672601e+002,3.028763e-002
6.691886e+002,3.008821e-002
6.711171e+002,2.965716e-002
6.730457e+002,2.911636e-002
6.749741e+002,2.882844e-002
6.769026e+002,2.828995e-002
6.788311e+002,2.772027e-002
6.807596e+002,2.730724e-002
6.826881e+002,2.695278e-002
6.846166e+002,2.654271e-002
6.865451e+002,2.646651e-002
6.884736e+002,2.630580e-002
6.904021e+002,2.628222e-002
6.923306e+002,2.626467e-002
6.942591e+002,2.636175e-002
6.961876e+002,2.635004e-002
6.981161e+002,2.630888e-002
7.000446e+002,2.599813e-002
7.019731e+002,2.596313e-002
7.039016e+002,2.577168e-002
7.058301e+002,2.564518e-002
7.077585e+002,2.538194e-002
7.096871e+002,2.523171e-002
7.116156e+002,2.521924e-002
7.135441e+002,2.507715e-002
7.154725e+002,2.483452e-002
7.174011e+002,2.471618e-002
7.193296e+002,2.456678e-002
7.212581e+002,2.430116e-002
7.231865e+002,2.402164e-002
7.251151e+002,2.383743e-002
7.270436e+002,2.368542e-002
7.289720e+002,2.356588e-002
7.309005e+002,2.324373e-002
7.328290e+002,2.304684e-002
7.347576e+002,2.288910e-002
7.366860e+002,2.284680e-002
7.386145e+002,2.278799e-002
7.405430e+002,2.280434e-002
7.424716e+002,2.259234e-002
7.444000e+002,2.242719e-002
7.463285e+002,2.230590e-002
7.482570e+002,2.226210e-002
7.501855e+002,2.218633e-002
7.521140e+002,2.209602e-002
7.540425e+002,2.195465e-002
7.559710e+002,2.196791e-002
7.578995e+002,2.191705e-002
7.598280e+002,2.179197e-002
7.617565e+002,2.164943e-002
7.636850e+002,2.161269e-002
7.656135e+002,2.141858e-002
7.675420e+002,2.129151e-002
7.694705e+002,2.103763e-002
7.713990e+002,2.100260e-002
7.733275e+002,2.100751e-002
7.752560e+002,2.107755e-002
7.771844e+002,2.092485e-002
7.791130e+002,2.080707e-002
7.810415e+002,2.082504e-002
7.829700e+002,2.085417e-002
7.848984e+002,2.071604e-002
7.868270e+002,2.067205e-002
7.887555e+002,2.056298e-002
7.906840e+002,2.053029e-002
7.926124e+002,2.043391e-002
7.945410e+002,2.053168e-002
7.964695e+002,2.056517e-002
7.983979e+002,2.040869e-002
8.003264e+002,2.040501e-002
8.022549e+002,2.035608e-002
8.041835e+002,2.029310e-002
8.061119e+002,2.031240e-002
8.080404e+002,2.029330e-002
8.099689e+002,2.033782e-002
8.118975e+002,2.027567e-002
8.138259e+002,2.024557e-002
8.157545e+002,2.028803e-002
8.176830e+002,2.034007e-002
8.196115e+002,2.018510e-002
8.215399e+002,2.014164e-002
8.234684e+002,2.017503e-002
8.253970e+002,2.023849e-002
8.273254e+002,2.019676e-002
8.292539e+002,2.027553e-002
8.311824e+002,2.029039e-002
8.331110e+002,2.027945e-002
8.350394e+002,2.022103e-002
8.369679e+002,2.017451e-002
8.388964e+002,2.024481e-002
8.408250e+002,2.024619e-002
8.427534e+002,2.010409e-002
8.446819e+002,2.021762e-002
8.466104e+002,2.036237e-002
8.485389e+002,2.027230e-002
8.504674e+002,2.012634e-002
8.523959e+002,2.013519e-002
8.543244e+002,2.013012e-002
8.562529e+002,2.021249e-002
8.581814e+002,2.020131e-002
8.601099e+002,2.033685e-002
8.620384e+002,2.041432e-002
8.639669e+002,2.048222e-002
8.658954e+002,2.051265e-002
8.678239e+002,2.047725e-002
8.697524e+002,2.044745e-002
8.716809e+002,2.048798e-002
8.736094e+002,2.055961e-002
8.755378e+002,2.075087e-002
8.774664e+002,2.087621e-002
8.793949e+002,2.101450e-002
8.813234e+002,2.120546e-002
8.832518e+002,2.152887e-002
8.851804e+002,2.185541e-002
8.871089e+002,2.218279e-002
8.890374e+002,2.248836e-002
8.909658e+002,2.292488e-002
8.928943e+002,2.330005e-002
8.948229e+002,2.362128e-002
8.967513e+002,2.367694e-002
8.986798e+002,2.357314e-002
9.006083e+002,2.328613e-002
9.025369e+002,2.303150e-002
9.044653e+002,2.281367e-002
9.063938e+002,2.265156e-002
9.083223e+002,2.254930e-002
9.102509e+002,2.257093e-002
9.121793e+002,2.260664e-002
9.141078e+002,2.267062e-002
9.160364e+002,2.270306e-002
9.179648e+002,2.287116e-002
9.198933e+002,2.307105e-002
9.218218e+002,2.323045e-002
9.237504e+002,2.334742e-002
9.256788e+002,2.351003e-002
9.276073e+002,2.374196e-002
9.295358e+002,2.400542e-002
9.314644e+002,2.415707e-002
9.333928e+002,2.438794e-002
9.353213e+002,2.461399e-002
9.372498e+002,2.487552e-002
9.391783e+002,2.524360e-002
9.411068e+002,2.573569e-002
9.430353e+002,2.609585e-002
9.449637e+002,2.653258e-002
9.468923e+002,2.696846e-002
9.488208e+002,2.747772e-002
9.507493e+002,2.805308e-002
9.526777e+002,2.859844e-002
9.546063e+002,2.913828e-002
9.565348e+002,2.975054e-002
9.584633e+002,3.035962e-002
9.603917e+002,3.102100e-002
9.623203e+002,3.164857e-002
9.642488e+002,3.227163e-002
9.661772e+002,3.292106e-002
9.681057e+002,3.343715e-002
9.700343e+002,3.399075e-002
9.719628e+002,3.458453e-002
9.738912e+002,3.526611e-002
9.758197e+002,3.598062e-002
9.777483e+002,3.667093e-002
9.796768e+002,3.750065e-002
9.816052e+002,3.836824e-002
9.835337e+002,3.921812e-002
9.854623e+002,3.996420e-002
9.873907e+002,4.064369e-002
9.893192e+002,4.103763e-002
9.912477e+002,4.132965e-002
9.931763e+002,4.152444e-002
9.951047e+002,4.169860e-002
9.970332e+002,4.189363e-002
9.989617e+002,4.218794e-002
1.000890e+003,4.254725e-002
1.002819e+003,4.295275e-002
1.004747e+003,4.334619e-002
1.006676e+003,4.368329e-002
1.008604e+003,4.401930e-002
1.010533e+003,4.439906e-002
1.012461e+003,4.473445e-002
1.014390e+003,4.523598e-002
1.016318e+003,4.581614e-002
1.018247e+003,4.636685e-002
1.020175e+003,4.688219e-002
1.022104e+003,4.740276e-002
1.024032e+003,4.781520e-002
1.025961e+003,4.811503e-002
1.027889e+003,4.847709e-002
1.029818e+003,4.879151e-002
1.031746e+003,4.890067e-002
1.033675e+003,4.881253e-002
1.035603e+003,4.854174e-002
1.037532e+003,4.813480e-002
1.039460e+003,4.756787e-002
1.041389e+003,4.696994e-002
1.043317e+003,4.640117e-002
1.045246e+003,4.591667e-002
1.047174e+003,4.545287e-002
1.049103e+003,4.497770e-002
1.051031e+003,4.444450e-002
1.052960e+003,4.388083e-002
1.054888e+003,4.325858e-002
1.056817e+003,4.256994e-002
1.058745e+003,4.176670e-002
1.060674e+003,4.097714e-002
1.062602e+003,4.016343e-002
1.064531e+003,3.930339e-002
1.066459e+003,3.850859e-002
1.068388e+003,3.801429e-002
1.070316e+003,3.760405e-002
1.072245e+003,3.733471e-002
1.074173e+003,3.701515e-002
1.076102e+003,3.654584e-002
1.078030e+003,3.597680e-002
1.079959e+003,3.536340e-002
1.081887e+003,3.466753e-002
1.083816e+003,3.400566e-002
1.085744e+003,3.340577e-002
1.087673e+003,3.299939e-002
1.089601e+003,3.267051e-002
1.091530e+003,3.232431e-002
1.093458e+003,3.194441e-002
1.095387e+003,3.165684e-002
1.097315e+003,3.149418e-002
1.099244e+003,3.136213e-002
1.101172e+003,3.122913e-002
1.103101e+003,3.109805e-002
1.105029e+003,3.086142e-002
1.106958e+003,3.048254e-002
1.108886e+003,2.994418e-002
1.110815e+003,2.931534e-002
1.112743e+003,2.858552e-002
1.114672e+003,2.788123e-002
1.116600e+003,2.722608e-002
1.118529e+003,2.661924e-002
1.120457e+003,2.603480e-002
1.122386e+003,2.557569e-002
1.124314e+003,2.509031e-002
1.126243e+003,2.447746e-002
1.128171e+003,2.382414e-002
1.130100e+003,2.321737e-002
1.132028e+003,2.262106e-002
1.133957e+003,2.218750e-002
1.135885e+003,2.185026e-002
1.137814e+003,2.155728e-002
1.139742e+003,2.142140e-002
1.141671e+003,2.141601e-002
1.143599e+003,2.155930e-002
1.145528e+003,2.184918e-002
1.147456e+003,2.211316e-002
1.149385e+003,2.231361e-002
1.151313e+003,2.253261e-002
1.153242e+003,2.273448e-002
1.155170e+003,2.283620e-002
1.157099e+003,2.289589e-002
1.159027e+003,2.287545e-002
1.160956e+003,2.271667e-002
1.162884e+003,2.240030e-002
1.164813e+003,2.191650e-002
1.166741e+003,2.132628e-002
1.168670e+003,2.062500e-002
1.170598e+003,1.985641e-002
1.172526e+003,1.911408e-002
1.174455e+003,1.840913e-002
1.176384e+003,1.783239e-002
1.178312e+003,1.728920e-002
1.180240e+003,1.681647e-002
1.182169e+003,1.639555e-002
1.184098e+003,1.609513e-002
1.186026e+003,1.586189e-002
1.187954e+003,1.573510e-002
1.189883e+003,1.570199e-002
1.191812e+003,1.576257e-002
1.193740e+003,1.585644e-002
1.195668e+003,1.605708e-002
1.197597e+003,1.621713e-002
1.199526e+003,1.636790e-002
1.201454e+003,1.651627e-002
1.203382e+003,1.660976e-002
1.205311e+003,1.661293e-002
1.207240e+003,1.661197e-002
1.209168e+003,1.658960e-002
1.211096e+003,1.660514e-002
1.213025e+003,1.672088e-002
1.214953e+003,1.687464e-002
1.216882e+003,1.705159e-002
1.218810e+003,1.726452e-002
1.220739e+003,1.749681e-002
1.222667e+003,1.775408e-002
1.224596e+003,1.802051e-002
1.226524e+003,1.825660e-002
1.228453e+003,1.851273e-002
1.230381e+003,1.873352e-002
1.232310e+003,1.890666e-002
1.234238e+003,1.903515e-002
1.236167e+003,1.911404e-002
1.238095e+003,1.911882e-002
1.240024e+003,1.909566e-002
1.241952e+003,1.907153e-002
1.243881e+003,1.900736e-002
1.245809e+003,1.891822e-002
1.247738e+003,1.873668e-002
1.249666e+003,1.851009e-002
1.251595e+003,1.832429e-002
1.253523e+003,1.817509e-002
1.255452e+003,1.797720e-002
1.257380e+003,1.771246e-002
1.259309e+003,1.746458e-002
1.261237e+003,1.726354e-002
1.263166e+003,1.701775e-002
1.265094e+003,1.677864e-002
1.267023e+003,1.655580e-002
1.268951e+003,1.632380e-002
1.270880e+003,1.610158e-002
1.272808e+003,1.588917e-002
1.274737e+003,1.565767e-002
1.276665e+003,1.547706e-002
1.278594e+003,1.532331e-002
1.280522e+003,1.524839e-002
1.282451e+003,1.516359e-002
1.284379e+003,1.501849e-002
1.286308e+003,1.492066e-002
1.288236e+003,1.489105e-002
1.290165e+003,1.484422e-002
1.292093e+003,1.482398e-002
1.294022e+003,1.490170e-002
1.295950e+003,1.499539e-002
1.297879e+003,1.506045e-002
1.299807e+003,1.516907e-002
1.301736e+003,1.533320e-002
1.303664e+003,1.550877e-002
1.305593e+003,1.567468e-002
1.307521e+003,1.579517e-002
1.309450e+003,1.593799e-002
1.311378e+003,1.609031e-002
1.313307e+003,1.618579e-002
1.315235e+003,1.625143e-002
1.317164e+003,1.625665e-002
1.319092e+003,1.621194e-002
1.321021e+003,1.609289e-002
1.322949e+003,1.597491e-002
1.324878e+003,1.590252e-002
1.326806e+003,1.584168e-002
1.328735e+003,1.582516e-002
1.330663e+003,1.581090e-002
1.332592e+003,1.582097e-002
1.334520e+003,1.580783e-002
1.336449e+003,1.575180e-002
1.338377e+003,1.568836e-002
1.340306e+003,1.562652e-002
1.342234e+003,1.558434e-002
1.344163e+003,1.553417e-002
1.346091e+003,1.549605e-002
1.348020e+003,1.550394e-002
1.349948e+003,1.557029e-002
1.351877e+003,1.569555e-002
1.353805e+003,1.584371e-002
1.355734e+003,1.599194e-002
1.357662e+003,1.607122e-002
1.359591e+003,1.615738e-002
1.361519e+003,1.627839e-002
1.363448e+003,1.636189e-002
1.365376e+003,1.644392e-002
1.367305e+003,1.649623e-002
1.369233e+003,1.644573e-002
1.371162e+003,1.628883e-002
1.373090e+003,1.614237e-002
1.375019e+003,1.599973e-002
1.376947e+003,1.580733e-002
1.378876e+003,1.562279e-002
1.380804e+003,1.542425e-002
1.382733e+003,1.517121e-002
1.384661e+003,1.491521e-002
1.386590e+003,1.470309e-002
1.388518e+003,1.456307e-002
1.390447e+003,1.446123e-002
1.392375e+003,1.437678e-002
1.394304e+003,1.429281e-002
1.396232e+003,1.425216e-002
1.398161e+003,1.425079e-002
1.400089e+003,1.429258e-002
1.402018e+003,1.430700e-002
1.403946e+003,1.432308e-002
1.405875e+003,1.438383e-002
1.407803e+003,1.447880e-002
1.409732e+003,1.451890e-002
1.411660e+003,1.458053e-002
1.413589e+003,1.471160e-002
1.415517e+003,1.481057e-002
1.417446e+003,1.488307e-002
1.419374e+003,1.494669e-002
1.421303e+003,1.499150e-002
1.423231e+003,1.497636e-002
1.425160e+003,1.491495e-002
1.427088e+003,1.484164e-002
1.429017e+003,1.478980e-002
1.430945e+003,1.476708e-002
1.432874e+003,1.468279e-002
1.434802e+003,1.455739e-002
1.436731e+003,1.446856e-002
1.438659e+003,1.437723e-002
1.440588e+003,1.430559e-002
1.442516e+003,1.423382e-002
1.444445e+003,1.420411e-002
1.446373e+003,1.418933e-002
1.448302e+003,1.418419e-002
1.450230e+003,1.417445e-002
1.452159e+003,1.415503e-002
1.454087e+003,1.411079e-002
1.456016e+003,1.399210e-002
1.457944e+003,1.389216e-002
1.459873e+003,1.376972e-002
1.461801e+003,1.362874e-002
1.463730e+003,1.348562e-002
1.465658e+003,1.327239e-002
1.467587e+003,1.296132e-002
1.469515e+003,1.265342e-002
1.471444e+003,1.231592e-002
1.473372e+003,1.200719e-002
1.475301e+003,1.175443e-002
1.477229e+003,1.160061e-002
1.479158e+003,1.143807e-002
1.481086e+003,1.136690e-002
1.483015e+003,1.140483e-002
1.484943e+003,1.145775e-002
1.486872e+003,1.147806e-002
1.488800e+003,1.157959e-002
1.490729e+003,1.175678e-002
1.492657e+003,1.190895e-002
1.494586e+003,1.202924e-002
1.496514e+003,1.221073e-002
1.498443e+003,1.236158e-002
1.500371e+003,1.247128e-002
1.502300e+003,1.258507e-002
1.504228e+003,1.270927e-002
1.506157e+003,1.282559e-002
1.508085e+003,1.298358e-002
1.510014e+003,1.308938e-002
1.511942e+003,1.319082e-002
1.513871e+003,1.323076e-002
1.515799e+003,1.321892e-002
1.517728e+003,1.315446e-002
1.519656e+003,1.304846e-002
1.521585e+003,1.290561e-002
1.523513e+003,1.280656e-002
1.525442e+003,1.272471e-002
1.527370e+003,1.268540e-002
1.529299e+003,1.267069e-002
1.531227e+003,1.267016e-002
1.533156e+003,1.267726e-002
1.535084e+003,1.263943e-002
1.537013e+003,1.260383e-002
1.538941e+003,1.263284e-002
1.540870e+003,1.260106e-002
1.542798e+003,1.254761e-002
1.544727e+003,1.248369e-002
1.546655e+003,1.245581e-002
1.548584e+003,1.235268e-002
1.550512e+003,1.229176e-002
1.552441e+003,1.223590e-002
1.554369e+003,1.218078e-002
1.556298e+003,1.207675e-002
1.558226e+003,1.200106e-002
1.560155e+003,1.201164e-002
1.562083e+003,1.197622e-002
1.564012e+003,1.190481e-002
1.565940e+003,1.187432e-002
1.567869e+003,1.189630e-002
1.569797e+003,1.195706e-002
1.571726e+003,1.200603e-002
1.573654e+003,1.206128e-002
1.575583e+003,1.212833e-002
1.577511e+003,1.225299e-002
1.579440e+003,1.238596e-002
1.581368e+003,1.250894e-002
1.583297e+003,1.265590e-002
1.585225e+003,1.283912e-002
1.587154e+003,1.296798e-002
1.589082e+003,1.312049e-002
1.591010e+003,1.328814e-002
1.592939e+003,1.341314e-002
1.594868e+003,1.351548e-002
1.596796e+003,1.362891e-002
1.598724e+003,1.370105e-002
1.600653e+003,1.382834e-002
1.602582e+003,1.391586e-002
1.604510e+003,1.396424e-002
1.606438e+003,1.405657e-002
1.608367e+003,1.412623e-002
1.610296e+003,1.422579e-002
1.612224e+003,1.436825e-002
1.614152e+003,1.454316e-002
1.616081e+003,1.478686e-002
1.618010e+003,1.499512e-002
1.619938e+003,1.515899e-002
1.621866e+003,1.533074e-002
1.623795e+003,1.543617e-002
1.625724e+003,1.549052e-002
1.627652e+003,1.551437e-002
1.629580e+003,1.555047e-002
1.631509e+003,1.553119e-002
1.633438e+003,1.547508e-002
1.635366e+003,1.540876e-002
1.637294e+003,1.537080e-002
1.639223e+003,1.530777e-002
1.641151e+003,1.525106e-002
1.643080e+003,1.522483e-002
1.645008e+003,1.520003e-002
1.646937e+003,1.517152e-002
1.648865e+003,1.520048e-002
1.650794e+003,1.518588e-002
1.652722e+003,1.512197e-002
1.654651e+003,1.507297e-002
1.656579e+003,1.497198e-002
1.658508e+003,1.477832e-002
1.660436e+003,1.459145e-002
1.662365e+003,1.437116e-002
1.664293e+003,1.413435e-002
1.666222e+003,1.391143e-002
1.668150e+003,1.367676e-002
1.670079e+003,1.346387e-002
1.672007e+003,1.326428e-002
1.673936e+003,1.303365e-002
1.675864e+003,1.280786e-002
1.677793e+003,1.261623e-002
1.679721e+003,1.242840e-002
1.681650e+003,1.224649e-002
1.683578e+003,1.211702e-002
1.685507e+003,1.199738e-002
1.687435e+003,1.183622e-002
1.689364e+003,1.166003e-002
1.691292e+003,1.157098e-002
1.693221e+003,1.153517e-002
1.695149e+003,1.148852e-002
1.697078e+003,1.137788e-002
1.699006e+003,1.117540e-002
1.700935e+003,1.108668e-002
1.702863e+003,1.097751e-002
1.704792e+003,1.090305e-002
1.706720e+003,1.092139e-002
1.708649e+003,1.094605e-002
1.710577e+003,1.098175e-002
1.712506e+003,1.100993e-002
1.714434e+003,1.103057e-002
1.716363e+003,1.113374e-002
1.718291e+003,1.123649e-002
1.720220e+003,1.130801e-002
1.722148e+003,1.137451e-002
1.724077e+003,1.147695e-002
1.726005e+003,1.151001e-002
1.727934e+003,1.151616e-002
1.729862e+003,1.158349e-002
1.731791e+003,1.162439e-002
1.733719e+003,1.151923e-002
1.735648e+003,1.138429e-002
1.737576e+003,1.119379e-002
1.739505e+003,1.098669e-002
1.741433e+003,1.075067e-002
1.743362e+003,1.049203e-002
1.745290e+003,1.023214e-002
1.747219e+003,1.002570e-002
1.749147e+003,9.787116e-003
1.751076e+003,9.597116e-003
1.753004e+003,9.453195e-003
1.754933e+003,9.342528e-003
1.756861e+003,9.189124e-003
1.758790e+003,9.060364e-003
1.760718e+003,8.928699e-003
1.762647e+003,8.860728e-003
1.764575e+003,8.834656e-003
1.766504e+003,8.781612e-003
1.768432e+003,8.736699e-003
1.770361e+003,8.706588e-003
1.772289e+003,8.680664e-003
1.774218e+003,8.622685e-003
1.776146e+003,8.548450e-003
1.778075e+003,8.502446e-003
1.780003e+003,8.503219e-003
1.781932e+003,8.585032e-003
1.783860e+003,8.615632e-003
1.785789e+003,8.595191e-003
1.787717e+003,8.599039e-003
1.789646e+003,8.687715e-003
1.791574e+003,8.697894e-003
1.793503e+003,8.631134e-003
1.795431e+003,8.595081e-003
1.797360e+003,8.624241e-003
1.799288e+003,8.587143e-003
1.801217e+003,8.573728e-003
1.803145e+003,8.626261e-003
1.805074e+003,8.761347e-003
1.807002e+003,8.739421e-003
1.808931e+003,8.700965e-003
1.810859e+003,8.727048e-003
1.812788e+003,8.753956e-003
1.814716e+003,8.840963e-003
1.816645e+003,8.875770e-003
1.818573e+003,8.908578e-003
1.820502e+003,9.022292e-003
1.822430e+003,8.974284e-003
1.824359e+003,8.906753e-003
1.826287e+003,8.886822e-003
1.828216e+003,8.937639e-003
1.830144e+003,8.895806e-003
1.832073e+003,8.920835e-003
1.834001e+003,8.934632e-003
1.835930e+003,9.005252e-003
1.837858e+003,9.060716e-003
1.839787e+003,9.114881e-003
1.841715e+003,9.077912e-003
1.843644e+003,9.011022e-003
1.845572e+003,9.094209e-003
1.847501e+003,9.110725e-003
1.849429e+003,9.113002e-003
1.851358e+003,9.198708e-003
1.853286e+003,9.124163e-003
1.855215e+003,9.035005e-003
1.857143e+003,9.061338e-003
1.859072e+003,9.200841e-003
1.861000e+003,9.247314e-003
1.862929e+003,9.204486e-003
1.864857e+003,9.207582e-003
1.866786e+003,9.189891e-003
1.868714e+003,9.128711e-003
1.870643e+003,9.160210e-003
1.872571e+003,9.157180e-003
1.874500e+003,9.092863e-003
1.876428e+003,9.101270e-003
1.878357e+003,9.220238e-003
1.880285e+003,9.404729e-003
1.882214e+003,9.559634e-003
1.884142e+003,9.631701e-003
1.886071e+003,9.592442e-003
1.887999e+003,9.414040e-003
1.889928e+003,9.405772e-003
1.891856e+003,9.256607e-003
1.893785e+003,9.348132e-003
1.895713e+003,9.440301e-003
1.897642e+003,9.409163e-003
1.899570e+003,9.521026e-003
1.901499e+003,9.616810e-003
1.903427e+003,9.478065e-003
1.905356e+003,9.334300e-003
1.907284e+003,9.449543e-003
1.909213e+003,9.520290e-003
1.911141e+003,9.392313e-003
1.913070e+003,9.394862e-003
1.914998e+003,9.450113e-003
1.916927e+003,9.595198e-003
1.918855e+003,9.539398e-003
1.920784e+003,9.414939e-003
1.922712e+003,9.297696e-003
1.924641e+003,9.212988e-003
1.926569e+003,9.282830e-003
1.928498e+003,9.363146e-003
1.930426e+003,9.438025e-003
1.932355e+003,9.561936e-003
1.934283e+003,9.574823e-003
1.936212e+003,9.652975e-003
1.938140e+003,9.407501e-003
1.940069e+003,9.235440e-003
1.941997e+003,9.758880e-003
1.943926e+003,9.861243e-003
1.945854e+003,9.773761e-003
1.947783e+003,9.864217e-003
1.949711e+003,9.848796e-003
1.951640e+003,1.001093e-002
1.953568e+003,1.009610e-002
1.955497e+003,1.006849e-002
1.957425e+003,9.769773e-003
1.959354e+003,1.020968e-002
1.961282e+003,1.028000e-002
1.963211e+003,9.942510e-003
1.965139e+003,9.817084e-003
1.967068e+003,9.848536e-003
1.968996e+003,9.914952e-003
1.970925e+003,1.027001e-002
1.972853e+003,9.853842e-003
1.974782e+003,1.069392e-002
1.976710e+003,1.025480e-002
1.978639e+003,1.000800e-002
1.980567e+003,9.295057e-003
1.982496e+003,9.522099e-003
1.984424e+003,9.883801e-003
1.986353e+003,9.952737e-003
1.988281e+003,8.876819e-003
1.990210e+003,8.345739e-003
1.992138e+003,8.064646e-003
1.994067e+003,8.082623e-003
1.995995e+003,8.252496e-003
1.997924e+003,8.284439e-003
1.999852e+003,8.438239e-003
2.001781e+003,8.580512e-003
2.003709e+003,7.982254e-003
2.005638e+003,8.385315e-003
2.007566e+003,8.154723e-003
2.009495e+003,8.037652e-003
2.011423e+003,8.478412e-003
2.013352e+003,9.323844e-003
2.015280e+003,9.070455e-003
2.017208e+003,7.831975e-003
2.019137e+003,7.032064e-003
2.021066e+003,7.325051e-003
2.022994e+003,8.221452e-003
2.024922e+003,8.543666e-003
2.026851e+003,7.711547e-003
2.028780e+003,7.722224e-003
2.030708e+003,8.684449e-003
2.032636e+003,8.776134e-003
2.034565e+003,7.983765e-003
2.036494e+003,7.511518e-003
2.038422e+003,7.073092e-003
2.040350e+003,7.143535e-003
2.042279e+003,7.552947e-003
2.044208e+003,7.450385e-003
2.046136e+003,7.242844e-003
2.048064e+003,7.676764e-003
2.049993e+003,8.140159e-003
2.051921e+003,8.300218e-003
2.053850e+003,7.971573e-003
2.055778e+003,7.609623e-003
2.057707e+003,7.566354e-003
2.059635e+003,7.375595e-003
2.061564e+003,7.808886e-003
2.063492e+003,7.893051e-003
2.065421e+003,8.004051e-003
2.067349e+003,7.924682e-003
2.069278e+003,8.097259e-003
2.071206e+003,8.300605e-003
2.073135e+003,8.378389e-003
2.075063e+003,8.354714e-003
2.076992e+003,8.092631e-003
2.078920e+003,8.133573e-003
2.080849e+003,8.432963e-003
2.082777e+003,8.450284e-003
2.084706e+003,8.215837e-003
2.086634e+003,8.761579e-003
2.088563e+003,8.902710e-003
2.090491e+003,8.604139e-003
2.092420e+003,8.797750e-003
2.094348e+003,8.970896e-003
2.096277e+003,9.266978e-003
2.098205e+003,9.276838e-003
2.100134e+003,8.805369e-003
2.102062e+003,8.942264e-003
2.103991e+003,9.063335e-003
2.105919e+003,8.678015e-003
2.107848e+003,8.706680e-003
2.109776e+003,9.413544e-003
2.111705e+003,9.490752e-003
2.113633e+003,9.161834e-003
2.115562e+003,9.110703e-003
2.117490e+003,9.412969e-003
2.119419e+003,9.103192e-003
2.121347e+003,8.970542e-003
2.123276e+003,9.104680e-003
2.125204e+003,9.517372e-003
2.127133e+003,9.882895e-003
2.129061e+003,9.900623e-003
2.130990e+003,9.419233e-003
2.132918e+003,9.036303e-003
2.134847e+003,9.476765e-003
2.136775e+003,1.008527e-002
2.138704e+003,1.006496e-002
2.140632e+003,1.003227e-002
2.142561e+003,1.018326e-002
2.144489e+003,1.012638e-002
2.146418e+003,1.012003e-002
2.148346e+003,1.066186e-002
2.150275e+003,1.158145e-002
2.152203e+003,1.083335e-002
2.154132e+003,1.091101e-002
2.156060e+003,1.200005e-002
2.157989e+003,1.315350e-002
2.159917e+003,1.155222e-002
2.161846e+003,1.073246e-002
2.163774e+003,9.599272e-003
2.165703e+003,9.706736e-003
2.167631e+003,9.190192e-003
2.169560e+003,9.076564e-003
2.171488e+003,9.860897e-003
2.173417e+003,1.088903e-002
2.175345e+003,1.076704e-002
2.177274e+003,1.052031e-002
2.179202e+003,1.043135e-002
2.181131e+003,1.018319e-002
2.183059e+003,1.023349e-002
2.184988e+003,1.080654e-002
2.186916e+003,1.110639e-002
2.188845e+003,1.061381e-002
2.190773e+003,1.042198e-002
2.192702e+003,1.044815e-002
2.194630e+003,1.007045e-002
2.196559e+003,9.740044e-003
2.198487e+003,9.758648e-003
2.200416e+003,1.039477e-002
2.202344e+003,1.044343e-002
2.204273e+003,9.818292e-003
2.206201e+003,8.668652e-003
2.208130e+003,8.970609e-003
2.210058e+003,9.462102e-003
2.211987e+003,9.244243e-003
2.213915e+003,9.133950e-003
2.215844e+003,8.770104e-003
2.217772e+003,8.768345e-003
2.219701e+003,8.877227e-003
2.221629e+003,9.137977e-003
2.223558e+003,9.360116e-003
2.225486e+003,9.413172e-003
2.227415e+003,9.475444e-003
2.229343e+003,9.436434e-003
2.231272e+003,9.135319e-003
2.233200e+003,9.070155e-003
2.235129e+003,9.253340e-003
2.237057e+003,9.481103e-003
2.238986e+003,9.420751e-003
2.240914e+003,9.268756e-003
2.242843e+003,8.966079e-003
2.244771e+003,8.994727e-003
2.246700e+003,9.288752e-003
2.248628e+003,8.877675e-003
2.250557e+003,8.349905e-003
2.252485e+003,8.486767e-003
2.254414e+003,8.505046e-003
2.256342e+003,8.363163e-003
2.258271e+003,8.367521e-003
2.260199e+003,8.443786e-003
2.262128e+003,8.547212e-003
2.264056e+003,8.726673e-003
2.265985e+003,8.691612e-003
2.267913e+003,8.610478e-003
2.269842e+003,8.535009e-003
2.271770e+003,8.886641e-003
2.273699e+003,8.913796e-003
2.275627e+003,8.785731e-003
2.277556e+003,8.876047e-003
2.279484e+003,9.201494e-003
2.281413e+003,9.253777e-003
2.283341e+003,9.146210e-003
2.285270e+003,9.040760e-003
2.287198e+003,8.959532e-003
2.289127e+003,8.832508e-003
2.291055e+003,8.878945e-003
2.292984e+003,8.925348e-003
2.294912e+003,8.957067e-003
2.296841e+003,9.012753e-003
2.298769e+003,9.038429e-003
2.300698e+003,8.970078e-003
2.302626e+003,9.045679e-003
2.304555e+003,9.338994e-003
2.306483e+003,9.509149e-003
2.308412e+003,9.567335e-003
2.310340e+003,9.584845e-003
2.312269e+003,9.582967e-003
2.314197e+003,9.514755e-003
2.316125e+003,9.451985e-003
2.318054e+003,9.428144e-003
2.319983e+003,9.424683e-003
2.321911e+003,9.400682e-003
2.323840e+003,9.307620e-003
2.325768e+003,9.355258e-003
2.327697e+003,9.513613e-003
2.329625e+003,9.416102e-003
2.331553e+003,9.320856e-003
2.333482e+003,9.405692e-003
2.335411e+003,9.422774e-003
2.337339e+003,9.356836e-003
2.339268e+003,9.214206e-003
2.341196e+003,9.158415e-003
2.343125e+003,9.064196e-003
2.345053e+003,8.964815e-003
2.346981e+003,8.822055e-003
2.348910e+003,8.772179e-003
2.350839e+003,8.670917e-003
2.352767e+003,8.760739e-003
2.354696e+003,8.775077e-003
2.356624e+003,8.723577e-003
2.358552e+003,8.590247e-003
2.360481e+003,8.615265e-003
2.362409e+003,8.698990e-003
2.364338e+003,8.833895e-003
2.366267e+003,8.738167e-003
2.368195e+003,8.468045e-003
2.370124e+003,8.532990e-003
2.372052e+003,8.871411e-003
2.373980e+003,8.931794e-003
2.375909e+003,8.995790e-003
2.377838e+003,9.091755e-003
2.379766e+003,9.144507e-003
2.381695e+003,8.970653e-003
2.383623e+003,8.962285e-003
2.385552e+003,8.813859e-003
2.387480e+003,8.713870e-003
2.389408e+003,8.768261e-003
2.391337e+003,8.812536e-003
2.393266e+003,8.909377e-003
2.395194e+003,8.926820e-003
2.397123e+003,8.981482e-003
2.399051e+003,8.984121e-003
2.400979e+003,8.980284e-003
2.402908e+003,9.050411e-003
2.404836e+003,9.122411e-003
2.406765e+003,9.194931e-003
2.408694e+003,9.198552e-003
2.410622e+003,9.284184e-003
2.412551e+003,9.264619e-003
2.414479e+003,9.167383e-003
2.416407e+003,9.077951e-003
2.418336e+003,9.248643e-003
2.420264e+003,9.342952e-003
2.422193e+003,9.359811e-003
2.424122e+003,9.347420e-003
2.426050e+003,9.342240e-003
2.427979e+003,9.417133e-003
2.429907e+003,9.392280e-003
2.431835e+003,9.469891e-003
2.433764e+003,9.487806e-003
2.435692e+003,9.481912e-003
2.437621e+003,9.641245e-003
2.439550e+003,9.587077e-003
2.441478e+003,9.479813e-003
2.443406e+003,9.460341e-003
2.445335e+003,9.429628e-003
2.447263e+003,9.398985e-003
2.449192e+003,9.387574e-003
2.451121e+003,9.371120e-003
2.453049e+003,9.250437e-003
2.454978e+003,9.244141e-003
2.456906e+003,9.354259e-003
2.458834e+003,9.346777e-003
2.460763e+003,9.367598e-003
2.462691e+003,9.432913e-003
2.464620e+003,9.559641e-003
2.466549e+003,9.572614e-003
2.468477e+003,9.499523e-003
2.470406e+003,9.384560e-003
2.472334e+003,9.364178e-003
2.474262e+003,9.548971e-003
2.476191e+003,9.548938e-003
2.478119e+003,9.480219e-003
2.480048e+003,9.479238e-003
2.481977e+003,9.383545e-003
2.483905e+003,9.378838e-003
2.485833e+003,9.386931e-003
2.487762e+003,9.439786e-003
2.489690e+003,9.480254e-003
2.491619e+003,9.434910e-003
2.493547e+003,9.453569e-003
2.495476e+003,9.451503e-003
2.497405e+003,9.489465e-003
2.499333e+003,9.528921e-003
2.501261e+003,9.563706e-003
2.503190e+003,9.553950e-003
2.505118e+003,9.535051e-003
2.507047e+003,9.526245e-003
2.508975e+003,9.495459e-003
2.510904e+003,9.462779e-003
2.512833e+003,9.495222e-003
2.514761e+003,9.526889e-003
2.516689e+003,9.442123e-003
2.518618e+003,9.486654e-003
2.520546e+003,9.396072e-003
2.522475e+003,9.349824e-003
2.524403e+003,9.272506e-003
2.526332e+003,9.233953e-003
2.528260e+003,9.311163e-003
2.530189e+003,9.391095e-003
2.532117e+003,9.351348e-003
2.534046e+003,9.339126e-003
2.535974e+003,9.352735e-003
2.537903e+003,9.271016e-003
2.539831e+003,9.188094e-003
2.541760e+003,9.199364e-003
2.543688e+003,9.145827e-003
2.545617e+003,9.049430e-003
2.547545e+003,9.053050e-003
2.549474e+003,9.056501e-003
2.551402e+003,9.156046e-003
2.553331e+003,9.141530e-003
2.555259e+003,9.018610e-003
2.557188e+003,8.984139e-003
2.559116e+003,8.946188e-003
2.561045e+003,8.888725e-003
2.562973e+003,8.907631e-003
2.564902e+003,8.996893e-003
2.566830e+003,8.810543e-003
2.568759e+003,8.720068e-003
2.570687e+003,8.793974e-003
2.572616e+003,8.749447e-003
2.574544e+003,8.596660e-003
2.576473e+003,8.712191e-003
2.578401e+003,8.749750e-003
2.580330e+003,8.683424e-003
2.582258e+003,8.651481e-003
2.584187e+003,8.519712e-003
2.586115e+003,8.616093e-003
2.588044e+003,8.665812e-003
2.589972e+003,8.635426e-003
2.591901e+003,8.646411e-003
2.593829e+003,8.686500e-003
2.595758e+003,8.614065e-003
2.597686e+003,8.581046e-003
2.599615e+003,8.613017e-003
2.601543e+003,8.637758e-003
2.603472e+003,8.588852e-003
2.605400e+003,8.553673e-003
2.607329e+003,8.479030e-003
2.609257e+003,8.562966e-003
2.611186e+003,8.606866e-003
2.613114e+003,8.540155e-003
2.615043e+003,8.428183e-003
2.616971e+003,8.517752e-003
2.618900e+003,8.572462e-003
2.620828e+003,8.575807e-003
2.622757e+003,8.567291e-003
2.624685e+003,8.563641e-003
2.626614e+003,8.602135e-003
2.628542e+003,8.608285e-003
2.630471e+003,8.600716e-003
2.632399e+003,8.599938e-003
2.634328e+003,8.645532e-003
2.636256e+003,8.663988e-003
2.638185e+003,8.695357e-003
2.640113e+003,8.727809e-003
2.642042e+003,8.742989e-003
2.643970e+003,8.718783e-003
2.645899e+003,8.789375e-003
2.647827e+003,8.834009e-003
2.649756e+003,8.843173e-003
2.651684e+003,8.854265e-003
2.653613e+003,8.923730e-003
2.655541e+003,8.959414e-003
2.657470e+003,9.005045e-003
2.659398e+003,9.049058e-003
2.661327e+003,9.061643e-003
2.663255e+003,9.051832e-003
2.665184e+003,9.053828e-003
2.667112e+003,9.129686e-003
2.669041e+003,9.175776e-003
2.670969e+003,9.180717e-003
2.672898e+003,9.204712e-003
2.674826e+003,9.204745e-003
2.676755e+003,9.249692e-003
2.678683e+003,9.262622e-003
2.680612e+003,9.285504e-003
2.682540e+003,9.329816e-003
2.684469e+003,9.364111e-003
2.686397e+003,9.346878e-003
2.688326e+003,9.329680e-003
2.690254e+003,9.353785e-003
2.692183e+003,9.387405e-003
2.694111e+003,9.461865e-003
2.696040e+003,9.474767e-003
2.697968e+003,9.437382e-003
2.699897e+003,9.500539e-003
2.701825e+003,9.495832e-003
2.703754e+003,9.509175e-003
2.705682e+003,9.561029e-003
2.707611e+003,9.551783e-003
2.709539e+003,9.545991e-003
2.711468e+003,9.587348e-003
2.713396e+003,9.601034e-003
2.715325e+003,9.592938e-003
2.717253e+003,9.634164e-003
2.719182e+003,9.649104e-003
2.721110e+003,9.581828e-003
2.723039e+003,9.573190e-003
2.724967e+003,9.629116e-003
2.726896e+003,9.677835e-003
2.728824e+003,9.650765e-003
2.730753e+003,9.656253e-003
2.732681e+003,9.700501e-003
2.734610e+003,9.695622e-003
2.736538e+003,9.717714e-003
2.738467e+003,9.729743e-003
2.740395e+003,9.721305e-003
2.742324e+003,9.732386e-003
2.744252e+003,9.730014e-003
2.746181e+003,9.754852e-003
2.748109e+003,9.777727e-003
2.750038e+003,9.745059e-003
2.751966e+003,9.738620e-003
2.753895e+003,9.763561e-003
2.755823e+003,9.776676e-003
2.757752e+003,9.800839e-003
2.759680e+003,9.839679e-003
2.761609e+003,9.795145e-003
2.763537e+003,9.785758e-003
2.765466e+003,9.832968e-003
2.767394e+003,9.853474e-003
2.769323e+003,9.853507e-003
2.771251e+003,9.824698e-003
2.773180e+003,9.852423e-003
2.775108e+003,9.845000e-003
2.777037e+003,9.843475e-003
2.778965e+003,9.883404e-003
2.780894e+003,9.890759e-003
2.782822e+003,9.904725e-003
2.784750e+003,9.964797e-003
2.786679e+003,1.000575e-002
2.788608e+003,9.943575e-003
2.790536e+003,9.921505e-003
2.792465e+003,9.986225e-003
2.794393e+003,1.003024e-002
2.796322e+003,1.002667e-002
2.798250e+003,1.004370e-002
2.800178e+003,1.006530e-002
2.802107e+003,1.002827e-002
2.804036e+003,1.004075e-002
2.805964e+003,1.004061e-002
2.807893e+003,1.004848e-002
2.809821e+003,1.011420e-002
2.811750e+003,1.010786e-002
2.813678e+003,1.013716e-002
2.815606e+003,1.017613e-002
2.817535e+003,1.018434e-002
2.819464e+003,1.020368e-002
2.821392e+003,1.022179e-002
2.823321e+003,1.028998e-002
2.825249e+003,1.031210e-002
2.827177e+003,1.032693e-002
2.829106e+003,1.034173e-002
2.831034e+003,1.035560e-002
2.832963e+003,1.042921e-002
2.834892e+003,1.052761e-002
2.836820e+003,1.056017e-002
2.838749e+003,1.061201e-002
2.840677e+003,1.069025e-002
2.842605e+003,1.077621e-002
2.844534e+003,1.084914e-002
2.846462e+003,1.097890e-002
2.848391e+003,1.115068e-002
2.850320e+003,1.119801e-002
2.852248e+003,1.123436e-002
2.854177e+003,1.128431e-002
2.856105e+003,1.129567e-002
2.858033e+003,1.121038e-002
2.859962e+003,1.115140e-002
2.861890e+003,1.116816e-002
2.863819e+003,1.117649e-002
2.865748e+003,1.117815e-002
2.867676e+003,1.123010e-002
2.869604e+003,1.129981e-002
2.871533e+003,1.131219e-002
2.873461e+003,1.129502e-002
2.875390e+003,1.130243e-002
2.877319e+003,1.130665e-002
2.879247e+003,1.127349e-002
2.881176e+003,1.119668e-002
2.883104e+003,1.123728e-002
2.885032e+003,1.133154e-002
2.886961e+003,1.138246e-002
2.888889e+003,1.137913e-002
2.890818e+003,1.131859e-002
2.892747e+003,1.130172e-002
2.894675e+003,1.134348e-002
2.896604e+003,1.137124e-002
2.898532e+003,1.138671e-002
2.900460e+003,1.136062e-002
2.902389e+003,1.131672e-002
2.904317e+003,1.138164e-002
2.906246e+003,1.142542e-002
2.908175e+003,1.144090e-002
2.910103e+003,1.146264e-002
2.912031e+003,1.149013e-002
2.913960e+003,1.153133e-002
2.915888e+003,1.158765e-002
2.917817e+003,1.157145e-002
2.919745e+003,1.154433e-002
2.921674e+003,1.157356e-002
2.923603e+003,1.156335e-002
2.925531e+003,1.148077e-002
2.927459e+003,1.139576e-002
2.929388e+003,1.135729e-002
2.931316e+003,1.133035e-002
2.933245e+003,1.125816e-002
2.935173e+003,1.112481e-002
2.937102e+003,1.101632e-002
2.939031e+003,1.092105e-002
2.940959e+003,1.084634e-002
2.942887e+003,1.079940e-002
2.944816e+003,1.066724e-002
2.946744e+003,1.055349e-002
2.948673e+003,1.048329e-002
2.950601e+003,1.043223e-002
2.952530e+003,1.035825e-002
2.954458e+003,1.029461e-002
2.956387e+003,1.024330e-002
2.958315e+003,1.016479e-002
2.960244e+003,1.008243e-002
2.962172e+003,1.005249e-002
2.964101e+003,1.000547e-002
2.966029e+003,9.927768e-003
2.967958e+003,9.828952e-003
2.969886e+003,9.807550e-003
2.971815e+003,9.772838e-003
2.973743e+003,9.708841e-003
2.975672e+003,9.709538e-003
2.977600e+003,9.704581e-003
2.979529e+003,9.674111e-003
2.981457e+003,9.616820e-003
2.983386e+003,9.555224e-003
2.985314e+003,9.481042e-003
2.987243e+003,9.449217e-003
2.989171e+003,9.438316e-003
2.991100e+003,9.458358e-003
2.993028e+003,9.402770e-003
2.994957e+003,9.394046e-003
2.996885e+003,9.463243e-003
2.998814e+003,9.512244e-003
3.000742e+003,9.499501e-003
3.002671e+003,9.456082e-003
3.004599e+003,9.359682e-003
3.006528e+003,9.357334e-003
3.008456e+003,9.409084e-003
3.010385e+003,9.481106e-003
3.012313e+003,9.511045e-003
3.014242e+003,9.519272e-003
3.016170e+003,9.496626e-003
3.018099e+003,9.480578e-003
3.020027e+003,9.530514e-003
3.021956e+003,9.587706e-003
3.023884e+003,9.533199e-003
3.025813e+003,9.573411e-003
3.027741e+003,9.615960e-003
3.029670e+003,9.559180e-003
3.031598e+003,9.529034e-003
3.033527e+003,9.573157e-003
3.035455e+003,9.631140e-003
3.037384e+003,9.678943e-003
3.039312e+003,9.733936e-003
3.041241e+003,9.710846e-003
3.043169e+003,9.715836e-003
3.045098e+003,9.727737e-003
3.047026e+003,9.720323e-003
3.048955e+003,9.798766e-003
3.050883e+003,9.863980e-003
3.052812e+003,9.887790e-003
3.054740e+003,9.894204e-003
3.056669e+003,9.867380e-003
3.058597e+003,9.866991e-003
3.060526e+003,9.920650e-003
3.062454e+003,9.926059e-003
3.064383e+003,9.935582e-003
3.066311e+003,9.962101e-003
3.068240e+003,9.947214e-003
3.070168e+003,1.001348e-002
3.072097e+003,1.004593e-002
3.074025e+003,1.001784e-002
3.075954e+003,1.001912e-002
3.077882e+003,1.006356e-002
3.079811e+003,1.008770e-002
3.081739e+003,1.014696e-002
3.083668e+003,1.017567e-002
3.085596e+003,1.024733e-002
3.087525e+003,1.030455e-002
3.089453e+003,1.027854e-002
3.091382e+003,1.026948e-002
3.093310e+003,1.030055e-002
3.095239e+003,1.021725e-002
3.097167e+003,1.022218e-002
3.099096e+003,1.026396e-002
3.101024e+003,1.032255e-002
3.102953e+003,1.033928e-002
3.104881e+003,1.039107e-002
3.106810e+003,1.039584e-002
3.108738e+003,1.038250e-002
3.110667e+003,1.040660e-002
3.112595e+003,1.048219e-002
3.114524e+003,1.056297e-002
3.116452e+003,1.055931e-002
3.118381e+003,1.053626e-002
3.120309e+003,1.061848e-002
3.122238e+003,1.061994e-002
3.124166e+003,1.055084e-002
3.126095e+003,1.053914e-002
3.128023e+003,1.061692e-002
3.129952e+003,1.066346e-002
3.131880e+003,1.069835e-002
3.133809e+003,1.072401e-002
3.135737e+003,1.073196e-002
3.137666e+003,1.082288e-002
3.139594e+003,1.084326e-002
3.141523e+003,1.083666e-002
3.143451e+003,1.085624e-002
3.145380e+003,1.088644e-002
3.147308e+003,1.100648e-002
3.149237e+003,1.102032e-002
3.151165e+003,1.102744e-002
3.153094e+003,1.108132e-002
3.155022e+003,1.110036e-002
3.156951e+003,1.108485e-002
3.158879e+003,1.110646e-002
3.160808e+003,1.118047e-002
3.162736e+003,1.121526e-002
3.164665e+003,1.124034e-002
3.166593e+003,1.128064e-002
3.168522e+003,1.137355e-002
3.170450e+003,1.140681e-002
3.172379e+003,1.141115e-002
3.174307e+003,1.150473e-002
3.176236e+003,1.161710e-002
3.178164e+003,1.164279e-002
3.180093e+003,1.160554e-002
3.182021e+003,1.164535e-002
3.183950e+003,1.171139e-002
3.185878e+003,1.180380e-002
3.187807e+003,1.177781e-002
3.189735e+003,1.176096e-002
3.191664e+003,1.179409e-002
3.193592e+003,1.185951e-002
3.195521e+003,1.188804e-002
3.197449e+003,1.184355e-002
3.199378e+003,1.185693e-002
3.201306e+003,1.198547e-002
3.203235e+003,1.202746e-002
3.205163e+003,1.204357e-002
3.207092e+003,1.210018e-002
3.209020e+003,1.216944e-002
3.210948e+003,1.222323e-002
3.212877e+003,1.225609e-002
3.214806e+003,1.225760e-002
3.216734e+003,1.224336e-002
3.218663e+003,1.233428e-002
3.220591e+003,1.238339e-002
3.222520e+003,1.235975e-002
3.224448e+003,1.232903e-002
3.226376e+003,1.234639e-002
3.228305e+003,1.243460e-002
3.230234e+003,1.247765e-002
3.232162e+003,1.250051e-002
3.234091e+003,1.256622e-002
3.236019e+003,1.269722e-002
3.237948e+003,1.278603e-002
3.239876e+003,1.270823e-002
3.241804e+003,1.270714e-002
3.243733e+003,1.274652e-002
3.245662e+003,1.272553e-002
3.247590e+003,1.273530e-002
3.249519e+003,1.276413e-002
3.251447e+003,1.287999e-002
3.253375e+003,1.296368e-002
3.255304e+003,1.293512e-002
3.257232e+003,1.298170e-002
3.259161e+003,1.297109e-002
3.261090e+003,1.298174e-002
3.263018e+003,1.304409e-002
3.264947e+003,1.314676e-002
3.266875e+003,1.323854e-002
3.268803e+003,1.317017e-002
3.270732e+003,1.311286e-002
3.272660e+003,1.320692e-002
3.274589e+003,1.324521e-002
3.276518e+003,1.321826e-002
3.278446e+003,1.322457e-002
3.280375e+003,1.322648e-002
3.282303e+003,1.324748e-002
3.284231e+003,1.326540e-002
3.286160e+003,1.325487e-002
3.288088e+003,1.321794e-002
3.290017e+003,1.325662e-002
3.291946e+003,1.322310e-002
3.293874e+003,1.314530e-002
3.295802e+003,1.313509e-002
3.297731e+003,1.317632e-002
3.299659e+003,1.317988e-002
3.301588e+003,1.319560e-002
3.303516e+003,1.322027e-002
3.305445e+003,1.326868e-002
3.307374e+003,1.328621e-002
3.309302e+003,1.323834e-002
3.311230e+003,1.313525e-002
3.313159e+003,1.313889e-002
3.315087e+003,1.310568e-002
3.317016e+003,1.315141e-002
3.318944e+003,1.322459e-002
3.320873e+003,1.316967e-002
3.322802e+003,1.312218e-002
3.324730e+003,1.313356e-002
3.326658e+003,1.310405e-002
3.328587e+003,1.306875e-002
3.330515e+003,1.306019e-002
3.332444e+003,1.310981e-002
3.334372e+003,1.311765e-002
3.336301e+003,1.304102e-002
3.338229e+003,1.306294e-002
3.340158e+003,1.312215e-002
3.342086e+003,1.305306e-002
3.344015e+003,1.296081e-002
3.345943e+003,1.296874e-002
3.347872e+003,1.297364e-002
3.349800e+003,1.290582e-002
3.351729e+003,1.283986e-002
3.353657e+003,1.282878e-002
3.355586e+003,1.279711e-002
3.357514e+003,1.270647e-002
3.359443e+003,1.267778e-002
3.361371e+003,1.271980e-002
3.363300e+003,1.270146e-002
3.365229e+003,1.259717e-002
3.367157e+003,1.259563e-002
3.369085e+003,1.253505e-002
3.371014e+003,1.244892e-002
3.372942e+003,1.240942e-002
3.374871e+003,1.240644e-002
3.376799e+003,1.247555e-002
3.378728e+003,1.247591e-002
3.380656e+003,1.239071e-002
3.382585e+003,1.234144e-002
3.384513e+003,1.227559e-002
3.386442e+003,1.226118e-002
3.388370e+003,1.232155e-002
3.390299e+003,1.231093e-002
3.392227e+003,1.225308e-002
3.394156e+003,1.216652e-002
3.396084e+003,1.202904e-002
3.398013e+003,1.203697e-002
3.399941e+003,1.204999e-002
3.401870e+003,1.197826e-002
3.403798e+003,1.193305e-002
3.405727e+003,1.185954e-002
3.407655e+003,1.178850e-002
3.409584e+003,1.171725e-002
3.411512e+003,1.161849e-002
3.413441e+003,1.160675e-002
3.415369e+003,1.151589e-002
3.417298e+003,1.146851e-002
3.419226e+003,1.151056e-002
3.421155e+003,1.149523e-002
3.423083e+003,1.143384e-002
3.425012e+003,1.134631e-002
3.426940e+003,1.121729e-002
3.428869e+003,1.132222e-002
3.430797e+003,1.133343e-002
3.432726e+003,1.110547e-002
3.434654e+003,1.098082e-002
3.436583e+003,1.096648e-002
3.438511e+003,1.093403e-002
3.440440e+003,1.086446e-002
3.442368e+003,1.077481e-002
3.444297e+003,1.068978e-002
3.446225e+003,1.057729e-002
3.448154e+003,1.049383e-002
3.450082e+003,1.033383e-002
3.452011e+003,1.032748e-002
3.453939e+003,1.037768e-002
3.455868e+003,1.042919e-002
3.457796e+003,1.029656e-002
3.459725e+003,1.016633e-002
3.461653e+003,1.015420e-002
3.463582e+003,1.012911e-002
3.465510e+003,1.004577e-002
3.467439e+003,9.912302e-003
3.469367e+003,9.870894e-003
3.471296e+003,9.851309e-003
3.473224e+003,9.723421e-003
3.475153e+003,9.670148e-003
3.477081e+003,9.583641e-003
3.479010e+003,9.532613e-003
3.480938e+003,9.486153e-003
3.482867e+003,9.435211e-003
3.484795e+003,9.399632e-003
3.486724e+003,9.338419e-003
3.488652e+003,9.193077e-003
3.490581e+003,9.176103e-003
3.492509e+003,9.245535e-003
3.494438e+003,9.177165e-003
3.496366e+003,9.033669e-003
3.498295e+003,8.908092e-003
3.500223e+003,8.845330e-003
3.502152e+003,8.746714e-003
3.504080e+003,8.716307e-003
3.506009e+003,8.702447e-003
3.507937e+003,8.741384e-003
3.509866e+003,8.596727e-003
3.511794e+003,8.547933e-003
3.513723e+003,8.642309e-003
3.515651e+003,8.497521e-003
3.517580e+003,8.368814e-003
3.519508e+003,8.371276e-003
3.521437e+003,8.355347e-003
3.523365e+003,8.321841e-003
3.525294e+003,8.212125e-003
3.527222e+003,8.088618e-003
3.529151e+003,8.044071e-003
3.531079e+003,7.963344e-003
3.533008e+003,7.984679e-003
3.534936e+003,8.022017e-003
3.536865e+003,7.994222e-003
3.538793e+003,7.886587e-003
3.540722e+003,7.834570e-003
3.542650e+003,7.786771e-003
3.544579e+003,7.707544e-003
3.546507e+003,7.593918e-003
3.548436e+003,7.537583e-003
3.550364e+003,7.547396e-003
3.552293e+003,7.428893e-003
3.554221e+003,7.282257e-003
3.556150e+003,7.348535e-003
3.558078e+003,7.268200e-003
3.560007e+003,7.160016e-003
3.561935e+003,7.256134e-003
3.563864e+003,7.312580e-003
3.565792e+003,7.240672e-003
3.567721e+003,7.106396e-003
3.569649e+003,6.992232e-003
3.571578e+003,6.916552e-003
3.573506e+003,6.882290e-003
3.575435e+003,6.831229e-003
3.577363e+003,6.743439e-003
3.579292e+003,6.674224e-003
3.581220e+003,6.621337e-003
3.583149e+003,6.471294e-003
3.585077e+003,6.264075e-003
3.587006e+003,6.159601e-003
3.588934e+003,6.107964e-003
3.590863e+003,6.018774e-003
3.592791e+003,5.897511e-003
3.594720e+003,5.778514e-003
3.596648e+003,5.667191e-003
3.598577e+003,5.605529e-003
3.600505e+003,5.625529e-003
3.602434e+003,5.635523e-003
3.604362e+003,5.613238e-003
3.606291e+003,5.630495e-003
3.608219e+003,5.718299e-003
3.610148e+003,5.940324e-003
3.612076e+003,6.166149e-003
3.614005e+003,6.095386e-003
3.615933e+003,5.699282e-003
3.617862e+003,5.422214e-003
3.619790e+003,5.202786e-003
3.621719e+003,4.932022e-003
3.623647e+003,4.834625e-003
3.625576e+003,4.865618e-003
3.627504e+003,4.818478e-003
3.629433e+003,4.761994e-003
3.631361e+003,4.976906e-003
3.633290e+003,5.188233e-003
3.635218e+003,5.349149e-003
3.637146e+003,5.395029e-003
3.639075e+003,5.451073e-003
3.641004e+003,5.503200e-003
3.642932e+003,5.546521e-003
3.644861e+003,5.637623e-003
3.646789e+003,5.748181e-003
3.648718e+003,5.741825e-003
3.650646e+003,5.624976e-003
3.652574e+003,5.567064e-003
3.654503e+003,5.618194e-003
3.656432e+003,5.621064e-003
3.658360e+003,5.666208e-003
3.660289e+003,5.651170e-003
3.662217e+003,5.558310e-003
3.664146e+003,5.520108e-003
3.666074e+003,5.591386e-003
3.668002e+003,5.633856e-003
3.669931e+003,5.541646e-003
3.671860e+003,5.471229e-003
3.673788e+003,5.542763e-003
3.675717e+003,5.417038e-003
3.677645e+003,5.203567e-003
3.679573e+003,5.128318e-003
3.681502e+003,5.180626e-003
3.683430e+003,5.173232e-003
3.685359e+003,4.936319e-003
3.687288e+003,4.882591e-003
3.689216e+003,4.720246e-003
3.691145e+003,4.421961e-003
3.693073e+003,4.282497e-003
3.695001e+003,4.167723e-003
3.696930e+003,4.096433e-003
3.698858e+003,4.048469e-003
3.700787e+003,3.883248e-003
3.702716e+003,3.806276e-003
3.704644e+003,3.950772e-003
3.706573e+003,4.156907e-003
3.708501e+003,4.294984e-003
3.710429e+003,4.498841e-003
3.712358e+003,4.756342e-003
3.714286e+003,4.861041e-003
3.716215e+003,4.651984e-003
3.718144e+003,4.307893e-003
3.720072e+003,3.954683e-003
3.722000e+003,3.649974e-003
3.723929e+003,3.610167e-003
3.725857e+003,3.483223e-003
3.727786e+003,3.382886e-003
3.729714e+003,3.393543e-003
3.731643e+003,3.403977e-003
3.733572e+003,3.646482e-003
3.735500e+003,3.877606e-003
3.737428e+003,4.144350e-003
3.739357e+003,4.368015e-003
3.741285e+003,4.555809e-003
3.743214e+003,4.778880e-003
3.745142e+003,4.938035e-003
3.747071e+003,5.035832e-003
3.749000e+003,5.089802e-003
3.750928e+003,5.256063e-003
3.752856e+003,5.336238e-003
3.754785e+003,5.234015e-003
3.756713e+003,5.217689e-003
3.758642e+003,5.190136e-003
3.760570e+003,5.214789e-003
3.762499e+003,5.208466e-003
3.764427e+003,5.092954e-003
3.766356e+003,5.094761e-003
3.768284e+003,5.146315e-003
3.770213e+003,5.135143e-003
3.772141e+003,5.188497e-003
3.774070e+003,5.271957e-003
3.775998e+003,5.301413e-003
3.777927e+003,5.233820e-003
3.779855e+003,5.263840e-003
3.781784e+003,5.259582e-003
3.783712e+003,5.249549e-003
3.785641e+003,5.326851e-003
3.787569e+003,5.346328e-003
3.789498e+003,5.347725e-003
3.791426e+003,5.349405e-003
3.793355e+003,5.359151e-003
3.795283e+003,5.310377e-003
3.797212e+003,5.285075e-003
3.799140e+003,5.370648e-003
3.801069e+003,5.393392e-003
3.802997e+003,5.378567e-003
3.804926e+003,5.361073e-003
3.806854e+003,5.313894e-003
3.808783e+003,5.331596e-003
3.810711e+003,5.373483e-003
3.812640e+003,5.310006e-003
3.814568e+003,5.338969e-003
3.816497e+003,5.294519e-003
3.818425e+003,5.288022e-003
3.820354e+003,5.309128e-003
3.822282e+003,5.289903e-003
3.824211e+003,5.326362e-003
3.826139e+003,5.408085e-003
3.828068e+003,5.499300e-003
3.829996e+003,5.473126e-003
3.831925e+003,5.413106e-003
3.833853e+003,5.405452e-003
3.835782e+003,5.408517e-003
3.837710e+003,5.432072e-003
3.839639e+003,5.443986e-003
3.841567e+003,5.411298e-003
3.843496e+003,5.358292e-003
3.845424e+003,5.376069e-003
3.847353e+003,5.394785e-003
3.849281e+003,5.459743e-003
3.851210e+003,5.507336e-003
3.853138e+003,5.492751e-003
3.855067e+003,5.465283e-003
3.856995e+003,5.548102e-003
3.858924e+003,5.556560e-003
3.860852e+003,5.481431e-003
3.862781e+003,5.543295e-003
3.864709e+003,5.587500e-003
3.866638e+003,5.507108e-003
3.868566e+003,5.456447e-003
3.870495e+003,5.442339e-003
3.872423e+003,5.424633e-003
3.874352e+003,5.404663e-003
3.876280e+003,5.409725e-003
3.878209e+003,5.551938e-003
3.880137e+003,5.596808e-003
3.882066e+003,5.528062e-003
3.883994e+003,5.559351e-003
3.885923e+003,5.543387e-003
3.887851e+003,5.472160e-003
3.889780e+003,5.492788e-003
3.891708e+003,5.550066e-003
3.893637e+003,5.611707e-003
3.895565e+003,5.561920e-003
3.897494e+003,5.553666e-003
3.899422e+003,5.585831e-003
3.901351e+003,5.506585e-003
3.903279e+003,5.418854e-003
3.905208e+003,5.532041e-003
3.907136e+003,5.535005e-003
3.909065e+003,5.533303e-003
3.910993e+003,5.521455e-003
3.912922e+003,5.555779e-003
3.914850e+003,5.519308e-003
3.916779e+003,5.476359e-003
3.918707e+003,5.550710e-003
3.920636e+003,5.647432e-003
3.922564e+003,5.528288e-003
3.924493e+003,5.441365e-003
3.926421e+003,5.576508e-003
3.928350e+003,5.612786e-003
3.930278e+003,5.539425e-003
3.932207e+003,5.459171e-003
3.934135e+003,5.441704e-003
3.936064e+003,5.436826e-003
3.937992e+003,5.476465e-003
3.939921e+003,5.505155e-003
3.941849e+003,5.535125e-003
3.943778e+003,5.524963e-003
3.945706e+003,5.520806e-003
3.947635e+003,5.510865e-003
3.949563e+003,5.588798e-003
3.951492e+003,5.619742e-003
3.953420e+003,5.631521e-003
3.955349e+003,5.597674e-003
3.957277e+003,5.548954e-003
3.959206e+003,5.438869e-003
3.961134e+003,5.442773e-003
3.963063e+003,5.561786e-003
3.964991e+003,5.652975e-003
3.966920e+003,5.662173e-003
3.968848e+003,5.610985e-003
3.970777e+003,5.533337e-003
3.972705e+003,5.536601e-003
3.974634e+003,5.543896e-003
3.976562e+003,5.543626e-003
3.978491e+003,5.513594e-003
3.980419e+003,5.434901e-003
3.982348e+003,5.430532e-003
3.984276e+003,5.501969e-003
3.986205e+003,5.501669e-003
3.988133e+003,5.461201e-003
3.990062e+003,5.501001e-003
3.991990e+003,5.559058e-003
3.993919e+003,5.532686e-003
3.995847e+003,5.530819e-003
3.997776e+003,5.516187e-003
3.999704e+003,5.516584e-003
4.001633e+003,0.000000e+000
