3.991989e+002,3.682450e-002
4.011274e+002,3.301755e-002
4.030559e+002,3.301755e-002
4.049844e+002,3.490247e-002
4.069129e+002,3.639236e-002
4.088414e+002,3.756196e-002
4.107699e+002,3.661305e-002
4.126984e+002,3.638397e-002
4.146269e+002,3.632297e-002
4.165554e+002,3.683047e-002
4.184839e+002,3.657263e-002
4.204124e+002,3.663258e-002
4.223409e+002,3.741076e-002
4.242694e+002,3.840632e-002
4.261979e+002,3.895191e-002
4.281264e+002,3.801056e-002
4.300549e+002,3.837256e-002
4.319834e+002,3.860084e-002
4.339119e+002,3.876103e-002
4.358404e+002,3.936978e-002
4.377689e+002,3.908674e-002
4.396974e+002,3.878027e-002
4.416259e+002,3.848286e-002
4.435544e+002,3.822442e-002
4.454829e+002,3.837926e-002
4.474114e+002,3.831233e-002
4.493399e+002,3.796606e-002
4.512684e+002,3.787399e-002
4.531969e+002,3.758263e-002
4.551254e+002,3.829907e-002
4.570539e+002,3.846032e-002
4.589824e+002,3.828355e-002
4.609109e+002,3.781704e-002
4.628394e+002,3.767502e-002
4.647679e+002,3.799675e-002
4.666964e+002,3.738851e-002
4.686249e+002,3.713706e-002
4.705533e+002,3.719937e-002
4.724819e+002,3.752412e-002
4.744103e+002,3.744906e-002
4.763389e+002,3.712090e-002
4.782673e+002,3.568698e-002
4.801959e+002,3.496341e-002
4.821243e+002,3.493360e-002
4.840529e+002,3.459952e-002
4.859813e+002,3.424551e-002
4.879099e+002,3.420897e-002
4.898383e+002,3.414411e-002
4.917668e+002,3.358211e-002
4.936953e+002,3.276907e-002
4.956238e+002,3.242954e-002
4.975523e+002,3.292714e-002
4.994808e+002,3.292046e-002
5.014093e+002,3.312839e-002
5.033378e+002,3.285431e-002
5.052663e+002,3.271863e-002
5.071948e+002,3.257435e-002
5.091233e+002,3.240537e-002
5.110518e+002,3.229681e-002
5.129803e+002,3.268250e-002
5.149088e+002,3.287930e-002
5.168373e+002,3.333512e-002
5.187658e+002,3.307623e-002
5.206943e+002,3.346546e-002
5.226228e+002,3.341425e-002
5.245513e+002,3.324780e-002
5.264798e+002,3.326226e-002
5.284083e+002,3.349543e-002
5.303368e+002,3.307801e-002
5.322653e+002,3.285232e-002
5.341938e+002,3.257772e-002
5.361223e+002,3.244503e-002
5.380508e+002,3.211463e-002
5.399792e+002,3.239160e-002
5.419078e+002,3.200742e-002
5.438363e+002,3.162000e-002
5.457648e+002,3.135439e-002
5.476932e+002,3.187274e-002
5.496218e+002,3.208029e-002
5.515503e+002,3.225544e-002
5.534788e+002,3.207431e-002
5.554072e+002,3.230988e-002
5.573358e+002,3.255240e-002
5.592643e+002,3.229579e-002
5.611927e+002,3.189983e-002
5.631212e+002,3.214530e-002
5.650497e+002,3.214256e-002
5.669783e+002,3.213672e-002
5.689067e+002,3.207952e-002
5.708352e+002,3.209279e-002
5.727637e+002,3.202976e-002
5.746923e+002,3.197352e-002
5.766207e+002,3.179759e-002
5.785492e+002,3.166521e-002
5.804777e+002,3.133572e-002
5.824063e+002,3.103953e-002
5.843347e+002,3.068208e-002
5.862632e+002,3.061361e-002
5.881917e+002,3.038887e-002
5.901202e+002,3.041881e-002
5.920487e+002,3.021759e-002
5.939772e+002,3.033065e-002
5.959057e+002,3.029632e-002
5.978342e+002,3.007262e-002
5.997627e+002,2.969471e-002
6.016912e+002,2.956895e-002
6.036197e+002,2.942952e-002
6.055482e+002,2.960793e-002
6.074767e+002,2.942069e-002
6.094052e+002,2.941850e-002
6.113337e+002,2.902478e-002
6.132622e+002,2.884783e-002
6.151907e+002,2.839461e-002
6.171192e+002,2.801962e-002
6.190477e+002,2.786889e-002
6.209762e+002,2.771945e-002
6.229047e+002,2.737914e-002
6.248332e+002,2.701131e-002
6.267617e+002,2.639954e-002
6.286902e+002,2.629710e-002
6.306187e+002,2.621088e-002
6.325472e+002,2.615062e-002
6.344756e+002,2.590141e-002
6.364042e+002,2.561599e-002
6.383326e+002,2.531006e-002
6.402612e+002,2.502706e-002
6.421896e+002,2.468430e-002
6.441182e+002,2.478609e-002
6.460466e+002,2.473124e-002
6.479752e+002,2.459923e-002
6.499036e+002,2.444117e-002
6.518322e+002,2.437953e-002
6.537606e+002,2.424816e-002
6.556891e+002,2.436307e-002
6.576177e+002,2.431151e-002
6.595461e+002,2.423534e-002
6.614746e+002,2.405161e-002
6.634031e+002,2.414501e-002
6.653317e+002,2.412051e-002
6.672601e+002,2.397558e-002
6.691886e+002,2.393571e-002
6.711171e+002,2.378481e-002
6.730457e+002,2.316295e-002
6.749741e+002,2.273341e-002
6.769026e+002,2.255051e-002
6.788311e+002,2.233807e-002
6.807596e+002,2.196121e-002
6.826881e+002,2.162939e-002
6.846166e+002,2.131742e-002
6.865451e+002,2.127218e-002
6.884736e+002,2.130482e-002
6.904021e+002,2.130361e-002
6.923306e+002,2.137260e-002
6.942591e+002,2.141853e-002
6.961876e+002,2.127752e-002
6.981161e+002,2.118112e-002
7.000446e+002,2.114084e-002
7.019731e+002,2.118065e-002
7.039016e+002,2.090782e-002
7.058301e+002,2.088044e-002
7.077585e+002,2.086325e-002
7.096871e+002,2.072356e-002
7.116156e+002,2.047415e-002
7.135441e+002,2.025503e-002
7.154725e+002,2.005930e-002
7.174011e+002,2.008863e-002
7.193296e+002,1.980597e-002
7.212581e+002,1.954595e-002
7.231865e+002,1.950078e-002
7.251151e+002,1.948824e-002
7.270436e+002,1.923875e-002
7.289720e+002,1.899038e-002
7.309005e+002,1.874908e-002
7.328290e+002,1.866459e-002
7.347576e+002,1.851372e-002
7.366860e+002,1.851995e-002
7.386145e+002,1.836392e-002
7.405430e+002,1.819133e-002
7.424716e+002,1.807031e-002
7.444000e+002,1.801816e-002
7.463285e+002,1.783677e-002
7.482570e+002,1.789952e-002
7.501855e+002,1.791218e-002
7.521140e+002,1.788079e-002
7.540425e+002,1.772304e-002
7.559710e+002,1.769197e-002
7.578995e+002,1.765642e-002
7.598280e+002,1.763390e-002
7.617565e+002,1.752604e-002
7.636850e+002,1.755247e-002
7.656135e+002,1.737548e-002
7.675420e+002,1.722284e-002
7.694705e+002,1.718567e-002
7.713990e+002,1.717661e-002
7.733275e+002,1.698675e-002
7.752560e+002,1.692563e-002
7.771844e+002,1.684416e-002
7.791130e+002,1.677397e-002
7.810415e+002,1.661527e-002
7.829700e+002,1.664219e-002
7.848984e+002,1.657551e-002
7.868270e+002,1.650904e-002
7.887555e+002,1.647697e-002
7.906840e+002,1.647301e-002
7.926124e+002,1.635853e-002
7.945410e+002,1.623513e-002
7.964695e+002,1.615293e-002
7.983979e+002,1.622629e-002
8.003264e+002,1.619124e-002
8.022549e+002,1.608412e-002
8.041835e+002,1.596386e-002
8.061119e+002,1.591639e-002
8.080404e+002,1.587378e-002
8.099689e+002,1.584972e-002
8.118975e+002,1.579773e-002
8.138259e+002,1.580202e-002
8.157545e+002,1.570950e-002
8.176830e+002,1.565677e-002
8.196115e+002,1.550891e-002
8.215399e+002,1.546170e-002
8.234684e+002,1.535778e-002
8.253970e+002,1.534717e-002
8.273254e+002,1.533900e-002
8.292539e+002,1.542462e-002
8.311824e+002,1.534556e-002
8.331110e+002,1.541772e-002
8.350394e+002,1.542026e-002
8.369679e+002,1.536653e-002
8.388964e+002,1.537089e-002
8.408250e+002,1.534257e-002
8.427534e+002,1.538009e-002
8.446819e+002,1.544076e-002
8.466104e+002,1.534570e-002
8.485389e+002,1.526555e-002
8.504674e+002,1.532026e-002
8.523959e+002,1.543949e-002
8.543244e+002,1.541693e-002
8.562529e+002,1.543392e-002
8.581814e+002,1.546702e-002
8.601099e+002,1.565055e-002
8.620384e+002,1.564254e-002
8.639669e+002,1.569153e-002
8.658954e+002,1.561328e-002
8.678239e+002,1.554428e-002
8.697524e+002,1.552000e-002
8.716809e+002,1.561926e-002
8.736094e+002,1.569452e-002
8.755378e+002,1.563269e-002
8.774664e+002,1.565824e-002
8.793949e+002,1.584755e-002
8.813234e+002,1.599601e-002
8.832518e+002,1.621511e-002
8.851804e+002,1.644668e-002
8.871089e+002,1.672400e-002
8.890374e+002,1.699498e-002
8.909658e+002,1.731417e-002
8.928943e+002,1.756013e-002
8.948229e+002,1.780422e-002
8.967513e+002,1.791750e-002
8.986798e+002,1.794412e-002
9.006083e+002,1.778579e-002
9.025369e+002,1.763614e-002
9.044653e+002,1.753832e-002
9.063938e+002,1.754526e-002
9.083223e+002,1.737083e-002
9.102509e+002,1.736593e-002
9.121793e+002,1.743987e-002
9.141078e+002,1.754067e-002
9.160364e+002,1.765022e-002
9.179648e+002,1.780685e-002
9.198933e+002,1.796374e-002
9.218218e+002,1.821234e-002
9.237504e+002,1.833164e-002
9.256788e+002,1.848633e-002
9.276073e+002,1.855950e-002
9.295358e+002,1.870708e-002
9.314644e+002,1.889150e-002
9.333928e+002,1.916231e-002
9.353213e+002,1.934086e-002
9.372498e+002,1.946677e-002
9.391783e+002,1.964007e-002
9.411068e+002,1.991600e-002
9.430353e+002,2.018121e-002
9.449637e+002,2.049073e-002
9.468923e+002,2.079803e-002
9.488208e+002,2.107039e-002
9.507493e+002,2.149214e-002
9.526777e+002,2.193598e-002
9.546063e+002,2.228654e-002
9.565348e+002,2.271070e-002
9.584633e+002,2.320703e-002
9.603917e+002,2.371424e-002
9.623203e+002,2.420306e-002
9.642488e+002,2.465919e-002
9.661772e+002,2.506433e-002
9.681057e+002,2.554866e-002
9.700343e+002,2.600026e-002
9.719628e+002,2.644341e-002
9.738912e+002,2.694649e-002
9.758197e+002,2.758158e-002
9.777483e+002,2.833490e-002
9.796768e+002,2.907780e-002
9.816052e+002,2.982837e-002
9.835337e+002,3.066453e-002
9.854623e+002,3.149674e-002
9.873907e+002,3.231182e-002
9.893192e+002,3.288732e-002
9.912477e+002,3.330795e-002
9.931763e+002,3.363352e-002
9.951047e+002,3.392411e-002
9.970332e+002,3.417023e-002
9.989617e+002,3.450965e-002
1.000890e+003,3.487562e-002
1.002819e+003,3.525425e-002
1.004747e+003,3.556377e-002
1.006676e+003,3.595211e-002
1.008604e+003,3.630175e-002
1.010533e+003,3.666512e-002
1.012461e+003,3.712554e-002
1.014390e+003,3.774824e-002
1.016318e+003,3.830110e-002
1.018247e+003,3.878316e-002
1.020175e+003,3.920039e-002
1.022104e+003,3.959613e-002
1.024032e+003,3.995897e-002
1.025961e+003,4.031530e-002
1.027889e+003,4.052597e-002
1.029818e+003,4.064148e-002
1.031746e+003,4.069867e-002
1.033675e+003,4.063962e-002
1.035603e+003,4.047268e-002
1.037532e+003,4.020694e-002
1.039460e+003,3.985468e-002
1.041389e+003,3.945467e-002
1.043317e+003,3.901185e-002
1.045246e+003,3.873802e-002
1.047174e+003,3.842159e-002
1.049103e+003,3.806091e-002
1.051031e+003,3.773273e-002
1.052960e+003,3.729777e-002
1.054888e+003,3.676641e-002
1.056817e+003,3.615415e-002
1.058745e+003,3.544130e-002
1.060674e+003,3.475761e-002
1.062602e+003,3.404719e-002
1.064531e+003,3.335972e-002
1.066459e+003,3.272124e-002
1.068388e+003,3.233973e-002
1.070316e+003,3.217753e-002
1.072245e+003,3.216375e-002
1.074173e+003,3.208473e-002
1.076102e+003,3.183401e-002
1.078030e+003,3.131957e-002
1.079959e+003,3.067192e-002
1.081887e+003,3.000031e-002
1.083816e+003,2.939068e-002
1.085744e+003,2.881702e-002
1.087673e+003,2.834357e-002
1.089601e+003,2.793055e-002
1.091530e+003,2.753113e-002
1.093458e+003,2.721406e-002
1.095387e+003,2.699187e-002
1.097315e+003,2.684747e-002
1.099244e+003,2.678188e-002
1.101172e+003,2.666451e-002
1.103101e+003,2.649124e-002
1.105029e+003,2.623630e-002
1.106958e+003,2.589396e-002
1.108886e+003,2.539350e-002
1.110815e+003,2.487808e-002
1.112743e+003,2.425401e-002
1.114672e+003,2.359171e-002
1.116600e+003,2.305106e-002
1.118529e+003,2.257216e-002
1.120457e+003,2.209102e-002
1.122386e+003,2.163062e-002
1.124314e+003,2.122293e-002
1.126243e+003,2.072358e-002
1.128171e+003,2.014758e-002
1.130100e+003,1.964281e-002
1.132028e+003,1.919906e-002
1.133957e+003,1.883886e-002
1.135885e+003,1.853478e-002
1.137814e+003,1.838915e-002
1.139742e+003,1.839890e-002
1.141671e+003,1.849570e-002
1.143599e+003,1.871185e-002
1.145528e+003,1.889593e-002
1.147456e+003,1.905058e-002
1.149385e+003,1.920532e-002
1.151313e+003,1.937325e-002
1.153242e+003,1.945686e-002
1.155170e+003,1.946133e-002
1.157099e+003,1.933106e-002
1.159027e+003,1.910476e-002
1.160956e+003,1.887101e-002
1.162884e+003,1.844139e-002
1.164813e+003,1.793932e-002
1.166741e+003,1.736824e-002
1.168670e+003,1.668044e-002
1.170598e+003,1.598122e-002
1.172526e+003,1.536046e-002
1.174455e+003,1.475642e-002
1.176384e+003,1.428218e-002
1.178312e+003,1.387767e-002
1.180240e+003,1.350931e-002
1.182169e+003,1.321802e-002
1.184098e+003,1.304566e-002
1.186026e+003,1.286362e-002
1.187954e+003,1.275667e-002
1.189883e+003,1.267837e-002
1.191812e+003,1.272433e-002
1.193740e+003,1.278805e-002
1.195668e+003,1.288689e-002
1.197597e+003,1.303244e-002
1.199526e+003,1.315066e-002
1.201454e+003,1.320050e-002
1.203382e+003,1.330028e-002
1.205311e+003,1.328218e-002
1.207240e+003,1.321872e-002
1.209168e+003,1.320955e-002
1.211096e+003,1.324629e-002
1.213025e+003,1.328881e-002
1.214953e+003,1.334062e-002
1.216882e+003,1.345549e-002
1.218810e+003,1.358111e-002
1.220739e+003,1.370697e-002
1.222667e+003,1.383590e-002
1.224596e+003,1.394118e-002
1.226524e+003,1.411671e-002
1.228453e+003,1.430756e-002
1.230381e+003,1.446451e-002
1.232310e+003,1.455871e-002
1.234238e+003,1.459571e-002
1.236167e+003,1.463821e-002
1.238095e+003,1.468056e-002
1.240024e+003,1.461401e-002
1.241952e+003,1.456403e-002
1.243881e+003,1.450706e-002
1.245809e+003,1.442680e-002
1.247738e+003,1.431247e-002
1.249666e+003,1.417675e-002
1.251595e+003,1.397074e-002
1.253523e+003,1.381027e-002
1.255452e+003,1.366791e-002
1.257380e+003,1.351020e-002
1.259309e+003,1.331778e-002
1.261237e+003,1.311574e-002
1.263166e+003,1.296144e-002
1.265094e+003,1.279614e-002
1.267023e+003,1.260969e-002
1.268951e+003,1.244778e-002
1.270880e+003,1.227673e-002
1.272808e+003,1.212978e-002
1.274737e+003,1.203453e-002
1.276665e+003,1.196142e-002
1.278594e+003,1.185470e-002
1.280522e+003,1.177348e-002
1.282451e+003,1.170767e-002
1.284379e+003,1.168664e-002
1.286308e+003,1.160984e-002
1.288236e+003,1.153105e-002
1.290165e+003,1.150716e-002
1.292093e+003,1.154524e-002
1.294022e+003,1.153764e-002
1.295950e+003,1.162311e-002
1.297879e+003,1.170111e-002
1.299807e+003,1.176745e-002
1.301736e+003,1.181530e-002
1.303664e+003,1.191934e-002
1.305593e+003,1.204873e-002
1.307521e+003,1.216412e-002
1.309450e+003,1.227572e-002
1.311378e+003,1.239609e-002
1.313307e+003,1.245746e-002
1.315235e+003,1.250139e-002
1.317164e+003,1.250045e-002
1.319092e+003,1.243781e-002
1.321021e+003,1.239350e-002
1.322949e+003,1.234823e-002
1.324878e+003,1.232333e-002
1.326806e+003,1.229384e-002
1.328735e+003,1.230228e-002
1.330663e+003,1.227723e-002
1.332592e+003,1.226589e-002
1.334520e+003,1.227963e-002
1.336449e+003,1.223160e-002
1.338377e+003,1.215933e-002
1.340306e+003,1.210596e-002
1.342234e+003,1.207168e-002
1.344163e+003,1.199557e-002
1.346091e+003,1.199609e-002
1.348020e+003,1.198995e-002
1.349948e+003,1.202909e-002
1.351877e+003,1.206908e-002
1.353805e+003,1.209191e-002
1.355734e+003,1.218204e-002
1.357662e+003,1.228329e-002
1.359591e+003,1.234682e-002
1.361519e+003,1.239356e-002
1.363448e+003,1.249011e-002
1.365376e+003,1.262757e-002
1.367305e+003,1.265245e-002
1.369233e+003,1.262274e-002
1.371162e+003,1.258766e-002
1.373090e+003,1.251424e-002
1.375019e+003,1.244165e-002
1.376947e+003,1.233495e-002
1.378876e+003,1.221261e-002
1.380804e+003,1.207226e-002
1.382733e+003,1.189579e-002
1.384661e+003,1.175257e-002
1.386590e+003,1.165589e-002
1.388518e+003,1.155847e-002
1.390447e+003,1.149975e-002
1.392375e+003,1.147251e-002
1.394304e+003,1.139328e-002
1.396232e+003,1.133488e-002
1.398161e+003,1.135811e-002
1.400089e+003,1.140962e-002
1.402018e+003,1.141203e-002
1.403946e+003,1.138803e-002
1.405875e+003,1.139950e-002
1.407803e+003,1.148820e-002
1.409732e+003,1.153076e-002
1.411660e+003,1.152372e-002
1.413589e+003,1.155293e-002
1.415517e+003,1.158556e-002
1.417446e+003,1.160514e-002
1.419374e+003,1.167409e-002
1.421303e+003,1.166970e-002
1.423231e+003,1.162152e-002
1.425160e+003,1.160257e-002
1.427088e+003,1.161891e-002
1.429017e+003,1.158979e-002
1.430945e+003,1.151207e-002
1.432874e+003,1.146023e-002
1.434802e+003,1.141811e-002
1.436731e+003,1.138212e-002
1.438659e+003,1.134136e-002
1.440588e+003,1.126445e-002
1.442516e+003,1.124967e-002
1.444445e+003,1.124906e-002
1.446373e+003,1.121072e-002
1.448302e+003,1.119785e-002
1.450230e+003,1.120682e-002
1.452159e+003,1.116421e-002
1.454087e+003,1.109517e-002
1.456016e+003,1.103400e-002
1.457944e+003,1.094560e-002
1.459873e+003,1.084450e-002
1.461801e+003,1.075115e-002
1.463730e+003,1.056107e-002
1.465658e+003,1.042670e-002
1.467587e+003,1.025621e-002
1.469515e+003,9.996137e-003
1.471444e+003,9.657566e-003
1.473372e+003,9.420664e-003
1.475301e+003,9.214047e-003
1.477229e+003,9.049282e-003
1.479158e+003,8.955134e-003
1.481086e+003,8.930084e-003
1.483015e+003,8.979660e-003
1.484943e+003,9.005016e-003
1.486872e+003,9.032614e-003
1.488800e+003,9.091714e-003
1.490729e+003,9.222278e-003
1.492657e+003,9.397459e-003
1.494586e+003,9.597458e-003
1.496514e+003,9.780758e-003
1.498443e+003,9.881948e-003
1.500371e+003,1.008301e-002
1.502300e+003,1.029672e-002
1.504228e+003,1.046537e-002
1.506157e+003,1.057153e-002
1.508085e+003,1.073206e-002
1.510014e+003,1.090940e-002
1.511942e+003,1.110781e-002
1.513871e+003,1.120209e-002
1.515799e+003,1.122240e-002
1.517728e+003,1.122124e-002
1.519656e+003,1.121254e-002
1.521585e+003,1.113502e-002
1.523513e+003,1.109577e-002
1.525442e+003,1.105006e-002
1.527370e+003,1.102982e-002
1.529299e+003,1.108362e-002
1.531227e+003,1.109674e-002
1.533156e+003,1.106246e-002
1.535084e+003,1.112494e-002
1.537013e+003,1.111109e-002
1.538941e+003,1.110548e-002
1.540870e+003,1.102491e-002
1.542798e+003,1.094329e-002
1.544727e+003,1.086430e-002
1.546655e+003,1.085405e-002
1.548584e+003,1.073599e-002
1.550512e+003,1.060191e-002
1.552441e+003,1.047725e-002
1.554369e+003,1.038357e-002
1.556298e+003,1.025316e-002
1.558226e+003,1.010300e-002
1.560155e+003,1.009510e-002
1.562083e+003,9.983996e-003
1.564012e+003,9.817057e-003
1.565940e+003,9.773464e-003
1.567869e+003,9.739430e-003
1.569797e+003,9.698036e-003
1.571726e+003,9.711053e-003
1.573654e+003,9.746076e-003
1.575583e+003,9.795595e-003
1.577511e+003,9.842077e-003
1.579440e+003,9.846212e-003
1.581368e+003,9.898980e-003
1.583297e+003,9.968054e-003
1.585225e+003,1.007515e-002
1.587154e+003,1.016005e-002
1.589082e+003,1.027202e-002
1.591010e+003,1.036158e-002
1.592939e+003,1.049272e-002
1.594868e+003,1.058513e-002
1.596796e+003,1.072597e-002
1.598724e+003,1.084341e-002
1.600653e+003,1.098217e-002
1.602582e+003,1.107586e-002
1.604510e+003,1.122889e-002
1.606438e+003,1.142778e-002
1.608367e+003,1.160902e-002
1.610296e+003,1.176471e-002
1.612224e+003,1.197002e-002
1.614152e+003,1.220484e-002
1.616081e+003,1.256017e-002
1.618010e+003,1.287981e-002
1.619938e+003,1.311014e-002
1.621866e+003,1.333227e-002
1.623795e+003,1.355441e-002
1.625724e+003,1.373868e-002
1.627652e+003,1.382078e-002
1.629580e+003,1.388390e-002
1.631509e+003,1.385604e-002
1.633438e+003,1.373379e-002
1.635366e+003,1.361503e-002
1.637294e+003,1.363264e-002
1.639223e+003,1.360577e-002
1.641151e+003,1.362107e-002
1.643080e+003,1.354168e-002
1.645008e+003,1.354070e-002
1.646937e+003,1.354217e-002
1.648865e+003,1.355503e-002
1.650794e+003,1.355432e-002
1.652722e+003,1.353336e-002
1.654651e+003,1.347390e-002
1.656579e+003,1.329600e-002
1.658508e+003,1.317719e-002
1.660436e+003,1.299960e-002
1.662365e+003,1.275452e-002
1.664293e+003,1.251615e-002
1.666222e+003,1.225822e-002
1.668150e+003,1.194917e-002
1.670079e+003,1.171745e-002
1.672007e+003,1.150813e-002
1.673936e+003,1.123263e-002
1.675864e+003,1.099473e-002
1.677793e+003,1.075492e-002
1.679721e+003,1.051218e-002
1.681650e+003,1.027072e-002
1.683578e+003,1.007410e-002
1.685507e+003,9.960501e-003
1.687435e+003,9.639250e-003
1.689364e+003,9.379215e-003
1.691292e+003,9.212462e-003
1.693221e+003,9.056604e-003
1.695149e+003,8.995166e-003
1.697078e+003,8.806453e-003
1.699006e+003,8.458015e-003
1.700935e+003,8.321941e-003
1.702863e+003,8.168112e-003
1.704792e+003,8.055916e-003
1.706720e+003,8.016469e-003
1.708649e+003,8.051341e-003
1.710577e+003,8.026446e-003
1.712506e+003,8.010354e-003
1.714434e+003,8.031266e-003
1.716363e+003,8.116212e-003
1.718291e+003,8.138930e-003
1.720220e+003,8.171476e-003
1.722148e+003,8.170160e-003
1.724077e+003,8.197383e-003
1.726005e+003,8.234156e-003
1.727934e+003,8.256095e-003
1.729862e+003,8.232175e-003
1.731791e+003,8.205862e-003
1.733719e+003,8.178255e-003
1.735648e+003,8.110069e-003
1.737576e+003,7.918627e-003
1.739505e+003,7.735904e-003
1.741433e+003,7.622661e-003
1.743362e+003,7.454296e-003
1.745290e+003,7.313102e-003
1.747219e+003,7.156368e-003
1.749147e+003,6.995729e-003
1.751076e+003,6.875964e-003
1.753004e+003,6.704640e-003
1.754933e+003,6.645903e-003
1.756861e+003,6.579981e-003
1.758790e+003,6.505441e-003
1.760718e+003,6.416576e-003
1.762647e+003,6.380062e-003
1.764575e+003,6.301438e-003
1.766504e+003,6.262884e-003
1.768432e+003,6.198564e-003
1.770361e+003,6.113819e-003
1.772289e+003,6.130929e-003
1.774218e+003,6.184205e-003
1.776146e+003,6.161986e-003
1.778075e+003,6.181311e-003
1.780003e+003,6.106769e-003
1.781932e+003,6.058724e-003
1.783860e+003,6.082765e-003
1.785789e+003,6.065238e-003
1.787717e+003,5.984786e-003
1.789646e+003,6.000066e-003
1.791574e+003,6.024223e-003
1.793503e+003,6.094316e-003
1.795431e+003,6.066926e-003
1.797360e+003,6.022207e-003
1.799288e+003,6.064777e-003
1.801217e+003,6.157723e-003
1.803145e+003,6.114770e-003
1.805074e+003,6.033560e-003
1.807002e+003,5.965621e-003
1.808931e+003,5.914695e-003
1.810859e+003,5.934908e-003
1.812788e+003,5.999630e-003
1.814716e+003,6.026984e-003
1.816645e+003,6.001559e-003
1.818573e+003,5.889948e-003
1.820502e+003,5.909111e-003
1.822430e+003,5.974370e-003
1.824359e+003,5.914223e-003
1.826287e+003,5.814094e-003
1.828216e+003,5.731674e-003
1.830144e+003,5.750697e-003
1.832073e+003,5.780910e-003
1.834001e+003,5.801050e-003
1.835930e+003,5.700521e-003
1.837858e+003,5.584188e-003
1.839787e+003,5.642205e-003
1.841715e+003,5.758259e-003
1.843644e+003,5.734938e-003
1.845572e+003,5.658306e-003
1.847501e+003,5.577567e-003
1.849429e+003,5.572608e-003
1.851358e+003,5.621551e-003
1.853286e+003,5.563271e-003
1.855215e+003,5.562133e-003
1.857143e+003,5.594630e-003
1.859072e+003,5.652427e-003
1.861000e+003,5.730957e-003
1.862929e+003,5.728176e-003
1.864857e+003,5.566479e-003
1.866786e+003,5.579045e-003
1.868714e+003,5.565384e-003
1.870643e+003,5.542724e-003
1.872571e+003,5.534687e-003
1.874500e+003,5.529216e-003
1.876428e+003,5.498826e-003
1.878357e+003,5.381751e-003
1.880285e+003,5.377613e-003
1.882214e+003,5.477411e-003
1.884142e+003,5.470926e-003
1.886071e+003,5.455100e-003
1.887999e+003,5.362579e-003
1.889928e+003,5.393916e-003
1.891856e+003,5.320589e-003
1.893785e+003,5.283156e-003
1.895713e+003,5.140730e-003
1.897642e+003,5.167942e-003
1.899570e+003,5.365809e-003
1.901499e+003,5.463429e-003
1.903427e+003,5.166170e-003
1.905356e+003,4.981076e-003
1.907284e+003,5.105055e-003
1.909213e+003,5.110353e-003
1.911141e+003,4.923121e-003
1.913070e+003,4.950621e-003
1.914998e+003,4.987657e-003
1.916927e+003,4.816396e-003
1.918855e+003,4.533375e-003
1.920784e+003,4.360716e-003
1.922712e+003,4.426253e-003
1.924641e+003,4.543162e-003
1.926569e+003,4.352464e-003
1.928498e+003,4.252527e-003
1.930426e+003,4.271394e-003
1.932355e+003,4.141067e-003
1.934283e+003,4.089846e-003
1.936212e+003,4.362860e-003
1.938140e+003,4.317699e-003
1.940069e+003,3.881124e-003
1.941997e+003,3.757072e-003
1.943926e+003,3.791274e-003
1.945854e+003,3.490038e-003
1.947783e+003,3.192073e-003
1.949711e+003,3.199627e-003
1.951640e+003,3.383602e-003
1.953568e+003,3.047256e-003
1.955497e+003,2.263202e-003
1.957425e+003,1.711569e-003
1.959354e+003,1.190741e-003
1.961282e+003,1.175524e-003
1.963211e+003,7.623556e-004
1.965139e+003,-2.402104e-004
1.967068e+003,-4.714504e-004
1.968996e+003,-2.308294e-004
1.970925e+003,-1.925579e-004
1.972853e+003,-6.768107e-004
1.974782e+003,-1.854943e-003
1.976710e+003,-2.705342e-003
1.978639e+003,-2.370840e-003
1.980567e+003,-1.299772e-003
1.982496e+003,-1.043174e-004
1.984424e+003,6.530315e-004
1.986353e+003,1.119977e-003
1.988281e+003,1.087154e-003
1.990210e+003,1.419290e-003
1.992138e+003,1.893302e-003
1.994067e+003,1.703085e-003
1.995995e+003,1.510956e-003
1.997924e+003,1.697596e-003
1.999852e+003,9.742427e-004
2.001781e+003,9.333277e-004
2.003709e+003,1.131201e-003
2.005638e+003,-5.553922e-005
2.007566e+003,-1.687832e-003
2.009495e+003,-1.730336e-003
2.011423e+003,-1.688228e-003
2.013352e+003,-2.607940e-003
2.015280e+003,-2.477362e-003
2.017208e+003,-1.512977e-003
2.019137e+003,-1.318243e-003
2.021066e+003,-6.961398e-004
2.022994e+003,-7.524333e-004
2.024922e+003,-1.878277e-003
2.026851e+003,-1.214423e-003
2.028780e+003,-8.915447e-004
2.030708e+003,-1.137809e-003
2.032636e+003,-1.471729e-003
2.034565e+003,-9.499692e-004
2.036494e+003,-1.023371e-003
2.038422e+003,-2.781759e-004
2.040350e+003,5.237174e-004
2.042279e+003,3.356308e-004
2.044208e+003,2.360264e-004
2.046136e+003,4.165180e-004
2.048064e+003,9.512500e-004
2.049993e+003,1.371377e-003
2.051921e+003,1.871047e-003
2.053850e+003,2.546847e-003
2.055778e+003,3.090599e-003
2.057707e+003,3.356927e-003
2.059635e+003,3.182536e-003
2.061564e+003,2.879808e-003
2.063492e+003,3.032335e-003
2.065421e+003,3.554204e-003
2.067349e+003,3.671731e-003
2.069278e+003,3.704290e-003
2.071206e+003,4.352309e-003
2.073135e+003,4.286611e-003
2.075063e+003,3.925358e-003
2.076992e+003,4.068614e-003
2.078920e+003,4.500964e-003
2.080849e+003,4.741052e-003
2.082777e+003,4.864302e-003
2.084706e+003,4.675126e-003
2.086634e+003,4.958412e-003
2.088563e+003,4.977846e-003
2.090491e+003,4.726828e-003
2.092420e+003,4.603341e-003
2.094348e+003,4.640931e-003
2.096277e+003,4.526618e-003
2.098205e+003,4.429505e-003
2.100134e+003,4.642919e-003
2.102062e+003,4.939409e-003
2.103991e+003,4.970342e-003
2.105919e+003,4.996988e-003
2.107848e+003,4.995077e-003
2.109776e+003,4.960690e-003
2.111705e+003,5.154179e-003
2.113633e+003,5.504705e-003
2.115562e+003,5.550278e-003
2.117490e+003,5.249481e-003
2.119419e+003,4.985122e-003
2.121347e+003,5.267323e-003
2.123276e+003,5.296905e-003
2.125204e+003,5.127289e-003
2.127133e+003,5.016730e-003
2.129061e+003,4.650923e-003
2.130990e+003,4.365876e-003
2.132918e+003,4.291448e-003
2.134847e+003,4.064026e-003
2.136775e+003,3.991020e-003
2.138704e+003,4.171901e-003
2.140632e+003,4.129183e-003
2.142561e+003,4.229312e-003
2.144489e+003,3.869115e-003
2.146418e+003,2.935502e-003
2.148346e+003,2.229804e-003
2.150275e+003,1.856087e-003
2.152203e+003,1.131277e-003
2.154132e+003,6.260548e-004
2.156060e+003,1.796236e-004
2.157989e+003,-1.140829e-003
2.159917e+003,-1.887449e-003
2.161846e+003,-1.116407e-003
2.163774e+003,-3.160500e-004
2.165703e+003,5.031999e-004
2.167631e+003,1.335930e-003
2.169560e+003,2.180183e-003
2.171488e+003,2.155008e-003
2.173417e+003,1.795063e-003
2.175345e+003,1.343807e-003
2.177274e+003,1.255605e-003
2.179202e+003,1.390241e-003
2.181131e+003,1.480664e-003
2.183059e+003,2.746632e-003
2.184988e+003,3.643317e-003
2.186916e+003,3.275594e-003
2.188845e+003,3.321701e-003
2.190773e+003,3.706038e-003
2.192702e+003,3.551641e-003
2.194630e+003,4.040079e-003
2.196559e+003,4.600255e-003
2.198487e+003,4.526020e-003
2.200416e+003,4.568946e-003
2.202344e+003,4.558867e-003
2.204273e+003,4.643422e-003
2.206201e+003,4.774723e-003
2.208130e+003,4.687631e-003
2.210058e+003,4.698047e-003
2.211987e+003,4.663885e-003
2.213915e+003,4.742363e-003
2.215844e+003,5.037914e-003
2.217772e+003,5.022931e-003
2.219701e+003,5.567159e-003
2.221629e+003,5.827405e-003
2.223558e+003,5.300494e-003
2.225486e+003,5.463198e-003
2.227415e+003,5.754439e-003
2.229343e+003,5.519101e-003
2.231272e+003,5.453919e-003
2.233200e+003,5.577256e-003
2.235129e+003,5.501911e-003
2.237057e+003,5.465117e-003
2.238986e+003,5.554290e-003
2.240914e+003,6.060546e-003
2.242843e+003,6.519902e-003
2.244771e+003,6.557376e-003
2.246700e+003,6.484823e-003
2.248628e+003,6.333008e-003
2.250557e+003,5.812550e-003
2.252485e+003,5.903587e-003
2.254414e+003,5.955544e-003
2.256342e+003,6.233251e-003
2.258271e+003,6.117242e-003
2.260199e+003,5.845465e-003
2.262128e+003,5.843838e-003
2.264056e+003,5.982733e-003
2.265985e+003,6.361794e-003
2.267913e+003,6.487701e-003
2.269842e+003,6.332739e-003
2.271770e+003,6.354174e-003
2.273699e+003,6.422623e-003
2.275627e+003,6.374212e-003
2.277556e+003,6.461493e-003
2.279484e+003,6.455239e-003
2.281413e+003,6.616589e-003
2.283341e+003,6.635274e-003
2.285270e+003,6.493976e-003
2.287198e+003,6.708672e-003
2.289127e+003,6.721757e-003
2.291055e+003,6.697796e-003
2.292984e+003,6.664535e-003
2.294912e+003,6.673309e-003
2.296841e+003,6.912912e-003
2.298769e+003,6.910595e-003
2.300698e+003,6.798458e-003
2.302626e+003,6.755841e-003
2.304555e+003,7.052961e-003
2.306483e+003,7.090631e-003
2.308412e+003,6.939658e-003
2.310340e+003,6.815928e-003
2.312269e+003,7.118855e-003
2.314197e+003,7.239746e-003
2.316125e+003,7.248476e-003
2.318054e+003,7.288319e-003
2.319983e+003,7.453067e-003
2.321911e+003,7.440868e-003
2.323840e+003,7.390441e-003
2.325768e+003,7.291976e-003
2.327697e+003,7.082988e-003
2.329625e+003,6.947899e-003
2.331553e+003,6.892051e-003
2.333482e+003,6.834169e-003
2.335411e+003,6.725184e-003
2.337339e+003,6.527538e-003
2.339268e+003,6.362469e-003
2.341196e+003,6.371126e-003
2.343125e+003,6.623027e-003
2.345053e+003,6.486338e-003
2.346981e+003,6.446111e-003
2.348910e+003,6.483781e-003
2.350839e+003,6.483100e-003
2.352767e+003,6.379369e-003
2.354696e+003,6.508700e-003
2.356624e+003,6.928348e-003
2.358552e+003,6.871840e-003
2.360481e+003,6.608212e-003
2.362409e+003,6.337644e-003
2.364338e+003,6.626708e-003
2.366267e+003,6.649995e-003
2.368195e+003,6.901362e-003
2.370124e+003,7.018271e-003
2.372052e+003,6.916466e-003
2.373980e+003,6.798176e-003
2.375909e+003,6.878459e-003
2.377838e+003,6.853612e-003
2.379766e+003,6.909035e-003
2.381695e+003,6.973356e-003
2.383623e+003,6.994809e-003
2.385552e+003,7.017722e-003
2.387480e+003,7.046700e-003
2.389408e+003,7.117648e-003
2.391337e+003,7.114364e-003
2.393266e+003,7.102928e-003
2.395194e+003,7.163881e-003
2.397123e+003,7.190353e-003
2.399051e+003,7.188297e-003
2.400979e+003,7.212268e-003
2.402908e+003,7.296970e-003
2.404836e+003,7.361299e-003
2.406765e+003,7.360221e-003
2.408694e+003,7.398574e-003
2.410622e+003,7.456041e-003
2.412551e+003,7.427661e-003
2.414479e+003,7.270655e-003
2.416407e+003,7.233425e-003
2.418336e+003,7.353717e-003
2.420264e+003,7.224160e-003
2.422193e+003,7.175414e-003
2.424122e+003,7.217961e-003
2.426050e+003,7.271868e-003
2.427979e+003,7.184846e-003
2.429907e+003,7.147051e-003
2.431835e+003,7.130378e-003
2.433764e+003,7.172618e-003
2.435692e+003,7.155977e-003
2.437621e+003,7.021934e-003
2.439550e+003,6.903989e-003
2.441478e+003,6.766456e-003
2.443406e+003,6.696091e-003
2.445335e+003,6.767937e-003
2.447263e+003,6.805833e-003
2.449192e+003,6.835049e-003
2.451121e+003,6.822023e-003
2.453049e+003,6.801828e-003
2.454978e+003,6.755216e-003
2.456906e+003,6.875678e-003
2.458834e+003,6.978294e-003
2.460763e+003,7.012202e-003
2.462691e+003,6.920654e-003
2.464620e+003,6.910116e-003
2.466549e+003,6.956274e-003
2.468477e+003,6.947049e-003
2.470406e+003,7.034056e-003
2.472334e+003,7.103466e-003
2.474262e+003,7.165881e-003
2.476191e+003,7.245554e-003
2.478119e+003,7.100233e-003
2.480048e+003,7.010114e-003
2.481977e+003,6.940618e-003
2.483905e+003,6.989877e-003
2.485833e+003,7.132331e-003
2.487762e+003,7.030756e-003
2.489690e+003,6.870561e-003
2.491619e+003,6.901969e-003
2.493547e+003,6.911025e-003
2.495476e+003,6.910453e-003
2.497405e+003,7.013684e-003
2.499333e+003,6.993210e-003
2.501261e+003,6.953951e-003
2.503190e+003,7.003986e-003
2.505118e+003,7.076758e-003
2.507047e+003,7.117579e-003
2.508975e+003,7.115558e-003
2.510904e+003,6.997386e-003
2.512833e+003,7.087502e-003
2.514761e+003,6.984018e-003
2.516689e+003,6.903114e-003
2.518618e+003,7.065914e-003
2.520546e+003,7.138125e-003
2.522475e+003,7.095248e-003
2.524403e+003,7.153316e-003
2.526332e+003,7.115288e-003
2.528260e+003,7.116972e-003
2.530189e+003,6.999709e-003
2.532117e+003,6.912237e-003
2.534046e+003,7.014559e-003
2.535974e+003,7.073761e-003
2.537903e+003,7.213245e-003
2.539831e+003,7.212032e-003
2.541760e+003,7.204654e-003
2.543688e+003,7.280055e-003
2.545617e+003,7.276551e-003
2.547545e+003,7.309538e-003
2.549474e+003,7.310583e-003
2.551402e+003,7.286828e-003
2.553331e+003,7.323489e-003
2.555259e+003,7.372185e-003
2.557188e+003,7.388463e-003
2.559116e+003,7.382464e-003
2.561045e+003,7.247070e-003
2.562973e+003,7.216041e-003
2.564902e+003,7.278505e-003
2.566830e+003,7.452772e-003
2.568759e+003,7.557952e-003
2.570687e+003,7.463053e-003
2.572616e+003,7.429885e-003
2.574544e+003,7.463188e-003
2.576473e+003,7.426851e-003
2.578401e+003,7.452435e-003
2.580330e+003,7.502965e-003
2.582258e+003,7.429177e-003
2.584187e+003,7.519956e-003
2.586115e+003,7.492144e-003
2.588044e+003,7.529329e-003
2.589972e+003,7.725417e-003
2.591901e+003,7.716243e-003
2.593829e+003,7.718401e-003
2.595758e+003,7.682718e-003
2.597686e+003,7.671690e-003
2.599615e+003,7.750039e-003
2.601543e+003,7.786740e-003
2.603472e+003,7.686496e-003
2.605400e+003,7.681470e-003
2.607329e+003,7.796219e-003
2.609257e+003,7.837410e-003
2.611186e+003,7.864570e-003
2.613114e+003,7.832754e-003
2.615043e+003,7.779049e-003
2.616971e+003,7.760766e-003
2.618900e+003,7.766366e-003
2.620828e+003,7.771763e-003
2.622757e+003,7.823646e-003
2.624685e+003,7.855224e-003
2.626614e+003,7.851006e-003
2.628542e+003,7.920581e-003
2.630471e+003,7.924563e-003
2.632399e+003,7.882047e-003
2.634328e+003,7.884342e-003
2.636256e+003,7.859712e-003
2.638185e+003,7.832822e-003
2.640113e+003,7.883195e-003
2.642042e+003,7.940794e-003
2.643970e+003,7.993407e-003
2.645899e+003,8.016391e-003
2.647827e+003,8.042481e-003
2.649756e+003,8.079072e-003
2.651684e+003,8.130654e-003
2.653613e+003,8.111040e-003
2.655541e+003,8.164483e-003
2.657470e+003,8.196187e-003
2.659398e+003,8.189097e-003
2.661327e+003,8.215839e-003
2.663255e+003,8.263386e-003
2.665184e+003,8.340288e-003
2.667112e+003,8.322724e-003
2.669041e+003,8.318367e-003
2.670969e+003,8.331844e-003
2.672898e+003,8.365046e-003
2.674826e+003,8.394537e-003
2.676755e+003,8.420210e-003
2.678683e+003,8.380450e-003
2.680612e+003,8.379268e-003
2.682540e+003,8.423116e-003
2.684469e+003,8.471022e-003
2.686397e+003,8.479808e-003
2.688326e+003,8.502479e-003
2.690254e+003,8.508528e-003
2.692183e+003,8.443217e-003
2.694111e+003,8.409129e-003
2.696040e+003,8.423656e-003
2.697968e+003,8.422845e-003
2.699897e+003,8.400414e-003
2.701825e+003,8.345051e-003
2.703754e+003,8.361163e-003
2.705682e+003,8.401969e-003
2.707611e+003,8.405481e-003
2.709539e+003,8.378254e-003
2.711468e+003,8.358190e-003
2.713396e+003,8.376093e-003
2.715325e+003,8.347516e-003
2.717253e+003,8.342281e-003
2.719182e+003,8.329513e-003
2.721110e+003,8.337315e-003
2.723039e+003,8.384774e-003
2.724967e+003,8.381835e-003
2.726896e+003,8.397003e-003
2.728824e+003,8.435277e-003
2.730753e+003,8.435987e-003
2.732681e+003,8.425278e-003
2.734610e+003,8.458488e-003
2.736538e+003,8.426359e-003
2.738467e+003,8.427609e-003
2.740395e+003,8.446697e-003
2.742324e+003,8.437981e-003
2.744252e+003,8.469671e-003
2.746181e+003,8.496229e-003
2.748109e+003,8.475550e-003
2.750038e+003,8.455616e-003
2.751966e+003,8.453352e-003
2.753895e+003,8.464231e-003
2.755823e+003,8.473692e-003
2.757752e+003,8.464366e-003
2.759680e+003,8.500857e-003
2.761609e+003,8.539784e-003
2.763537e+003,8.524240e-003
2.765466e+003,8.517076e-003
2.767394e+003,8.544650e-003
2.769323e+003,8.574996e-003
2.771251e+003,8.542757e-003
2.773180e+003,8.604027e-003
2.775108e+003,8.606224e-003
2.777037e+003,8.573949e-003
2.778965e+003,8.596964e-003
2.780894e+003,8.677271e-003
2.782822e+003,8.678049e-003
2.784750e+003,8.628159e-003
2.786679e+003,8.597639e-003
2.788608e+003,8.610179e-003
2.790536e+003,8.614808e-003
2.792465e+003,8.656956e-003
2.794393e+003,8.655165e-003
2.796322e+003,8.624509e-003
2.798250e+003,8.673858e-003
2.800178e+003,8.699615e-003
2.802107e+003,8.713813e-003
2.804036e+003,8.690759e-003
2.805964e+003,8.666793e-003
2.807893e+003,8.730683e-003
2.809821e+003,8.794921e-003
2.811750e+003,8.768210e-003
2.813678e+003,8.784033e-003
2.815606e+003,8.836715e-003
2.817535e+003,8.843410e-003
2.819464e+003,8.890112e-003
2.821392e+003,8.882908e-003
2.823321e+003,8.868265e-003
2.825249e+003,8.895083e-003
2.827177e+003,8.929074e-003
2.829106e+003,8.986711e-003
2.831034e+003,8.995404e-003
2.832963e+003,9.026019e-003
2.834892e+003,9.089658e-003
2.836820e+003,9.155640e-003
2.838749e+003,9.178889e-003
2.840677e+003,9.196013e-003
2.842605e+003,9.275417e-003
2.844534e+003,9.357577e-003
2.846462e+003,9.437281e-003
2.848391e+003,9.520420e-003
2.850320e+003,9.611535e-003
2.852248e+003,9.676716e-003
2.854177e+003,9.711377e-003
2.856105e+003,9.708260e-003
2.858033e+003,9.700264e-003
2.859962e+003,9.713817e-003
2.861890e+003,9.698096e-003
2.863819e+003,9.660420e-003
2.865748e+003,9.663063e-003
2.867676e+003,9.702737e-003
2.869604e+003,9.781827e-003
2.871533e+003,9.747465e-003
2.873461e+003,9.740315e-003
2.875390e+003,9.765493e-003
2.877319e+003,9.807448e-003
2.879247e+003,9.764374e-003
2.881176e+003,9.753767e-003
2.883104e+003,9.722356e-003
2.885032e+003,9.764476e-003
2.886961e+003,9.773931e-003
2.888889e+003,9.751023e-003
2.890818e+003,9.829579e-003
2.892747e+003,9.914589e-003
2.894675e+003,9.939743e-003
2.896604e+003,9.948253e-003
2.898532e+003,9.950931e-003
2.900460e+003,9.916048e-003
2.902389e+003,9.885166e-003
2.904317e+003,9.879743e-003
2.906246e+003,9.968492e-003
2.908175e+003,1.005061e-002
2.910103e+003,1.005546e-002
2.912031e+003,1.004692e-002
2.913960e+003,1.003380e-002
2.915888e+003,1.008534e-002
2.917817e+003,1.013499e-002
2.919745e+003,1.013292e-002
2.921674e+003,1.020151e-002
2.923603e+003,1.023390e-002
2.925531e+003,1.018268e-002
2.927459e+003,1.011237e-002
2.929388e+003,1.008358e-002
2.931316e+003,1.007371e-002
2.933245e+003,1.000514e-002
2.935173e+003,9.902241e-003
2.937102e+003,9.836949e-003
2.939031e+003,9.790311e-003
2.940959e+003,9.664183e-003
2.942887e+003,9.583017e-003
2.944816e+003,9.543823e-003
2.946744e+003,9.449183e-003
2.948673e+003,9.407648e-003
2.950601e+003,9.358088e-003
2.952530e+003,9.284827e-003
2.954458e+003,9.287774e-003
2.956387e+003,9.235051e-003
2.958315e+003,9.161061e-003
2.960244e+003,9.116322e-003
2.962172e+003,9.147138e-003
2.964101e+003,9.129806e-003
2.966029e+003,9.045067e-003
2.967958e+003,8.966267e-003
2.969886e+003,8.913683e-003
2.971815e+003,8.861429e-003
2.973743e+003,8.884194e-003
2.975672e+003,8.896086e-003
2.977600e+003,8.811033e-003
2.979529e+003,8.717899e-003
2.981457e+003,8.715380e-003
2.983386e+003,8.685489e-003
2.985314e+003,8.613931e-003
2.987243e+003,8.594009e-003
2.989171e+003,8.611185e-003
2.991100e+003,8.599099e-003
2.993028e+003,8.604092e-003
2.994957e+003,8.567679e-003
2.996885e+003,8.522972e-003
2.998814e+003,8.555947e-003
3.000742e+003,8.654845e-003
3.002671e+003,8.655304e-003
3.004599e+003,8.573559e-003
3.006528e+003,8.578031e-003
3.008456e+003,8.606270e-003
3.010385e+003,8.609423e-003
3.012313e+003,8.597733e-003
3.014242e+003,8.596464e-003
3.016170e+003,8.597370e-003
3.018099e+003,8.600257e-003
3.020027e+003,8.673058e-003
3.021956e+003,8.692421e-003
3.023884e+003,8.705472e-003
3.025813e+003,8.785562e-003
3.027741e+003,8.796233e-003
3.029670e+003,8.803828e-003
3.031598e+003,8.773935e-003
3.033527e+003,8.789841e-003
3.035455e+003,8.749242e-003
3.037384e+003,8.792557e-003
3.039312e+003,8.853144e-003
3.041241e+003,8.830161e-003
3.043169e+003,8.848893e-003
3.045098e+003,8.867342e-003
3.047026e+003,8.936753e-003
3.048955e+003,8.994799e-003
3.050883e+003,8.977255e-003
3.052812e+003,8.944017e-003
3.054740e+003,8.973693e-003
3.056669e+003,9.086618e-003
3.058597e+003,9.136261e-003
3.060526e+003,9.109957e-003
3.062454e+003,9.127912e-003
3.064383e+003,9.093695e-003
3.066311e+003,9.078780e-003
3.068240e+003,9.123969e-003
3.070168e+003,9.220606e-003
3.072097e+003,9.239893e-003
3.074025e+003,9.261613e-003
3.075954e+003,9.224090e-003
3.077882e+003,9.225283e-003
3.079811e+003,9.236493e-003
3.081739e+003,9.242766e-003
3.083668e+003,9.247962e-003
3.085596e+003,9.293315e-003
3.087525e+003,9.308374e-003
3.089453e+003,9.342826e-003
3.091382e+003,9.376077e-003
3.093310e+003,9.344525e-003
3.095239e+003,9.420878e-003
3.097167e+003,9.406518e-003
3.099096e+003,9.386094e-003
3.101024e+003,9.394573e-003
3.102953e+003,9.412806e-003
3.104881e+003,9.467741e-003
3.106810e+003,9.487636e-003
3.108738e+003,9.459944e-003
3.110667e+003,9.550130e-003
3.112595e+003,9.642392e-003
3.114524e+003,9.666641e-003
3.116452e+003,9.628368e-003
3.118381e+003,9.593573e-003
3.120309e+003,9.629658e-003
3.122238e+003,9.712265e-003
3.124166e+003,9.797017e-003
3.126095e+003,9.766073e-003
3.128023e+003,9.819746e-003
3.129952e+003,9.875585e-003
3.131880e+003,9.985744e-003
3.133809e+003,9.966668e-003
3.135737e+003,9.949101e-003
3.137666e+003,9.891260e-003
3.139594e+003,9.870885e-003
3.141523e+003,9.968983e-003
3.143451e+003,1.004023e-002
3.145380e+003,1.004808e-002
3.147308e+003,1.005110e-002
3.149237e+003,1.017736e-002
3.151165e+003,1.015577e-002
3.153094e+003,1.013594e-002
3.155022e+003,1.019955e-002
3.156951e+003,1.024515e-002
3.158879e+003,1.038115e-002
3.160808e+003,1.037291e-002
3.162736e+003,1.040297e-002
3.164665e+003,1.043959e-002
3.166593e+003,1.043680e-002
3.168522e+003,1.042967e-002
3.170450e+003,1.055506e-002
3.172379e+003,1.064778e-002
3.174307e+003,1.063768e-002
3.176236e+003,1.067787e-002
3.178164e+003,1.072850e-002
3.180093e+003,1.072240e-002
3.182021e+003,1.080714e-002
3.183950e+003,1.085113e-002
3.185878e+003,1.083321e-002
3.187807e+003,1.088950e-002
3.189735e+003,1.089155e-002
3.191664e+003,1.091461e-002
3.193592e+003,1.097850e-002
3.195521e+003,1.099017e-002
3.197449e+003,1.099452e-002
3.199378e+003,1.101008e-002
3.201306e+003,1.101557e-002
3.203235e+003,1.113052e-002
3.205163e+003,1.123366e-002
3.207092e+003,1.119933e-002
3.209020e+003,1.126917e-002
3.210948e+003,1.131681e-002
3.212877e+003,1.124818e-002
3.214806e+003,1.124722e-002
3.216734e+003,1.134990e-002
3.218663e+003,1.137210e-002
3.220591e+003,1.135520e-002
3.222520e+003,1.140795e-002
3.224448e+003,1.148265e-002
3.226376e+003,1.153888e-002
3.228305e+003,1.158003e-002
3.230234e+003,1.160279e-002
3.232162e+003,1.162097e-002
3.234091e+003,1.168168e-002
3.236019e+003,1.175870e-002
3.237948e+003,1.170976e-002
3.239876e+003,1.161939e-002
3.241804e+003,1.169610e-002
3.243733e+003,1.179654e-002
3.245662e+003,1.186997e-002
3.247590e+003,1.188874e-002
3.249519e+003,1.187950e-002
3.251447e+003,1.189357e-002
3.253375e+003,1.201993e-002
3.255304e+003,1.204571e-002
3.257232e+003,1.200271e-002
3.259161e+003,1.210843e-002
3.261090e+003,1.225910e-002
3.263018e+003,1.227066e-002
3.264947e+003,1.222652e-002
3.266875e+003,1.219815e-002
3.268803e+003,1.221539e-002
3.270732e+003,1.230099e-002
3.272660e+003,1.237705e-002
3.274589e+003,1.239980e-002
3.276518e+003,1.237755e-002
3.278446e+003,1.243138e-002
3.280375e+003,1.242732e-002
3.282303e+003,1.242101e-002
3.284231e+003,1.241686e-002
3.286160e+003,1.241576e-002
3.288088e+003,1.237851e-002
3.290017e+003,1.240651e-002
3.291946e+003,1.236273e-002
3.293874e+003,1.237677e-002
3.295802e+003,1.240018e-002
3.297731e+003,1.245824e-002
3.299659e+003,1.241996e-002
3.301588e+003,1.234878e-002
3.303516e+003,1.234473e-002
3.305445e+003,1.235739e-002
3.307374e+003,1.234982e-002
3.309302e+003,1.233499e-002
3.311230e+003,1.231521e-002
3.313159e+003,1.237654e-002
3.315087e+003,1.238696e-002
3.317016e+003,1.235541e-002
3.318944e+003,1.240260e-002
3.320873e+003,1.247309e-002
3.322802e+003,1.235369e-002
3.324730e+003,1.231319e-002
3.326658e+003,1.234463e-002
3.328587e+003,1.236456e-002
3.330515e+003,1.236138e-002
3.332444e+003,1.232480e-002
3.334372e+003,1.227471e-002
3.336301e+003,1.228909e-002
3.338229e+003,1.233955e-002
3.340158e+003,1.236686e-002
3.342086e+003,1.228402e-002
3.344015e+003,1.222812e-002
3.345943e+003,1.213510e-002
3.347872e+003,1.210250e-002
3.349800e+003,1.212257e-002
3.351729e+003,1.211683e-002
3.353657e+003,1.202573e-002
3.355586e+003,1.200101e-002
3.357514e+003,1.205570e-002
3.359443e+003,1.205568e-002
3.361371e+003,1.202739e-002
3.363300e+003,1.199044e-002
3.365229e+003,1.194244e-002
3.367157e+003,1.192741e-002
3.369085e+003,1.184977e-002
3.371014e+003,1.173197e-002
3.372942e+003,1.171649e-002
3.374871e+003,1.176019e-002
3.376799e+003,1.175656e-002
3.378728e+003,1.179093e-002
3.380656e+003,1.169172e-002
3.382585e+003,1.166654e-002
3.384513e+003,1.167871e-002
3.386442e+003,1.170518e-002
3.388370e+003,1.167625e-002
3.390299e+003,1.161386e-002
3.392227e+003,1.152302e-002
3.394156e+003,1.158022e-002
3.396084e+003,1.154476e-002
3.398013e+003,1.146988e-002
3.399941e+003,1.139949e-002
3.401870e+003,1.133398e-002
3.403798e+003,1.129331e-002
3.405727e+003,1.125531e-002
3.407655e+003,1.125504e-002
3.409584e+003,1.124626e-002
3.411512e+003,1.116224e-002
3.413441e+003,1.112279e-002
3.415369e+003,1.102031e-002
3.417298e+003,1.100904e-002
3.419226e+003,1.098619e-002
3.421155e+003,1.099817e-002
3.423083e+003,1.101656e-002
3.425012e+003,1.088917e-002
3.426940e+003,1.080268e-002
3.428869e+003,1.077600e-002
3.430797e+003,1.069667e-002
3.432726e+003,1.063185e-002
3.434654e+003,1.060405e-002
3.436583e+003,1.055472e-002
3.438511e+003,1.055946e-002
3.440440e+003,1.056347e-002
3.442368e+003,1.042098e-002
3.444297e+003,1.039238e-002
3.446225e+003,1.037320e-002
3.448154e+003,1.038900e-002
3.450082e+003,1.030375e-002
3.452011e+003,1.025232e-002
3.453939e+003,1.020889e-002
3.455868e+003,1.009819e-002
3.457796e+003,1.002730e-002
3.459725e+003,9.946276e-003
3.461653e+003,9.860008e-003
3.463582e+003,9.855617e-003
3.465510e+003,9.865640e-003
3.467439e+003,9.731654e-003
3.469367e+003,9.690272e-003
3.471296e+003,9.722624e-003
3.473224e+003,9.617069e-003
3.475153e+003,9.542842e-003
3.477081e+003,9.549147e-003
3.479010e+003,9.496422e-003
3.480938e+003,9.441631e-003
3.482867e+003,9.494763e-003
3.484795e+003,9.449205e-003
3.486724e+003,9.341946e-003
3.488652e+003,9.282969e-003
3.490581e+003,9.272678e-003
3.492509e+003,9.148233e-003
3.494438e+003,9.066207e-003
3.496366e+003,9.036561e-003
3.498295e+003,9.125222e-003
3.500223e+003,8.995908e-003
3.502152e+003,8.828545e-003
3.504080e+003,8.828097e-003
3.506009e+003,8.856495e-003
3.507937e+003,8.749233e-003
3.509866e+003,8.679775e-003
3.511794e+003,8.656842e-003
3.513723e+003,8.665824e-003
3.515651e+003,8.626134e-003
3.517580e+003,8.643080e-003
3.519508e+003,8.666561e-003
3.521437e+003,8.565750e-003
3.523365e+003,8.457012e-003
3.525294e+003,8.369808e-003
3.527222e+003,8.301710e-003
3.529151e+003,8.384218e-003
3.531079e+003,8.382534e-003
3.533008e+003,8.278800e-003
3.534936e+003,8.196761e-003
3.536865e+003,8.230125e-003
3.538793e+003,8.196347e-003
3.540722e+003,8.108255e-003
3.542650e+003,8.083948e-003
3.544579e+003,8.058049e-003
3.546507e+003,8.033322e-003
3.548436e+003,7.957081e-003
3.550364e+003,7.850319e-003
3.552293e+003,7.765134e-003
3.554221e+003,7.766451e-003
3.556150e+003,7.811193e-003
3.558078e+003,7.849960e-003
3.560007e+003,7.777675e-003
3.561935e+003,7.701399e-003
3.563864e+003,7.699695e-003
3.565792e+003,7.641335e-003
3.567721e+003,7.634271e-003
3.569649e+003,7.606766e-003
3.571578e+003,7.555589e-003
3.573506e+003,7.605117e-003
3.575435e+003,7.607274e-003
3.577363e+003,7.506119e-003
3.579292e+003,7.525354e-003
3.581220e+003,7.580942e-003
3.583149e+003,7.550622e-003
3.585077e+003,7.555645e-003
3.587006e+003,7.572096e-003
3.588934e+003,7.531680e-003
3.590863e+003,7.589050e-003
3.592791e+003,7.646618e-003
3.594720e+003,7.599223e-003
3.596648e+003,7.586635e-003
3.598577e+003,7.616578e-003
3.600505e+003,7.590019e-003
3.602434e+003,7.594382e-003
3.604362e+003,7.566264e-003
3.606291e+003,7.442277e-003
3.608219e+003,7.317014e-003
3.610148e+003,7.239796e-003
3.612076e+003,7.075580e-003
3.614005e+003,7.062676e-003
3.615933e+003,7.046484e-003
3.617862e+003,7.125706e-003
3.619790e+003,7.262792e-003
3.621719e+003,7.235450e-003
3.623647e+003,7.209263e-003
3.625576e+003,7.228309e-003
3.627504e+003,7.270006e-003
3.629433e+003,7.244578e-003
3.631361e+003,7.218922e-003
3.633290e+003,7.075677e-003
3.635218e+003,6.963361e-003
3.637146e+003,6.934654e-003
3.639075e+003,6.896852e-003
3.641004e+003,6.849780e-003
3.642932e+003,6.771023e-003
3.644861e+003,6.667935e-003
3.646789e+003,6.509919e-003
3.648718e+003,6.564314e-003
3.650646e+003,6.639947e-003
3.652574e+003,6.753639e-003
3.654503e+003,6.755025e-003
3.656432e+003,6.679074e-003
3.658360e+003,6.719664e-003
3.660289e+003,6.627107e-003
3.662217e+003,6.627848e-003
3.664146e+003,6.665874e-003
3.666074e+003,6.618560e-003
3.668002e+003,6.552468e-003
3.669931e+003,6.633357e-003
3.671860e+003,6.652375e-003
3.673788e+003,6.650598e-003
3.675717e+003,6.799569e-003
3.677645e+003,6.872270e-003
3.679573e+003,6.900214e-003
3.681502e+003,6.808563e-003
3.683430e+003,6.823999e-003
3.685359e+003,6.837155e-003
3.687288e+003,6.980327e-003
3.689216e+003,7.094298e-003
3.691145e+003,7.121606e-003
3.693073e+003,7.227598e-003
3.695001e+003,7.299326e-003
3.696930e+003,7.328422e-003
3.698858e+003,7.355180e-003
3.700787e+003,7.368414e-003
3.702716e+003,7.372820e-003
3.704644e+003,7.421174e-003
3.706573e+003,7.319298e-003
3.708501e+003,7.213734e-003
3.710429e+003,7.256525e-003
3.712358e+003,7.152055e-003
3.714286e+003,6.959455e-003
3.716215e+003,7.024935e-003
3.718144e+003,7.206704e-003
3.720072e+003,7.347405e-003
3.722000e+003,7.449343e-003
3.723929e+003,7.506919e-003
3.725857e+003,7.568110e-003
3.727786e+003,7.564809e-003
3.729714e+003,7.646274e-003
3.731643e+003,7.622181e-003
3.733572e+003,7.489561e-003
3.735500e+003,7.334562e-003
3.737428e+003,7.285242e-003
3.739357e+003,7.156081e-003
3.741285e+003,7.176751e-003
3.743214e+003,7.216448e-003
3.745142e+003,7.124756e-003
3.747071e+003,6.963715e-003
3.749000e+003,6.922407e-003
3.750928e+003,6.843925e-003
3.752856e+003,6.909004e-003
3.754785e+003,6.844596e-003
3.756713e+003,6.859227e-003
3.758642e+003,6.869152e-003
3.760570e+003,6.938707e-003
3.762499e+003,6.881015e-003
3.764427e+003,6.911450e-003
3.766356e+003,6.931611e-003
3.768284e+003,6.902082e-003
3.770213e+003,6.840765e-003
3.772141e+003,6.916986e-003
3.774070e+003,7.010837e-003
3.775998e+003,7.037978e-003
3.777927e+003,6.950824e-003
3.779855e+003,6.969390e-003
3.781784e+003,7.126670e-003
3.783712e+003,7.159423e-003
3.785641e+003,6.992450e-003
3.787569e+003,6.992110e-003
3.789498e+003,6.994822e-003
3.791426e+003,7.018908e-003
3.793355e+003,6.967638e-003
3.795283e+003,6.936758e-003
3.797212e+003,7.054438e-003
3.799140e+003,7.124231e-003
3.801069e+003,7.033200e-003
3.802997e+003,7.008447e-003
3.804926e+003,7.019937e-003
3.806854e+003,7.097713e-003
3.808783e+003,7.118288e-003
3.810711e+003,7.039653e-003
3.812640e+003,6.981863e-003
3.814568e+003,7.049595e-003
3.816497e+003,7.177747e-003
3.818425e+003,7.147139e-003
3.820354e+003,7.075542e-003
3.822282e+003,7.140044e-003
3.824211e+003,7.107384e-003
3.826139e+003,7.063515e-003
3.828068e+003,7.035324e-003
3.829996e+003,7.054985e-003
3.831925e+003,7.139936e-003
3.833853e+003,7.084555e-003
3.835782e+003,7.064301e-003
3.837710e+003,7.126702e-003
3.839639e+003,7.112963e-003
3.841567e+003,7.061788e-003
3.843496e+003,7.052253e-003
3.845424e+003,7.094220e-003
3.847353e+003,7.094613e-003
3.849281e+003,7.134814e-003
3.851210e+003,7.200130e-003
3.853138e+003,7.195606e-003
3.855067e+003,7.244912e-003
3.856995e+003,7.198416e-003
3.858924e+003,7.160986e-003
3.860852e+003,7.107729e-003
3.862781e+003,7.081261e-003
3.864709e+003,7.030887e-003
3.866638e+003,7.092263e-003
3.868566e+003,7.165064e-003
3.870495e+003,7.199483e-003
3.872423e+003,7.128355e-003
3.874352e+003,7.060510e-003
3.876280e+003,7.161341e-003
3.878209e+003,7.131119e-003
3.880137e+003,7.016446e-003
3.882066e+003,7.140172e-003
3.883994e+003,7.284597e-003
3.885923e+003,7.295239e-003
3.887851e+003,7.266329e-003
3.889780e+003,7.237953e-003
3.891708e+003,7.153268e-003
3.893637e+003,7.169780e-003
3.895565e+003,7.256267e-003
3.897494e+003,7.238472e-003
3.899422e+003,7.174680e-003
3.901351e+003,7.151756e-003
3.903279e+003,7.077244e-003
3.905208e+003,7.090712e-003
3.907136e+003,7.198736e-003
3.909065e+003,7.247028e-003
3.910993e+003,7.252019e-003
3.912922e+003,7.259415e-003
3.914850e+003,7.215574e-003
3.916779e+003,7.110685e-003
3.918707e+003,7.117955e-003
3.920636e+003,7.244009e-003
3.922564e+003,7.259919e-003
3.924493e+003,7.150941e-003
3.926421e+003,7.125713e-003
3.928350e+003,7.169291e-003
3.930278e+003,7.224163e-003
3.932207e+003,7.290244e-003
3.934135e+003,7.277858e-003
3.936064e+003,7.244588e-003
3.937992e+003,7.275810e-003
3.939921e+003,7.252263e-003
3.941849e+003,7.249368e-003
3.943778e+003,7.322470e-003
3.945706e+003,7.377368e-003
3.947635e+003,7.369631e-003
3.949563e+003,7.369557e-003
3.951492e+003,7.335008e-003
3.953420e+003,7.289382e-003
3.955349e+003,7.285846e-003
3.957277e+003,7.336458e-003
3.959206e+003,7.311128e-003
3.961134e+003,7.225358e-003
3.963063e+003,7.208828e-003
3.964991e+003,7.274972e-003
3.966920e+003,7.272544e-003
3.968848e+003,7.200344e-003
3.970777e+003,7.281089e-003
3.972705e+003,7.261793e-003
3.974634e+003,7.225406e-003
3.976562e+003,7.245042e-003
3.978491e+003,7.257643e-003
3.980419e+003,7.295111e-003
3.982348e+003,7.318495e-003
3.984276e+003,7.271587e-003
3.986205e+003,7.208242e-003
3.988133e+003,7.208864e-003
3.990062e+003,7.225325e-003
3.991990e+003,7.285074e-003
3.993919e+003,7.288162e-003
3.995847e+003,7.275714e-003
3.997776e+003,7.230271e-003
3.999704e+003,7.230763e-003
4.001633e+003,0.000000e+000
