3.991989e+002,4.820706e-002
4.011274e+002,4.680664e-002
4.030559e+002,4.680664e-002
4.049844e+002,4.870106e-002
4.069129e+002,4.867923e-002
4.088414e+002,4.888713e-002
4.107699e+002,4.921583e-002
4.126984e+002,4.928620e-002
4.146269e+002,4.908298e-002
4.165554e+002,4.979428e-002
4.184839e+002,5.018985e-002
4.204124e+002,5.066164e-002
4.223409e+002,5.216736e-002
4.242694e+002,5.416976e-002
4.261979e+002,5.409168e-002
4.281264e+002,5.230149e-002
4.300549e+002,5.261322e-002
4.319834e+002,5.376510e-002
4.339119e+002,5.499472e-002
4.358404e+002,5.557035e-002
4.377689e+002,5.560870e-002
4.396974e+002,5.580672e-002
4.416259e+002,5.570365e-002
4.435544e+002,5.497792e-002
4.454829e+002,5.467428e-002
4.474114e+002,5.486271e-002
4.493399e+002,5.524389e-002
4.512684e+002,5.530002e-002
4.531969e+002,5.541893e-002
4.551254e+002,5.574982e-002
4.570539e+002,5.595665e-002
4.589824e+002,5.602444e-002
4.609109e+002,5.531745e-002
4.628394e+002,5.510236e-002
4.647679e+002,5.468108e-002
4.666964e+002,5.343878e-002
4.686249e+002,5.338769e-002
4.705533e+002,5.338315e-002
4.724819e+002,5.242000e-002
4.744103e+002,5.215296e-002
4.763389e+002,5.167963e-002
4.782673e+002,5.058905e-002
4.801959e+002,4.988459e-002
4.821243e+002,4.918431e-002
4.840529e+002,4.834650e-002
4.859813e+002,4.771103e-002
4.879099e+002,4.712015e-002
4.898383e+002,4.688631e-002
4.917668e+002,4.606394e-002
4.936953e+002,4.486823e-002
4.956238e+002,4.442417e-002
4.975523e+002,4.439354e-002
4.994808e+002,4.405124e-002
5.014093e+002,4.379652e-002
5.033378e+002,4.363111e-002
5.052663e+002,4.367724e-002
5.071948e+002,4.393562e-002
5.091233e+002,4.395922e-002
5.110518e+002,4.365875e-002
5.129803e+002,4.372250e-002
5.149088e+002,4.409557e-002
5.168373e+002,4.450640e-002
5.187658e+002,4.434861e-002
5.206943e+002,4.439965e-002
5.226228e+002,4.443890e-002
5.245513e+002,4.460298e-002
5.264798e+002,4.462711e-002
5.284083e+002,4.443242e-002
5.303368e+002,4.437187e-002
5.322653e+002,4.419349e-002
5.341938e+002,4.402755e-002
5.361223e+002,4.389118e-002
5.380508e+002,4.359937e-002
5.399792e+002,4.357964e-002
5.419078e+002,4.374612e-002
5.438363e+002,4.367755e-002
5.457648e+002,4.345445e-002
5.476932e+002,4.359509e-002
5.496218e+002,4.384321e-002
5.515503e+002,4.458166e-002
5.534788e+002,4.504295e-002
5.554072e+002,4.523012e-002
5.573358e+002,4.575687e-002
5.592643e+002,4.548062e-002
5.611927e+002,4.497120e-002
5.631212e+002,4.473047e-002
5.650497e+002,4.445722e-002
5.669783e+002,4.405315e-002
5.689067e+002,4.343465e-002
5.708352e+002,4.308174e-002
5.727637e+002,4.299930e-002
5.746923e+002,4.270899e-002
5.766207e+002,4.238497e-002
5.785492e+002,4.246185e-002
5.804777e+002,4.234916e-002
5.824063e+002,4.200600e-002
5.843347e+002,4.193453e-002
5.862632e+002,4.192406e-002
5.881917e+002,4.171367e-002
5.901202e+002,4.191187e-002
5.920487e+002,4.222037e-002
5.939772e+002,4.204064e-002
5.959057e+002,4.172721e-002
5.978342e+002,4.134486e-002
5.997627e+002,4.104787e-002
6.016912e+002,4.093810e-002
6.036197e+002,4.087907e-002
6.055482e+002,4.082708e-002
6.074767e+002,4.077034e-002
6.094052e+002,4.087078e-002
6.113337e+002,4.029670e-002
6.132622e+002,3.987654e-002
6.151907e+002,3.932228e-002
6.171192e+002,3.891085e-002
6.190477e+002,3.891328e-002
6.209762e+002,3.859213e-002
6.229047e+002,3.784535e-002
6.248332e+002,3.722266e-002
6.267617e+002,3.644886e-002
6.286902e+002,3.595161e-002
6.306187e+002,3.557395e-002
6.325472e+002,3.534133e-002
6.344756e+002,3.508908e-002
6.364042e+002,3.480033e-002
6.383326e+002,3.473428e-002
6.402612e+002,3.436670e-002
6.421896e+002,3.385001e-002
6.441182e+002,3.344617e-002
6.460466e+002,3.325266e-002
6.479752e+002,3.322313e-002
6.499036e+002,3.305025e-002
6.518322e+002,3.273894e-002
6.537606e+002,3.259456e-002
6.556891e+002,3.264210e-002
6.576177e+002,3.278695e-002
6.595461e+002,3.282017e-002
6.614746e+002,3.300387e-002
6.634031e+002,3.335515e-002
6.653317e+002,3.337298e-002
6.672601e+002,3.293938e-002
6.691886e+002,3.273069e-002
6.711171e+002,3.225301e-002
6.730457e+002,3.133632e-002
6.749741e+002,3.052801e-002
6.769026e+002,2.979055e-002
6.788311e+002,2.903246e-002
6.807596e+002,2.814042e-002
6.826881e+002,2.747251e-002
6.846166e+002,2.705263e-002
6.865451e+002,2.701687e-002
6.884736e+002,2.688729e-002
6.904021e+002,2.684610e-002
6.923306e+002,2.663821e-002
6.942591e+002,2.643965e-002
6.961876e+002,2.633815e-002
6.981161e+002,2.629713e-002
7.000446e+002,2.619623e-002
7.019731e+002,2.604536e-002
7.039016e+002,2.591165e-002
7.058301e+002,2.575957e-002
7.077585e+002,2.554899e-002
7.096871e+002,2.545731e-002
7.116156e+002,2.529445e-002
7.135441e+002,2.501169e-002
7.154725e+002,2.490285e-002
7.174011e+002,2.491081e-002
7.193296e+002,2.460674e-002
7.212581e+002,2.449436e-002
7.231865e+002,2.427612e-002
7.251151e+002,2.411753e-002
7.270436e+002,2.377496e-002
7.289720e+002,2.349984e-002
7.309005e+002,2.327874e-002
7.328290e+002,2.311159e-002
7.347576e+002,2.288648e-002
7.366860e+002,2.279717e-002
7.386145e+002,2.258978e-002
7.405430e+002,2.240617e-002
7.424716e+002,2.219085e-002
7.444000e+002,2.205051e-002
7.463285e+002,2.181783e-002
7.482570e+002,2.167907e-002
7.501855e+002,2.156697e-002
7.521140e+002,2.143331e-002
7.540425e+002,2.127055e-002
7.559710e+002,2.113478e-002
7.578995e+002,2.107054e-002
7.598280e+002,2.090093e-002
7.617565e+002,2.065638e-002
7.636850e+002,2.062441e-002
7.656135e+002,2.056173e-002
7.675420e+002,2.039272e-002
7.694705e+002,2.036956e-002
7.713990e+002,2.044714e-002
7.733275e+002,2.048413e-002
7.752560e+002,2.054085e-002
7.771844e+002,2.059811e-002
7.791130e+002,2.074200e-002
7.810415e+002,2.061270e-002
7.829700e+002,2.064456e-002
7.848984e+002,2.065690e-002
7.868270e+002,2.065505e-002
7.887555e+002,2.054732e-002
7.906840e+002,2.059064e-002
7.926124e+002,2.056232e-002
7.945410e+002,2.061308e-002
7.964695e+002,2.060009e-002
7.983979e+002,2.042432e-002
8.003264e+002,2.034806e-002
8.022549e+002,2.046933e-002
8.041835e+002,2.046179e-002
8.061119e+002,2.034119e-002
8.080404e+002,2.024116e-002
8.099689e+002,2.013286e-002
8.118975e+002,2.001398e-002
8.138259e+002,2.010697e-002
8.157545e+002,2.009604e-002
8.176830e+002,1.989658e-002
8.196115e+002,1.976056e-002
8.215399e+002,1.970262e-002
8.234684e+002,1.959282e-002
8.253970e+002,1.951349e-002
8.273254e+002,1.941112e-002
8.292539e+002,1.949751e-002
8.311824e+002,1.942942e-002
8.331110e+002,1.936508e-002
8.350394e+002,1.932673e-002
8.369679e+002,1.926244e-002
8.388964e+002,1.914711e-002
8.408250e+002,1.898997e-002
8.427534e+002,1.890617e-002
8.446819e+002,1.877022e-002
8.466104e+002,1.858481e-002
8.485389e+002,1.853412e-002
8.504674e+002,1.851704e-002
8.523959e+002,1.848792e-002
8.543244e+002,1.853087e-002
8.562529e+002,1.861916e-002
8.581814e+002,1.862856e-002
8.601099e+002,1.875430e-002
8.620384e+002,1.894639e-002
8.639669e+002,1.908357e-002
8.658954e+002,1.912506e-002
8.678239e+002,1.923940e-002
8.697524e+002,1.940825e-002
8.716809e+002,1.957854e-002
8.736094e+002,1.977013e-002
8.755378e+002,1.992960e-002
8.774664e+002,2.014189e-002
8.793949e+002,2.048583e-002
8.813234e+002,2.090677e-002
8.832518e+002,2.124290e-002
8.851804e+002,2.172947e-002
8.871089e+002,2.222112e-002
8.890374e+002,2.282611e-002
8.909658e+002,2.356222e-002
8.928943e+002,2.406901e-002
8.948229e+002,2.442870e-002
8.967513e+002,2.468514e-002
8.986798e+002,2.462882e-002
9.006083e+002,2.444041e-002
9.025369e+002,2.419035e-002
9.044653e+002,2.375099e-002
9.063938e+002,2.338557e-002
9.083223e+002,2.306085e-002
9.102509e+002,2.289941e-002
9.121793e+002,2.295317e-002
9.141078e+002,2.296449e-002
9.160364e+002,2.301986e-002
9.179648e+002,2.319528e-002
9.198933e+002,2.338798e-002
9.218218e+002,2.363733e-002
9.237504e+002,2.392412e-002
9.256788e+002,2.423530e-002
9.276073e+002,2.459028e-002
9.295358e+002,2.488047e-002
9.314644e+002,2.516530e-002
9.333928e+002,2.556402e-002
9.353213e+002,2.603748e-002
9.372498e+002,2.647088e-002
9.391783e+002,2.697114e-002
9.411068e+002,2.746689e-002
9.430353e+002,2.802335e-002
9.449637e+002,2.873145e-002
9.468923e+002,2.958590e-002
9.488208e+002,3.029840e-002
9.507493e+002,3.116341e-002
9.526777e+002,3.201820e-002
9.546063e+002,3.282739e-002
9.565348e+002,3.364418e-002
9.584633e+002,3.452181e-002
9.603917e+002,3.545162e-002
9.623203e+002,3.640612e-002
9.642488e+002,3.719163e-002
9.661772e+002,3.795310e-002
9.681057e+002,3.875486e-002
9.700343e+002,3.953255e-002
9.719628e+002,4.027884e-002
9.738912e+002,4.112012e-002
9.758197e+002,4.214829e-002
9.777483e+002,4.336295e-002
9.796768e+002,4.466819e-002
9.816052e+002,4.613586e-002
9.835337e+002,4.767802e-002
9.854623e+002,4.919862e-002
9.873907e+002,5.046672e-002
9.893192e+002,5.140762e-002
9.912477e+002,5.192035e-002
9.931763e+002,5.220338e-002
9.951047e+002,5.245938e-002
9.970332e+002,5.285573e-002
9.989617e+002,5.348210e-002
1.000890e+003,5.443561e-002
1.002819e+003,5.538504e-002
1.004747e+003,5.638306e-002
1.006676e+003,5.738596e-002
1.008604e+003,5.834073e-002
1.010533e+003,5.934710e-002
1.012461e+003,6.044339e-002
1.014390e+003,6.168335e-002
1.016318e+003,6.297332e-002
1.018247e+003,6.427021e-002
1.020175e+003,6.559117e-002
1.022104e+003,6.680471e-002
1.024032e+003,6.797161e-002
1.025961e+003,6.927631e-002
1.027889e+003,7.062052e-002
1.029818e+003,7.178476e-002
1.031746e+003,7.270046e-002
1.033675e+003,7.320046e-002
1.035603e+003,7.325412e-002
1.037532e+003,7.270505e-002
1.039460e+003,7.187292e-002
1.041389e+003,7.105593e-002
1.043317e+003,7.030039e-002
1.045246e+003,6.981970e-002
1.047174e+003,6.965485e-002
1.049103e+003,6.955249e-002
1.051031e+003,6.937255e-002
1.052960e+003,6.904532e-002
1.054888e+003,6.846251e-002
1.056817e+003,6.755388e-002
1.058745e+003,6.653950e-002
1.060674e+003,6.537512e-002
1.062602e+003,6.396830e-002
1.064531e+003,6.240147e-002
1.066459e+003,6.085254e-002
1.068388e+003,5.929768e-002
1.070316e+003,5.790282e-002
1.072245e+003,5.666015e-002
1.074173e+003,5.547689e-002
1.076102e+003,5.425660e-002
1.078030e+003,5.307455e-002
1.079959e+003,5.192345e-002
1.081887e+003,5.080746e-002
1.083816e+003,4.987036e-002
1.085744e+003,4.925499e-002
1.087673e+003,4.879710e-002
1.089601e+003,4.835533e-002
1.091530e+003,4.796596e-002
1.093458e+003,4.769518e-002
1.095387e+003,4.747187e-002
1.097315e+003,4.736381e-002
1.099244e+003,4.734781e-002
1.101172e+003,4.736828e-002
1.103101e+003,4.723561e-002
1.105029e+003,4.690810e-002
1.106958e+003,4.630812e-002
1.108886e+003,4.547800e-002
1.110815e+003,4.431480e-002
1.112743e+003,4.295773e-002
1.114672e+003,4.154992e-002
1.116600e+003,4.024481e-002
1.118529e+003,3.901483e-002
1.120457e+003,3.789800e-002
1.122386e+003,3.682591e-002
1.124314e+003,3.580061e-002
1.126243e+003,3.461632e-002
1.128171e+003,3.333031e-002
1.130100e+003,3.203482e-002
1.132028e+003,3.082425e-002
1.133957e+003,2.969101e-002
1.135885e+003,2.876646e-002
1.137814e+003,2.807669e-002
1.139742e+003,2.763218e-002
1.141671e+003,2.747123e-002
1.143599e+003,2.753142e-002
1.145528e+003,2.778429e-002
1.147456e+003,2.820657e-002
1.149385e+003,2.862781e-002
1.151313e+003,2.913393e-002
1.153242e+003,2.965858e-002
1.155170e+003,3.020898e-002
1.157099e+003,3.058879e-002
1.159027e+003,3.078256e-002
1.160956e+003,3.075681e-002
1.162884e+003,3.035382e-002
1.164813e+003,2.968387e-002
1.166741e+003,2.870575e-002
1.168670e+003,2.742647e-002
1.170598e+003,2.595414e-002
1.172526e+003,2.447774e-002
1.174455e+003,2.307776e-002
1.176384e+003,2.189496e-002
1.178312e+003,2.088577e-002
1.180240e+003,1.996034e-002
1.182169e+003,1.923348e-002
1.184098e+003,1.870442e-002
1.186026e+003,1.827084e-002
1.187954e+003,1.797051e-002
1.189883e+003,1.785548e-002
1.191812e+003,1.789656e-002
1.193740e+003,1.801305e-002
1.195668e+003,1.819061e-002
1.197597e+003,1.846478e-002
1.199526e+003,1.871957e-002
1.201454e+003,1.884464e-002
1.203382e+003,1.888815e-002
1.205311e+003,1.876203e-002
1.207240e+003,1.860462e-002
1.209168e+003,1.855027e-002
1.211096e+003,1.854201e-002
1.213025e+003,1.860994e-002
1.214953e+003,1.877777e-002
1.216882e+003,1.903429e-002
1.218810e+003,1.930080e-002
1.220739e+003,1.960815e-002
1.222667e+003,1.995736e-002
1.224596e+003,2.026498e-002
1.226524e+003,2.059892e-002
1.228453e+003,2.094593e-002
1.230381e+003,2.124540e-002
1.232310e+003,2.147149e-002
1.234238e+003,2.154339e-002
1.236167e+003,2.153800e-002
1.238095e+003,2.152134e-002
1.240024e+003,2.148542e-002
1.241952e+003,2.135778e-002
1.243881e+003,2.114970e-002
1.245809e+003,2.092714e-002
1.247738e+003,2.067288e-002
1.249666e+003,2.039026e-002
1.251595e+003,2.006239e-002
1.253523e+003,1.971160e-002
1.255452e+003,1.936550e-002
1.257380e+003,1.900128e-002
1.259309e+003,1.864794e-002
1.261237e+003,1.828731e-002
1.263166e+003,1.786037e-002
1.265094e+003,1.739617e-002
1.267023e+003,1.693188e-002
1.268951e+003,1.648842e-002
1.270880e+003,1.608352e-002
1.272808e+003,1.571655e-002
1.274737e+003,1.532579e-002
1.276665e+003,1.501235e-002
1.278594e+003,1.474024e-002
1.280522e+003,1.450595e-002
1.282451e+003,1.434671e-002
1.284379e+003,1.414827e-002
1.286308e+003,1.394673e-002
1.288236e+003,1.379110e-002
1.290165e+003,1.369573e-002
1.292093e+003,1.370066e-002
1.294022e+003,1.376426e-002
1.295950e+003,1.388903e-002
1.297879e+003,1.404605e-002
1.299807e+003,1.426154e-002
1.301736e+003,1.450096e-002
1.303664e+003,1.481257e-002
1.305593e+003,1.518873e-002
1.307521e+003,1.554844e-002
1.309450e+003,1.592463e-002
1.311378e+003,1.625686e-002
1.313307e+003,1.650955e-002
1.315235e+003,1.672933e-002
1.317164e+003,1.678745e-002
1.319092e+003,1.673057e-002
1.321021e+003,1.659607e-002
1.322949e+003,1.643088e-002
1.324878e+003,1.628253e-002
1.326806e+003,1.615594e-002
1.328735e+003,1.606278e-002
1.330663e+003,1.595620e-002
1.332592e+003,1.586687e-002
1.334520e+003,1.579770e-002
1.336449e+003,1.566709e-002
1.338377e+003,1.546466e-002
1.340306e+003,1.527588e-002
1.342234e+003,1.511243e-002
1.344163e+003,1.499919e-002
1.346091e+003,1.495492e-002
1.348020e+003,1.496251e-002
1.349948e+003,1.502343e-002
1.351877e+003,1.519605e-002
1.353805e+003,1.538320e-002
1.355734e+003,1.553640e-002
1.357662e+003,1.575452e-002
1.359591e+003,1.600408e-002
1.361519e+003,1.620574e-002
1.363448e+003,1.641310e-002
1.365376e+003,1.660177e-002
1.367305e+003,1.665745e-002
1.369233e+003,1.664988e-002
1.371162e+003,1.658900e-002
1.373090e+003,1.643926e-002
1.375019e+003,1.619099e-002
1.376947e+003,1.583478e-002
1.378876e+003,1.545883e-002
1.380804e+003,1.507405e-002
1.382733e+003,1.458631e-002
1.384661e+003,1.412177e-002
1.386590e+003,1.376541e-002
1.388518e+003,1.348743e-002
1.390447e+003,1.327950e-002
1.392375e+003,1.314323e-002
1.394304e+003,1.303780e-002
1.396232e+003,1.296734e-002
1.398161e+003,1.291737e-002
1.400089e+003,1.292378e-002
1.402018e+003,1.301063e-002
1.403946e+003,1.307429e-002
1.405875e+003,1.314050e-002
1.407803e+003,1.323642e-002
1.409732e+003,1.337265e-002
1.411660e+003,1.353008e-002
1.413589e+003,1.372269e-002
1.415517e+003,1.393290e-002
1.417446e+003,1.413561e-002
1.419374e+003,1.433468e-002
1.421303e+003,1.445433e-002
1.423231e+003,1.449068e-002
1.425160e+003,1.444913e-002
1.427088e+003,1.434575e-002
1.429017e+003,1.420540e-002
1.430945e+003,1.400876e-002
1.432874e+003,1.376858e-002
1.434802e+003,1.351180e-002
1.436731e+003,1.328089e-002
1.438659e+003,1.310589e-002
1.440588e+003,1.295834e-002
1.442516e+003,1.287636e-002
1.444445e+003,1.288185e-002
1.446373e+003,1.288698e-002
1.448302e+003,1.288550e-002
1.450230e+003,1.287903e-002
1.452159e+003,1.282088e-002
1.454087e+003,1.274394e-002
1.456016e+003,1.271947e-002
1.457944e+003,1.259606e-002
1.459873e+003,1.245482e-002
1.461801e+003,1.235721e-002
1.463730e+003,1.215532e-002
1.465658e+003,1.189315e-002
1.467587e+003,1.152632e-002
1.469515e+003,1.102584e-002
1.471444e+003,1.052134e-002
1.473372e+003,1.008185e-002
1.475301e+003,9.658025e-003
1.477229e+003,9.353834e-003
1.479158e+003,9.149299e-003
1.481086e+003,9.063140e-003
1.483015e+003,9.037834e-003
1.484943e+003,8.992897e-003
1.486872e+003,8.982165e-003
1.488800e+003,9.054543e-003
1.490729e+003,9.234812e-003
1.492657e+003,9.415029e-003
1.494586e+003,9.597157e-003
1.496514e+003,9.796273e-003
1.498443e+003,9.945928e-003
1.500371e+003,1.010588e-002
1.502300e+003,1.027977e-002
1.504228e+003,1.039722e-002
1.506157e+003,1.042131e-002
1.508085e+003,1.047558e-002
1.510014e+003,1.051446e-002
1.511942e+003,1.053506e-002
1.513871e+003,1.048413e-002
1.515799e+003,1.030197e-002
1.517728e+003,1.006652e-002
1.519656e+003,9.774929e-003
1.521585e+003,9.447140e-003
1.523513e+003,9.244255e-003
1.525442e+003,9.123822e-003
1.527370e+003,9.044314e-003
1.529299e+003,9.021495e-003
1.531227e+003,8.942088e-003
1.533156e+003,8.951476e-003
1.535084e+003,9.024360e-003
1.537013e+003,9.039798e-003
1.538941e+003,9.071895e-003
1.540870e+003,9.025705e-003
1.542798e+003,8.998168e-003
1.544727e+003,9.001457e-003
1.546655e+003,9.034353e-003
1.548584e+003,9.024741e-003
1.550512e+003,9.031554e-003
1.552441e+003,9.059239e-003
1.554369e+003,9.094236e-003
1.556298e+003,9.103193e-003
1.558226e+003,9.102353e-003
1.560155e+003,9.183724e-003
1.562083e+003,9.189500e-003
1.564012e+003,9.228871e-003
1.565940e+003,9.322522e-003
1.567869e+003,9.407641e-003
1.569797e+003,9.528845e-003
1.571726e+003,9.709879e-003
1.573654e+003,9.890635e-003
1.575583e+003,1.010895e-002
1.577511e+003,1.036246e-002
1.579440e+003,1.057482e-002
1.581368e+003,1.088441e-002
1.583297e+003,1.116590e-002
1.585225e+003,1.144078e-002
1.587154e+003,1.173612e-002
1.589082e+003,1.199430e-002
1.591010e+003,1.218239e-002
1.592939e+003,1.236683e-002
1.594868e+003,1.249502e-002
1.596796e+003,1.259520e-002
1.598724e+003,1.267712e-002
1.600653e+003,1.270291e-002
1.602582e+003,1.271329e-002
1.604510e+003,1.276006e-002
1.606438e+003,1.275986e-002
1.608367e+003,1.265079e-002
1.610296e+003,1.255008e-002
1.612224e+003,1.249665e-002
1.614152e+003,1.248570e-002
1.616081e+003,1.257687e-002
1.618010e+003,1.263604e-002
1.619938e+003,1.267698e-002
1.621866e+003,1.280142e-002
1.623795e+003,1.294601e-002
1.625724e+003,1.299138e-002
1.627652e+003,1.293493e-002
1.629580e+003,1.291502e-002
1.631509e+003,1.290031e-002
1.633438e+003,1.279225e-002
1.635366e+003,1.262400e-002
1.637294e+003,1.256307e-002
1.639223e+003,1.246287e-002
1.641151e+003,1.240199e-002
1.643080e+003,1.232321e-002
1.645008e+003,1.230256e-002
1.646937e+003,1.221939e-002
1.648865e+003,1.221098e-002
1.650794e+003,1.221664e-002
1.652722e+003,1.213660e-002
1.654651e+003,1.206089e-002
1.656579e+003,1.187612e-002
1.658508e+003,1.166274e-002
1.660436e+003,1.143768e-002
1.662365e+003,1.118086e-002
1.664293e+003,1.100042e-002
1.666222e+003,1.080837e-002
1.668150e+003,1.057065e-002
1.670079e+003,1.038971e-002
1.672007e+003,1.023454e-002
1.673936e+003,1.005578e-002
1.675864e+003,9.933945e-003
1.677793e+003,9.809870e-003
1.679721e+003,9.711101e-003
1.681650e+003,9.619446e-003
1.683578e+003,9.563634e-003
1.685507e+003,9.590818e-003
1.687435e+003,9.455812e-003
1.689364e+003,9.338026e-003
1.691292e+003,9.293090e-003
1.693221e+003,9.245111e-003
1.695149e+003,9.313228e-003
1.697078e+003,9.316451e-003
1.699006e+003,9.146241e-003
1.700935e+003,9.119968e-003
1.702863e+003,9.112320e-003
1.704792e+003,9.124361e-003
1.706720e+003,9.148477e-003
1.708649e+003,9.232872e-003
1.710577e+003,9.302902e-003
1.712506e+003,9.420439e-003
1.714434e+003,9.515428e-003
1.716363e+003,9.629828e-003
1.718291e+003,9.788185e-003
1.720220e+003,9.944417e-003
1.722148e+003,1.000728e-002
1.724077e+003,1.011383e-002
1.726005e+003,1.017350e-002
1.727934e+003,1.021320e-002
1.729862e+003,1.022118e-002
1.731791e+003,1.027252e-002
1.733719e+003,1.020623e-002
1.735648e+003,1.008278e-002
1.737576e+003,9.821383e-003
1.739505e+003,9.563812e-003
1.741433e+003,9.329319e-003
1.743362e+003,9.007171e-003
1.745290e+003,8.694023e-003
1.747219e+003,8.378650e-003
1.749147e+003,8.114544e-003
1.751076e+003,7.874662e-003
1.753004e+003,7.599052e-003
1.754933e+003,7.397758e-003
1.756861e+003,7.162341e-003
1.758790e+003,6.977939e-003
1.760718e+003,6.807428e-003
1.762647e+003,6.633194e-003
1.764575e+003,6.515966e-003
1.766504e+003,6.388388e-003
1.768432e+003,6.283557e-003
1.770361e+003,6.125484e-003
1.772289e+003,6.065149e-003
1.774218e+003,6.103904e-003
1.776146e+003,6.102758e-003
1.778075e+003,6.095196e-003
1.780003e+003,6.021674e-003
1.781932e+003,6.031576e-003
1.783860e+003,6.033019e-003
1.785789e+003,6.058664e-003
1.787717e+003,6.019521e-003
1.789646e+003,6.023103e-003
1.791574e+003,6.045331e-003
1.793503e+003,6.056381e-003
1.795431e+003,6.011729e-003
1.797360e+003,5.991710e-003
1.799288e+003,6.054038e-003
1.801217e+003,6.093272e-003
1.803145e+003,6.070576e-003
1.805074e+003,6.048822e-003
1.807002e+003,5.993675e-003
1.808931e+003,6.055579e-003
1.810859e+003,6.091039e-003
1.812788e+003,6.014616e-003
1.814716e+003,6.052792e-003
1.816645e+003,6.010406e-003
1.818573e+003,5.872649e-003
1.820502e+003,5.874499e-003
1.822430e+003,5.884930e-003
1.824359e+003,5.853994e-003
1.826287e+003,5.841202e-003
1.828216e+003,5.801873e-003
1.830144e+003,5.771158e-003
1.832073e+003,5.828900e-003
1.834001e+003,5.800694e-003
1.835930e+003,5.694695e-003
1.837858e+003,5.663525e-003
1.839787e+003,5.744691e-003
1.841715e+003,5.795118e-003
1.843644e+003,5.785180e-003
1.845572e+003,5.798106e-003
1.847501e+003,5.875609e-003
1.849429e+003,5.783039e-003
1.851358e+003,5.639867e-003
1.853286e+003,5.675576e-003
1.855215e+003,5.831542e-003
1.857143e+003,5.730747e-003
1.859072e+003,5.777120e-003
1.861000e+003,5.839550e-003
1.862929e+003,5.778428e-003
1.864857e+003,5.626483e-003
1.866786e+003,5.644837e-003
1.868714e+003,5.585278e-003
1.870643e+003,5.543308e-003
1.872571e+003,5.546859e-003
1.874500e+003,5.564527e-003
1.876428e+003,5.539799e-003
1.878357e+003,5.572615e-003
1.880285e+003,5.671930e-003
1.882214e+003,5.600340e-003
1.884142e+003,5.484662e-003
1.886071e+003,5.541886e-003
1.887999e+003,5.668132e-003
1.889928e+003,5.526922e-003
1.891856e+003,5.454604e-003
1.893785e+003,5.538948e-003
1.895713e+003,5.388771e-003
1.897642e+003,5.419357e-003
1.899570e+003,5.506727e-003
1.901499e+003,5.291986e-003
1.903427e+003,5.299729e-003
1.905356e+003,5.399134e-003
1.907284e+003,5.515842e-003
1.909213e+003,5.493873e-003
1.911141e+003,5.331376e-003
1.913070e+003,5.240364e-003
1.914998e+003,5.467555e-003
1.916927e+003,5.329578e-003
1.918855e+003,5.065405e-003
1.920784e+003,4.793733e-003
1.922712e+003,4.697074e-003
1.924641e+003,4.740001e-003
1.926569e+003,4.614799e-003
1.928498e+003,4.542807e-003
1.930426e+003,4.614495e-003
1.932355e+003,4.506372e-003
1.934283e+003,4.266339e-003
1.936212e+003,4.258553e-003
1.938140e+003,4.089428e-003
1.940069e+003,3.621441e-003
1.941997e+003,3.656947e-003
1.943926e+003,3.753790e-003
1.945854e+003,3.292979e-003
1.947783e+003,2.987475e-003
1.949711e+003,3.007795e-003
1.951640e+003,3.052223e-003
1.953568e+003,2.382022e-003
1.955497e+003,1.642857e-003
1.957425e+003,1.459344e-003
1.959354e+003,9.967795e-004
1.961282e+003,3.684170e-004
1.963211e+003,2.614013e-004
1.965139e+003,-1.724783e-004
1.967068e+003,-4.205162e-004
1.968996e+003,-1.171033e-003
1.970925e+003,-2.141421e-003
1.972853e+003,-2.243448e-003
1.974782e+003,-3.135142e-003
1.976710e+003,-4.136060e-003
1.978639e+003,-3.347363e-003
1.980567e+003,-2.275496e-003
1.982496e+003,-1.248980e-003
1.984424e+003,-5.730731e-004
1.986353e+003,-3.415114e-004
1.988281e+003,1.087350e-004
1.990210e+003,8.453444e-004
1.992138e+003,1.201824e-003
1.994067e+003,3.210381e-004
1.995995e+003,2.440670e-004
1.997924e+003,3.310758e-004
1.999852e+003,-2.370490e-004
2.001781e+003,-1.715226e-004
2.003709e+003,-7.971734e-004
2.005638e+003,-1.640529e-003
2.007566e+003,-2.368939e-003
2.009495e+003,-2.473921e-003
2.011423e+003,-2.457546e-003
2.013352e+003,-3.346026e-003
2.015280e+003,-4.800550e-003
2.017208e+003,-4.255469e-003
2.019137e+003,-3.684603e-003
2.021066e+003,-3.158360e-003
2.022994e+003,-3.738688e-003
2.024922e+003,-5.088221e-003
2.026851e+003,-5.076669e-003
2.028780e+003,-5.322051e-003
2.030708e+003,-5.478288e-003
2.032636e+003,-5.865739e-003
2.034565e+003,-5.189050e-003
2.036494e+003,-4.450259e-003
2.038422e+003,-3.370724e-003
2.040350e+003,-2.473807e-003
2.042279e+003,-2.989746e-003
2.044208e+003,-3.180240e-003
2.046136e+003,-2.334262e-003
2.048064e+003,-1.485434e-003
2.049993e+003,-9.876649e-004
2.051921e+003,-1.318348e-004
2.053850e+003,4.875094e-004
2.055778e+003,1.328463e-003
2.057707e+003,1.451002e-003
2.059635e+003,1.068586e-003
2.061564e+003,5.857127e-004
2.063492e+003,6.362231e-004
2.065421e+003,1.052100e-003
2.067349e+003,1.784289e-003
2.069278e+003,1.929904e-003
2.071206e+003,1.822928e-003
2.073135e+003,1.989622e-003
2.075063e+003,1.946770e-003
2.076992e+003,2.153746e-003
2.078920e+003,2.950408e-003
2.080849e+003,3.173284e-003
2.082777e+003,3.076822e-003
2.084706e+003,3.005466e-003
2.086634e+003,3.105468e-003
2.088563e+003,3.308793e-003
2.090491e+003,3.445909e-003
2.092420e+003,3.169880e-003
2.094348e+003,2.957271e-003
2.096277e+003,2.913569e-003
2.098205e+003,2.920090e-003
2.100134e+003,3.216373e-003
2.102062e+003,3.784177e-003
2.103991e+003,3.689630e-003
2.105919e+003,3.565705e-003
2.107848e+003,3.633026e-003
2.109776e+003,3.900341e-003
2.111705e+003,4.000584e-003
2.113633e+003,4.148082e-003
2.115562e+003,4.277059e-003
2.117490e+003,4.072153e-003
2.119419e+003,3.988144e-003
2.121347e+003,4.308682e-003
2.123276e+003,4.422175e-003
2.125204e+003,4.050581e-003
2.127133e+003,3.810683e-003
2.129061e+003,3.245248e-003
2.130990e+003,2.985710e-003
2.132918e+003,2.902211e-003
2.134847e+003,2.737829e-003
2.136775e+003,2.136894e-003
2.138704e+003,1.483955e-003
2.140632e+003,1.762891e-003
2.142561e+003,1.741833e-003
2.144489e+003,2.526874e-004
2.146418e+003,-6.379248e-004
2.148346e+003,-8.903592e-004
2.150275e+003,-1.490922e-003
2.152203e+003,-1.653517e-003
2.154132e+003,-1.962858e-003
2.156060e+003,-4.689301e-003
2.157989e+003,-7.825574e-003
2.159917e+003,-8.831464e-003
2.161846e+003,-6.379853e-003
2.163774e+003,-5.070803e-003
2.165703e+003,-4.089669e-003
2.167631e+003,-3.427772e-003
2.169560e+003,-2.248378e-003
2.171488e+003,-1.249508e-003
2.173417e+003,-7.205973e-004
2.175345e+003,-1.169679e-003
2.177274e+003,-2.229259e-003
2.179202e+003,-1.342766e-003
2.181131e+003,-8.842750e-004
2.183059e+003,-1.066665e-003
2.184988e+003,-5.521259e-004
2.186916e+003,-7.954820e-004
2.188845e+003,-9.075864e-004
2.190773e+003,1.037219e-004
2.192702e+003,6.580919e-005
2.194630e+003,6.458316e-004
2.196559e+003,1.576859e-003
2.198487e+003,1.699752e-003
2.200416e+003,1.282190e-003
2.202344e+003,9.762312e-004
2.204273e+003,1.278834e-003
2.206201e+003,1.633761e-003
2.208130e+003,1.594850e-003
2.210058e+003,1.715286e-003
2.211987e+003,1.844208e-003
2.213915e+003,2.195168e-003
2.215844e+003,2.514918e-003
2.217772e+003,2.526716e-003
2.219701e+003,2.873192e-003
2.221629e+003,3.039927e-003
2.223558e+003,2.779944e-003
2.225486e+003,2.830868e-003
2.227415e+003,3.113674e-003
2.229343e+003,3.407985e-003
2.231272e+003,3.202311e-003
2.233200e+003,3.511907e-003
2.235129e+003,3.502670e-003
2.237057e+003,3.357651e-003
2.238986e+003,3.310625e-003
2.240914e+003,3.510535e-003
2.242843e+003,3.673705e-003
2.244771e+003,3.896222e-003
2.246700e+003,4.256438e-003
2.248628e+003,4.171138e-003
2.250557e+003,3.859912e-003
2.252485e+003,3.862585e-003
2.254414e+003,4.054885e-003
2.256342e+003,4.086882e-003
2.258271e+003,3.886885e-003
2.260199e+003,3.963746e-003
2.262128e+003,3.952254e-003
2.264056e+003,3.835120e-003
2.265985e+003,4.096851e-003
2.267913e+003,4.373155e-003
2.269842e+003,4.917984e-003
2.271770e+003,5.172940e-003
2.273699e+003,5.187429e-003
2.275627e+003,5.063141e-003
2.277556e+003,5.187123e-003
2.279484e+003,5.256155e-003
2.281413e+003,5.512782e-003
2.283341e+003,5.944095e-003
2.285270e+003,6.097375e-003
2.287198e+003,6.183190e-003
2.289127e+003,6.106967e-003
2.291055e+003,6.053082e-003
2.292984e+003,6.166012e-003
2.294912e+003,6.432796e-003
2.296841e+003,6.705261e-003
2.298769e+003,6.804553e-003
2.300698e+003,6.771224e-003
2.302626e+003,6.696205e-003
2.304555e+003,6.843392e-003
2.306483e+003,6.926347e-003
2.308412e+003,6.883157e-003
2.310340e+003,7.019769e-003
2.312269e+003,7.146948e-003
2.314197e+003,7.339016e-003
2.316125e+003,7.534085e-003
2.318054e+003,7.742397e-003
2.319983e+003,7.923386e-003
2.321911e+003,7.848448e-003
2.323840e+003,7.597270e-003
2.325768e+003,7.511339e-003
2.327697e+003,7.494687e-003
2.329625e+003,7.362581e-003
2.331553e+003,7.389409e-003
2.333482e+003,7.319568e-003
2.335411e+003,7.340007e-003
2.337339e+003,7.201145e-003
2.339268e+003,7.088363e-003
2.341196e+003,7.040160e-003
2.343125e+003,7.264971e-003
2.345053e+003,6.867641e-003
2.346981e+003,6.667009e-003
2.348910e+003,6.544556e-003
2.350839e+003,6.360583e-003
2.352767e+003,6.295423e-003
2.354696e+003,6.333815e-003
2.356624e+003,6.476634e-003
2.358552e+003,6.563757e-003
2.360481e+003,6.267498e-003
2.362409e+003,5.942952e-003
2.364338e+003,6.395518e-003
2.366267e+003,6.341995e-003
2.368195e+003,6.333768e-003
2.370124e+003,6.675160e-003
2.372052e+003,6.641319e-003
2.373980e+003,6.490883e-003
2.375909e+003,6.786722e-003
2.377838e+003,6.982363e-003
2.379766e+003,7.065526e-003
2.381695e+003,6.997394e-003
2.383623e+003,7.042396e-003
2.385552e+003,7.047538e-003
2.387480e+003,7.099177e-003
2.389408e+003,7.230623e-003
2.391337e+003,7.323321e-003
2.393266e+003,7.133326e-003
2.395194e+003,7.126367e-003
2.397123e+003,7.222523e-003
2.399051e+003,7.184351e-003
2.400979e+003,7.138462e-003
2.402908e+003,7.123776e-003
2.404836e+003,7.268599e-003
2.406765e+003,7.353852e-003
2.408694e+003,7.231774e-003
2.410622e+003,7.041836e-003
2.412551e+003,7.030083e-003
2.414479e+003,7.165780e-003
2.416407e+003,7.120307e-003
2.418336e+003,6.963917e-003
2.420264e+003,6.944995e-003
2.422193e+003,6.976914e-003
2.424122e+003,6.974658e-003
2.426050e+003,6.861607e-003
2.427979e+003,6.835184e-003
2.429907e+003,7.030655e-003
2.431835e+003,7.053858e-003
2.433764e+003,6.951729e-003
2.435692e+003,6.941830e-003
2.437621e+003,6.881434e-003
2.439550e+003,6.820575e-003
2.441478e+003,6.668028e-003
2.443406e+003,6.516543e-003
2.445335e+003,6.561852e-003
2.447263e+003,6.631018e-003
2.449192e+003,6.632701e-003
2.451121e+003,6.614466e-003
2.453049e+003,6.662880e-003
2.454978e+003,6.728192e-003
2.456906e+003,6.846796e-003
2.458834e+003,6.809636e-003
2.460763e+003,6.753768e-003
2.462691e+003,6.874197e-003
2.464620e+003,6.909173e-003
2.466549e+003,6.910722e-003
2.468477e+003,6.864670e-003
2.470406e+003,6.875207e-003
2.472334e+003,6.927421e-003
2.474262e+003,6.917758e-003
2.476191e+003,6.951796e-003
2.478119e+003,6.871335e-003
2.480048e+003,6.783081e-003
2.481977e+003,6.801323e-003
2.483905e+003,6.964052e-003
2.485833e+003,7.072650e-003
2.487762e+003,6.954187e-003
2.489690e+003,6.912708e-003
2.491619e+003,7.070427e-003
2.493547e+003,7.014357e-003
2.495476e+003,6.881434e-003
2.497405e+003,6.889008e-003
2.499333e+003,6.898569e-003
2.501261e+003,6.956476e-003
2.503190e+003,6.943884e-003
2.505118e+003,6.931191e-003
2.507047e+003,7.001191e-003
2.508975e+003,7.001191e-003
2.510904e+003,6.969540e-003
2.512833e+003,7.030622e-003
2.514761e+003,7.046247e-003
2.516689e+003,6.926411e-003
2.518618e+003,7.009845e-003
2.520546e+003,6.987554e-003
2.522475e+003,7.018768e-003
2.524403e+003,7.065005e-003
2.526332e+003,7.063388e-003
2.528260e+003,7.025133e-003
2.530189e+003,6.982873e-003
2.532117e+003,6.943716e-003
2.534046e+003,7.006309e-003
2.535974e+003,7.074738e-003
2.537903e+003,7.149342e-003
2.539831e+003,7.155068e-003
2.541760e+003,7.143312e-003
2.543688e+003,7.056586e-003
2.545617e+003,6.984018e-003
2.547545e+003,7.111314e-003
2.549474e+003,7.155674e-003
2.551402e+003,7.107070e-003
2.553331e+003,7.133443e-003
2.555259e+003,7.128593e-003
2.557188e+003,7.252831e-003
2.559116e+003,7.227361e-003
2.561045e+003,7.104376e-003
2.562973e+003,7.224800e-003
2.564902e+003,7.287299e-003
2.566830e+003,7.301148e-003
2.568759e+003,7.333969e-003
2.570687e+003,7.358873e-003
2.572616e+003,7.288748e-003
2.574544e+003,7.233998e-003
2.576473e+003,7.217759e-003
2.578401e+003,7.266611e-003
2.580330e+003,7.339226e-003
2.582258e+003,7.300441e-003
2.584187e+003,7.305124e-003
2.586115e+003,7.332419e-003
2.588044e+003,7.266982e-003
2.589972e+003,7.316345e-003
2.591901e+003,7.346101e-003
2.593829e+003,7.268532e-003
2.595758e+003,7.227933e-003
2.597686e+003,7.420347e-003
2.599615e+003,7.484054e-003
2.601543e+003,7.372454e-003
2.603472e+003,7.287906e-003
2.605400e+003,7.268262e-003
2.607329e+003,7.308898e-003
2.609257e+003,7.282346e-003
2.611186e+003,7.229551e-003
2.613114e+003,7.255493e-003
2.615043e+003,7.334474e-003
2.616971e+003,7.314627e-003
2.618900e+003,7.344281e-003
2.620828e+003,7.384351e-003
2.622757e+003,7.413403e-003
2.624685e+003,7.346438e-003
2.626614e+003,7.366927e-003
2.628542e+003,7.439626e-003
2.630471e+003,7.600200e-003
2.632399e+003,7.595817e-003
2.634328e+003,7.566887e-003
2.636256e+003,7.562302e-003
2.638185e+003,7.567865e-003
2.640113e+003,7.663394e-003
2.642042e+003,7.726631e-003
2.643970e+003,7.768490e-003
2.645899e+003,7.836904e-003
2.647827e+003,7.983889e-003
2.649756e+003,8.076439e-003
2.651684e+003,8.099528e-003
2.653613e+003,8.127278e-003
2.655541e+003,8.179170e-003
2.657470e+003,8.224349e-003
2.659398e+003,8.276050e-003
2.661327e+003,8.374708e-003
2.663255e+003,8.481699e-003
2.665184e+003,8.500013e-003
2.667112e+003,8.490991e-003
2.669041e+003,8.506467e-003
2.670969e+003,8.522449e-003
2.672898e+003,8.530288e-003
2.674826e+003,8.533735e-003
2.676755e+003,8.584729e-003
2.678683e+003,8.569285e-003
2.680612e+003,8.561479e-003
2.682540e+003,8.574996e-003
2.684469e+003,8.599668e-003
2.686397e+003,8.615484e-003
2.688326e+003,8.620352e-003
2.690254e+003,8.613457e-003
2.692183e+003,8.629376e-003
2.694111e+003,8.652359e-003
2.696040e+003,8.650230e-003
2.697968e+003,8.615316e-003
2.699897e+003,8.633466e-003
2.701825e+003,8.621264e-003
2.703754e+003,8.583344e-003
2.705682e+003,8.613186e-003
2.707611e+003,8.707155e-003
2.709539e+003,8.695289e-003
2.711468e+003,8.716485e-003
2.713396e+003,8.699717e-003
2.715325e+003,8.689609e-003
2.717253e+003,8.675615e-003
2.719182e+003,8.646208e-003
2.721110e+003,8.676731e-003
2.723039e+003,8.726592e-003
2.724967e+003,8.735044e-003
2.726896e+003,8.815107e-003
2.728824e+003,8.828599e-003
2.730753e+003,8.757290e-003
2.732681e+003,8.717296e-003
2.734610e+003,8.726627e-003
2.736538e+003,8.758845e-003
2.738467e+003,8.750190e-003
2.740395e+003,8.754315e-003
2.742324e+003,8.755194e-003
2.744252e+003,8.748432e-003
2.746181e+003,8.737918e-003
2.748109e+003,8.777339e-003
2.750038e+003,8.850275e-003
2.751966e+003,8.904418e-003
2.753895e+003,8.905905e-003
2.755823e+003,8.878546e-003
2.757752e+003,8.890585e-003
2.759680e+003,8.880339e-003
2.761609e+003,8.920077e-003
2.763537e+003,8.937394e-003
2.765466e+003,8.949334e-003
2.767394e+003,8.989654e-003
2.769323e+003,9.010762e-003
2.771251e+003,8.996081e-003
2.773180e+003,9.013536e-003
2.775108e+003,9.065500e-003
2.777037e+003,9.100519e-003
2.778965e+003,9.091687e-003
2.780894e+003,9.057076e-003
2.782822e+003,9.048314e-003
2.784750e+003,9.064147e-003
2.786679e+003,9.073350e-003
2.788608e+003,9.066854e-003
2.790536e+003,9.086275e-003
2.792465e+003,9.166300e-003
2.794393e+003,9.164541e-003
2.796322e+003,9.166199e-003
2.798250e+003,9.215203e-003
2.800178e+003,9.235341e-003
2.802107e+003,9.274943e-003
2.804036e+003,9.301143e-003
2.805964e+003,9.298909e-003
2.807893e+003,9.352261e-003
2.809821e+003,9.432675e-003
2.811750e+003,9.427968e-003
2.813678e+003,9.441378e-003
2.815606e+003,9.502335e-003
2.817535e+003,9.512968e-003
2.819464e+003,9.542739e-003
2.821392e+003,9.569938e-003
2.823321e+003,9.633622e-003
2.825249e+003,9.658049e-003
2.827177e+003,9.717545e-003
2.829106e+003,9.803110e-003
2.831034e+003,9.882691e-003
2.832963e+003,9.901098e-003
2.834892e+003,9.987717e-003
2.836820e+003,1.009188e-002
2.838749e+003,1.015398e-002
2.840677e+003,1.018390e-002
2.842605e+003,1.029273e-002
2.844534e+003,1.033932e-002
2.846462e+003,1.046064e-002
2.848391e+003,1.059361e-002
2.850320e+003,1.069439e-002
2.852248e+003,1.074680e-002
2.854177e+003,1.080807e-002
2.856105e+003,1.085730e-002
2.858033e+003,1.084646e-002
2.859962e+003,1.087568e-002
2.861890e+003,1.095518e-002
2.863819e+003,1.101227e-002
2.865748e+003,1.102726e-002
2.867676e+003,1.113882e-002
2.869604e+003,1.120746e-002
2.871533e+003,1.125078e-002
2.873461e+003,1.127217e-002
2.875390e+003,1.124959e-002
2.877319e+003,1.128761e-002
2.879247e+003,1.130954e-002
2.881176e+003,1.130743e-002
2.883104e+003,1.130845e-002
2.885032e+003,1.135447e-002
2.886961e+003,1.136181e-002
2.888889e+003,1.142355e-002
2.890818e+003,1.150496e-002
2.892747e+003,1.152007e-002
2.894675e+003,1.152078e-002
2.896604e+003,1.151629e-002
2.898532e+003,1.150891e-002
2.900460e+003,1.145927e-002
2.902389e+003,1.142665e-002
2.904317e+003,1.140130e-002
2.906246e+003,1.137906e-002
2.908175e+003,1.136307e-002
2.910103e+003,1.133913e-002
2.912031e+003,1.129907e-002
2.913960e+003,1.121334e-002
2.915888e+003,1.118363e-002
2.917817e+003,1.116755e-002
2.919745e+003,1.111699e-002
2.921674e+003,1.109493e-002
2.923603e+003,1.105632e-002
2.925531e+003,1.102203e-002
2.927459e+003,1.096572e-002
2.929388e+003,1.083552e-002
2.931316e+003,1.076279e-002
2.933245e+003,1.072357e-002
2.935173e+003,1.066020e-002
2.937102e+003,1.062091e-002
2.939031e+003,1.059062e-002
2.940959e+003,1.055117e-002
2.942887e+003,1.045321e-002
2.944816e+003,1.028995e-002
2.946744e+003,1.021741e-002
2.948673e+003,1.016874e-002
2.950601e+003,1.006136e-002
2.952530e+003,9.881268e-003
2.954458e+003,9.804566e-003
2.956387e+003,9.771931e-003
2.958315e+003,9.693149e-003
2.960244e+003,9.649342e-003
2.962172e+003,9.625221e-003
2.964101e+003,9.607097e-003
2.966029e+003,9.502910e-003
2.967958e+003,9.396648e-003
2.969886e+003,9.394684e-003
2.971815e+003,9.360895e-003
2.973743e+003,9.321488e-003
2.975672e+003,9.296133e-003
2.977600e+003,9.241366e-003
2.979529e+003,9.141259e-003
2.981457e+003,9.078256e-003
2.983386e+003,9.122073e-003
2.985314e+003,9.093448e-003
2.987243e+003,9.072673e-003
2.989171e+003,9.110027e-003
2.991100e+003,9.060493e-003
2.993028e+003,9.050952e-003
2.994957e+003,9.008124e-003
2.996885e+003,8.973620e-003
2.998814e+003,8.979065e-003
3.000742e+003,9.028049e-003
3.002671e+003,9.027846e-003
3.004599e+003,9.066719e-003
3.006528e+003,9.036743e-003
3.008456e+003,9.021046e-003
3.010385e+003,9.068105e-003
3.012313e+003,9.071928e-003
3.014242e+003,9.041886e-003
3.016170e+003,9.021317e-003
3.018099e+003,9.037725e-003
3.020027e+003,9.079744e-003
3.021956e+003,9.102109e-003
3.023884e+003,9.128400e-003
3.025813e+003,9.120482e-003
3.027741e+003,9.141665e-003
3.029670e+003,9.198179e-003
3.031598e+003,9.234799e-003
3.033527e+003,9.229316e-003
3.035455e+003,9.244412e-003
3.037384e+003,9.310080e-003
3.039312e+003,9.327717e-003
3.041241e+003,9.365364e-003
3.043169e+003,9.371627e-003
3.045098e+003,9.374641e-003
3.047026e+003,9.435486e-003
3.048955e+003,9.452112e-003
3.050883e+003,9.481676e-003
3.052812e+003,9.528921e-003
3.054740e+003,9.558151e-003
3.056669e+003,9.573088e-003
3.058597e+003,9.667230e-003
3.060526e+003,9.713512e-003
3.062454e+003,9.685220e-003
3.064383e+003,9.720527e-003
3.066311e+003,9.796569e-003
3.068240e+003,9.774778e-003
3.070168e+003,9.846424e-003
3.072097e+003,9.888353e-003
3.074025e+003,9.922725e-003
3.075954e+003,9.885709e-003
3.077882e+003,9.917878e-003
3.079811e+003,9.945574e-003
3.081739e+003,9.967035e-003
3.083668e+003,1.003854e-002
3.085596e+003,1.006554e-002
3.087525e+003,9.973002e-003
3.089453e+003,1.001603e-002
3.091382e+003,1.018448e-002
3.093310e+003,1.018163e-002
3.095239e+003,1.025439e-002
3.097167e+003,1.023146e-002
3.099096e+003,1.013652e-002
3.101024e+003,1.024401e-002
3.102953e+003,1.037936e-002
3.104881e+003,1.038659e-002
3.106810e+003,1.034990e-002
3.108738e+003,1.034308e-002
3.110667e+003,1.041231e-002
3.112595e+003,1.052473e-002
3.114524e+003,1.054109e-002
3.116452e+003,1.045277e-002
3.118381e+003,1.048528e-002
3.120309e+003,1.060281e-002
3.122238e+003,1.070496e-002
3.124166e+003,1.077370e-002
3.126095e+003,1.076201e-002
3.128023e+003,1.081079e-002
3.129952e+003,1.084673e-002
3.131880e+003,1.091373e-002
3.133809e+003,1.095943e-002
3.135737e+003,1.098152e-002
3.137666e+003,1.098363e-002
3.139594e+003,1.102077e-002
3.141523e+003,1.108453e-002
3.143451e+003,1.115361e-002
3.145380e+003,1.120474e-002
3.147308e+003,1.124493e-002
3.149237e+003,1.132437e-002
3.151165e+003,1.138039e-002
3.153094e+003,1.146669e-002
3.155022e+003,1.154970e-002
3.156951e+003,1.157577e-002
3.158879e+003,1.163107e-002
3.160808e+003,1.166939e-002
3.162736e+003,1.167664e-002
3.164665e+003,1.172753e-002
3.166593e+003,1.172426e-002
3.168522e+003,1.169067e-002
3.170450e+003,1.177662e-002
3.172379e+003,1.187002e-002
3.174307e+003,1.197641e-002
3.176236e+003,1.211656e-002
3.178164e+003,1.215342e-002
3.180093e+003,1.216082e-002
3.182021e+003,1.216726e-002
3.183950e+003,1.225218e-002
3.185878e+003,1.238069e-002
3.187807e+003,1.240118e-002
3.189735e+003,1.237326e-002
3.191664e+003,1.241482e-002
3.193592e+003,1.249215e-002
3.195521e+003,1.266873e-002
3.197449e+003,1.277423e-002
3.199378e+003,1.277484e-002
3.201306e+003,1.279351e-002
3.203235e+003,1.290050e-002
3.205163e+003,1.301110e-002
3.207092e+003,1.305488e-002
3.209020e+003,1.308315e-002
3.210948e+003,1.314014e-002
3.212877e+003,1.313943e-002
3.214806e+003,1.320053e-002
3.216734e+003,1.331073e-002
3.218663e+003,1.339164e-002
3.220591e+003,1.343607e-002
3.222520e+003,1.349571e-002
3.224448e+003,1.358869e-002
3.226376e+003,1.372450e-002
3.228305e+003,1.381630e-002
3.230234e+003,1.385745e-002
3.232162e+003,1.384534e-002
3.234091e+003,1.387284e-002
3.236019e+003,1.403667e-002
3.237948e+003,1.415136e-002
3.239876e+003,1.423291e-002
3.241804e+003,1.433183e-002
3.243733e+003,1.442496e-002
3.245662e+003,1.446168e-002
3.247590e+003,1.453578e-002
3.249519e+003,1.462682e-002
3.251447e+003,1.476337e-002
3.253375e+003,1.489232e-002
3.255304e+003,1.488676e-002
3.257232e+003,1.490724e-002
3.259161e+003,1.502165e-002
3.261090e+003,1.514875e-002
3.263018e+003,1.523635e-002
3.264947e+003,1.532661e-002
3.266875e+003,1.532706e-002
3.268803e+003,1.539616e-002
3.270732e+003,1.552965e-002
3.272660e+003,1.560294e-002
3.274589e+003,1.552176e-002
3.276518e+003,1.557598e-002
3.278446e+003,1.566206e-002
3.280375e+003,1.571190e-002
3.282303e+003,1.579381e-002
3.284231e+003,1.582367e-002
3.286160e+003,1.580054e-002
3.288088e+003,1.576543e-002
3.290017e+003,1.573045e-002
3.291946e+003,1.582687e-002
3.293874e+003,1.589223e-002
3.295802e+003,1.589419e-002
3.297731e+003,1.593564e-002
3.299659e+003,1.596012e-002
3.301588e+003,1.600484e-002
3.303516e+003,1.602966e-002
3.305445e+003,1.614867e-002
3.307374e+003,1.605301e-002
3.309302e+003,1.598442e-002
3.311230e+003,1.604616e-002
3.313159e+003,1.619681e-002
3.315087e+003,1.625690e-002
3.317016e+003,1.628053e-002
3.318944e+003,1.640955e-002
3.320873e+003,1.637779e-002
3.322802e+003,1.625174e-002
3.324730e+003,1.635034e-002
3.326658e+003,1.647267e-002
3.328587e+003,1.658776e-002
3.330515e+003,1.656622e-002
3.332444e+003,1.643801e-002
3.334372e+003,1.640907e-002
3.336301e+003,1.648337e-002
3.338229e+003,1.655162e-002
3.340158e+003,1.652281e-002
3.342086e+003,1.651868e-002
3.344015e+003,1.638918e-002
3.345943e+003,1.623675e-002
3.347872e+003,1.623396e-002
3.349800e+003,1.628157e-002
3.351729e+003,1.622581e-002
3.353657e+003,1.616173e-002
3.355586e+003,1.614671e-002
3.357514e+003,1.610259e-002
3.359443e+003,1.605273e-002
3.361371e+003,1.599508e-002
3.363300e+003,1.594004e-002
3.365229e+003,1.590691e-002
3.367157e+003,1.590430e-002
3.369085e+003,1.585948e-002
3.371014e+003,1.584642e-002
3.372942e+003,1.585931e-002
3.374871e+003,1.579515e-002
3.376799e+003,1.568871e-002
3.378728e+003,1.561459e-002
3.380656e+003,1.549549e-002
3.382585e+003,1.549521e-002
3.384513e+003,1.553855e-002
3.386442e+003,1.548148e-002
3.388370e+003,1.542002e-002
3.390299e+003,1.541738e-002
3.392227e+003,1.534141e-002
3.394156e+003,1.527726e-002
3.396084e+003,1.533241e-002
3.398013e+003,1.529274e-002
3.399941e+003,1.519044e-002
3.401870e+003,1.508902e-002
3.403798e+003,1.501026e-002
3.405727e+003,1.491382e-002
3.407655e+003,1.492627e-002
3.409584e+003,1.490638e-002
3.411512e+003,1.478202e-002
3.413441e+003,1.467046e-002
3.415369e+003,1.459494e-002
3.417298e+003,1.450245e-002
3.419226e+003,1.437846e-002
3.421155e+003,1.424650e-002
3.423083e+003,1.416902e-002
3.425012e+003,1.413324e-002
3.426940e+003,1.407890e-002
3.428869e+003,1.390261e-002
3.430797e+003,1.374803e-002
3.432726e+003,1.363372e-002
3.434654e+003,1.360127e-002
3.436583e+003,1.342440e-002
3.438511e+003,1.333038e-002
3.440440e+003,1.331575e-002
3.442368e+003,1.318962e-002
3.444297e+003,1.296321e-002
3.446225e+003,1.297263e-002
3.448154e+003,1.292980e-002
3.450082e+003,1.282321e-002
3.452011e+003,1.267201e-002
3.453939e+003,1.254263e-002
3.455868e+003,1.237859e-002
3.457796e+003,1.228887e-002
3.459725e+003,1.218119e-002
3.461653e+003,1.201705e-002
3.463582e+003,1.194148e-002
3.465510e+003,1.181572e-002
3.467439e+003,1.161493e-002
3.469367e+003,1.159418e-002
3.471296e+003,1.152937e-002
3.473224e+003,1.139632e-002
3.475153e+003,1.130980e-002
3.477081e+003,1.116845e-002
3.479010e+003,1.109544e-002
3.480938e+003,1.102003e-002
3.482867e+003,1.099064e-002
3.484795e+003,1.096272e-002
3.486724e+003,1.080388e-002
3.488652e+003,1.061785e-002
3.490581e+003,1.050446e-002
3.492509e+003,1.049063e-002
3.494438e+003,1.043184e-002
3.496366e+003,1.029829e-002
3.498295e+003,1.027476e-002
3.500223e+003,1.016311e-002
3.502152e+003,9.947638e-003
3.504080e+003,9.854637e-003
3.506009e+003,9.818719e-003
3.507937e+003,9.750833e-003
3.509866e+003,9.714821e-003
3.511794e+003,9.584585e-003
3.513723e+003,9.491912e-003
3.515651e+003,9.540580e-003
3.517580e+003,9.496467e-003
3.519508e+003,9.439001e-003
3.521437e+003,9.250185e-003
3.523365e+003,9.111681e-003
3.525294e+003,9.112350e-003
3.527222e+003,9.087970e-003
3.529151e+003,8.962232e-003
3.531079e+003,8.849859e-003
3.533008e+003,8.756204e-003
3.534936e+003,8.630723e-003
3.536865e+003,8.747832e-003
3.538793e+003,8.722856e-003
3.540722e+003,8.539937e-003
3.542650e+003,8.455784e-003
3.544579e+003,8.471053e-003
3.546507e+003,8.429579e-003
3.548436e+003,8.304684e-003
3.550364e+003,8.117429e-003
3.552293e+003,8.085718e-003
3.554221e+003,8.051508e-003
3.556150e+003,7.970913e-003
3.558078e+003,7.968120e-003
3.560007e+003,7.950692e-003
3.561935e+003,7.854553e-003
3.563864e+003,7.806666e-003
3.565792e+003,7.760283e-003
3.567721e+003,7.757134e-003
3.569649e+003,7.720819e-003
3.571578e+003,7.558680e-003
3.573506e+003,7.408151e-003
3.575435e+003,7.362214e-003
3.577363e+003,7.451259e-003
3.579292e+003,7.413870e-003
3.581220e+003,7.370741e-003
3.583149e+003,7.350613e-003
3.585077e+003,7.360506e-003
3.587006e+003,7.297644e-003
3.588934e+003,7.236198e-003
3.590863e+003,7.281159e-003
3.592791e+003,7.197231e-003
3.594720e+003,7.143159e-003
3.596648e+003,7.073001e-003
3.598577e+003,7.049840e-003
3.600505e+003,6.946478e-003
3.602434e+003,6.925987e-003
3.604362e+003,6.915950e-003
3.606291e+003,6.716550e-003
3.608219e+003,6.617280e-003
3.610148e+003,6.588771e-003
3.612076e+003,6.481957e-003
3.614005e+003,6.340817e-003
3.615933e+003,6.349247e-003
3.617862e+003,6.508185e-003
3.619790e+003,6.637788e-003
3.621719e+003,6.513776e-003
3.623647e+003,6.483918e-003
3.625576e+003,6.476153e-003
3.627504e+003,6.526328e-003
3.629433e+003,6.462869e-003
3.631361e+003,6.366363e-003
3.633290e+003,6.211882e-003
3.635218e+003,6.100397e-003
3.637146e+003,6.035660e-003
3.639075e+003,6.055383e-003
3.641004e+003,6.133066e-003
3.642932e+003,6.032625e-003
3.644861e+003,5.906901e-003
3.646789e+003,5.746186e-003
3.648718e+003,5.730115e-003
3.650646e+003,5.795063e-003
3.652574e+003,5.879588e-003
3.654503e+003,5.835204e-003
3.656432e+003,5.710418e-003
3.658360e+003,5.644783e-003
3.660289e+003,5.665473e-003
3.662217e+003,5.698090e-003
3.664146e+003,5.636014e-003
3.666074e+003,5.601060e-003
3.668002e+003,5.520440e-003
3.669931e+003,5.576767e-003
3.671860e+003,5.672473e-003
3.673788e+003,5.628723e-003
3.675717e+003,5.619577e-003
3.677645e+003,5.705517e-003
3.679573e+003,5.721070e-003
3.681502e+003,5.757931e-003
3.683430e+003,5.742054e-003
3.685359e+003,5.780076e-003
3.687288e+003,5.852466e-003
3.689216e+003,5.972094e-003
3.691145e+003,5.960718e-003
3.693073e+003,5.936848e-003
3.695001e+003,5.942299e-003
3.696930e+003,5.930375e-003
3.698858e+003,6.062416e-003
3.700787e+003,6.129604e-003
3.702716e+003,6.027027e-003
3.704644e+003,6.012277e-003
3.706573e+003,5.990232e-003
3.708501e+003,5.971796e-003
3.710429e+003,5.883761e-003
3.712358e+003,5.746725e-003
3.714286e+003,5.652203e-003
3.716215e+003,5.681801e-003
3.718144e+003,5.798538e-003
3.720072e+003,5.828296e-003
3.722000e+003,5.910869e-003
3.723929e+003,6.052352e-003
3.725857e+003,6.154025e-003
3.727786e+003,6.257602e-003
3.729714e+003,6.173064e-003
3.731643e+003,6.153171e-003
3.733572e+003,6.027551e-003
3.735500e+003,5.938625e-003
3.737428e+003,5.850952e-003
3.739357e+003,5.892652e-003
3.741285e+003,5.855845e-003
3.743214e+003,5.886740e-003
3.745142e+003,5.826850e-003
3.747071e+003,5.697269e-003
3.749000e+003,5.641375e-003
3.750928e+003,5.575781e-003
3.752856e+003,5.621533e-003
3.754785e+003,5.611088e-003
3.756713e+003,5.555378e-003
3.758642e+003,5.600692e-003
3.760570e+003,5.742656e-003
3.762499e+003,5.711842e-003
3.764427e+003,5.769077e-003
3.766356e+003,5.786417e-003
3.768284e+003,5.802029e-003
3.770213e+003,5.757344e-003
3.772141e+003,5.762807e-003
3.774070e+003,5.833327e-003
3.775998e+003,5.780582e-003
3.777927e+003,5.779795e-003
3.779855e+003,5.832260e-003
3.781784e+003,5.846214e-003
3.783712e+003,5.846692e-003
3.785641e+003,5.797337e-003
3.787569e+003,5.835311e-003
3.789498e+003,5.892774e-003
3.791426e+003,5.879403e-003
3.793355e+003,5.878526e-003
3.795283e+003,5.889507e-003
3.797212e+003,5.941125e-003
3.799140e+003,5.968545e-003
3.801069e+003,5.810159e-003
3.802997e+003,5.785710e-003
3.804926e+003,5.875167e-003
3.806854e+003,5.950861e-003
3.808783e+003,5.954955e-003
3.810711e+003,6.015452e-003
3.812640e+003,6.038449e-003
3.814568e+003,6.063871e-003
3.816497e+003,6.087708e-003
3.818425e+003,5.985287e-003
3.820354e+003,5.905976e-003
3.822282e+003,6.027089e-003
3.824211e+003,6.073141e-003
3.826139e+003,5.999287e-003
3.828068e+003,5.917620e-003
3.829996e+003,6.011305e-003
3.831925e+003,6.138825e-003
3.833853e+003,6.138097e-003
3.835782e+003,6.096625e-003
3.837710e+003,6.169352e-003
3.839639e+003,6.073304e-003
3.841567e+003,5.934864e-003
3.843496e+003,6.012235e-003
3.845424e+003,6.098808e-003
3.847353e+003,6.092079e-003
3.849281e+003,6.137618e-003
3.851210e+003,6.160450e-003
3.853138e+003,6.186788e-003
3.855067e+003,6.196951e-003
3.856995e+003,6.153703e-003
3.858924e+003,6.158070e-003
3.860852e+003,6.116418e-003
3.862781e+003,6.063688e-003
3.864709e+003,6.053381e-003
3.866638e+003,6.138911e-003
3.868566e+003,6.200293e-003
3.870495e+003,6.213284e-003
3.872423e+003,6.195558e-003
3.874352e+003,6.132337e-003
3.876280e+003,6.118076e-003
3.878209e+003,6.111043e-003
3.880137e+003,6.053470e-003
3.882066e+003,6.081707e-003
3.883994e+003,6.207828e-003
3.885923e+003,6.270470e-003
3.887851e+003,6.209074e-003
3.889780e+003,6.167371e-003
3.891708e+003,6.156540e-003
3.893637e+003,6.183289e-003
3.895565e+003,6.136322e-003
3.897494e+003,6.144844e-003
3.899422e+003,6.161953e-003
3.901351e+003,6.072787e-003
3.903279e+003,6.101395e-003
3.905208e+003,6.281108e-003
3.907136e+003,6.312905e-003
3.909065e+003,6.228248e-003
3.910993e+003,6.249947e-003
3.912922e+003,6.288211e-003
3.914850e+003,6.253548e-003
3.916779e+003,6.244605e-003
3.918707e+003,6.258717e-003
3.920636e+003,6.221957e-003
3.922564e+003,6.206304e-003
3.924493e+003,6.222879e-003
3.926421e+003,6.226492e-003
3.928350e+003,6.220920e-003
3.930278e+003,6.276898e-003
3.932207e+003,6.240120e-003
3.934135e+003,6.243545e-003
3.936064e+003,6.282699e-003
3.937992e+003,6.213170e-003
3.939921e+003,6.115894e-003
3.941849e+003,6.168812e-003
3.943778e+003,6.255304e-003
3.945706e+003,6.271317e-003
3.947635e+003,6.358123e-003
3.949563e+003,6.381484e-003
3.951492e+003,6.391860e-003
3.953420e+003,6.370198e-003
3.955349e+003,6.329651e-003
3.957277e+003,6.384835e-003
3.959206e+003,6.401135e-003
3.961134e+003,6.345480e-003
3.963063e+003,6.317026e-003
3.964991e+003,6.314374e-003
3.966920e+003,6.302872e-003
3.968848e+003,6.319463e-003
3.970777e+003,6.362856e-003
3.972705e+003,6.290363e-003
3.974634e+003,6.319152e-003
3.976562e+003,6.370213e-003
3.978491e+003,6.342752e-003
3.980419e+003,6.336635e-003
3.982348e+003,6.335143e-003
3.984276e+003,6.238742e-003
3.986205e+003,6.256976e-003
3.988133e+003,6.284800e-003
3.990062e+003,6.232057e-003
3.991990e+003,6.298915e-003
3.993919e+003,6.337563e-003
3.995847e+003,6.296026e-003
3.997776e+003,6.223799e-003
3.999704e+003,6.224220e-003
4.001633e+003,0.000000e+000
