3.991989e+002,5.962224e-002
4.011274e+002,5.611690e-002
4.030559e+002,5.611690e-002
4.049844e+002,5.836510e-002
4.069129e+002,6.029162e-002
4.088414e+002,6.032702e-002
4.107699e+002,5.883954e-002
4.126984e+002,5.960642e-002
4.146269e+002,6.090226e-002
4.165554e+002,6.282292e-002
4.184839e+002,6.516726e-002
4.204124e+002,6.514966e-002
4.223409e+002,6.602724e-002
4.242694e+002,6.670179e-002
4.261979e+002,6.648751e-002
4.281264e+002,6.626150e-002
4.300549e+002,6.575570e-002
4.319834e+002,6.701186e-002
4.339119e+002,6.783562e-002
4.358404e+002,6.774987e-002
4.377689e+002,6.827605e-002
4.396974e+002,6.889296e-002
4.416259e+002,6.897740e-002
4.435544e+002,6.843635e-002
4.454829e+002,6.892057e-002
4.474114e+002,6.840158e-002
4.493399e+002,6.853594e-002
4.512684e+002,6.824640e-002
4.531969e+002,6.819391e-002
4.551254e+002,6.855910e-002
4.570539e+002,6.848869e-002
4.589824e+002,6.805353e-002
4.609109e+002,6.709760e-002
4.628394e+002,6.663594e-002
4.647679e+002,6.670164e-002
4.666964e+002,6.564183e-002
4.686249e+002,6.428474e-002
4.705533e+002,6.379332e-002
4.724819e+002,6.329112e-002
4.744103e+002,6.324439e-002
4.763389e+002,6.314576e-002
4.782673e+002,6.191796e-002
4.801959e+002,6.115120e-002
4.821243e+002,6.021998e-002
4.840529e+002,5.945053e-002
4.859813e+002,5.864701e-002
4.879099e+002,5.762263e-002
4.898383e+002,5.733385e-002
4.917668e+002,5.674213e-002
4.936953e+002,5.646715e-002
4.956238e+002,5.620910e-002
4.975523e+002,5.570381e-002
4.994808e+002,5.507592e-002
5.014093e+002,5.490521e-002
5.033378e+002,5.461729e-002
5.052663e+002,5.492726e-002
5.071948e+002,5.479687e-002
5.091233e+002,5.453499e-002
5.110518e+002,5.459546e-002
5.129803e+002,5.498408e-002
5.149088e+002,5.552449e-002
5.168373e+002,5.601277e-002
5.187658e+002,5.629682e-002
5.206943e+002,5.605348e-002
5.226228e+002,5.597089e-002
5.245513e+002,5.618425e-002
5.264798e+002,5.593013e-002
5.284083e+002,5.573739e-002
5.303368e+002,5.600478e-002
5.322653e+002,5.582992e-002
5.341938e+002,5.548900e-002
5.361223e+002,5.502494e-002
5.380508e+002,5.473145e-002
5.399792e+002,5.471473e-002
5.419078e+002,5.413161e-002
5.438363e+002,5.439785e-002
5.457648e+002,5.450998e-002
5.476932e+002,5.467027e-002
5.496218e+002,5.553345e-002
5.515503e+002,5.591122e-002
5.534788e+002,5.605302e-002
5.554072e+002,5.610528e-002
5.573358e+002,5.678219e-002
5.592643e+002,5.731610e-002
5.611927e+002,5.694763e-002
5.631212e+002,5.627030e-002
5.650497e+002,5.578266e-002
5.669783e+002,5.507633e-002
5.689067e+002,5.444625e-002
5.708352e+002,5.391197e-002
5.727637e+002,5.393946e-002
5.746923e+002,5.368291e-002
5.766207e+002,5.333054e-002
5.785492e+002,5.306416e-002
5.804777e+002,5.312014e-002
5.824063e+002,5.281749e-002
5.843347e+002,5.269475e-002
5.862632e+002,5.249662e-002
5.881917e+002,5.238069e-002
5.901202e+002,5.239682e-002
5.920487e+002,5.239946e-002
5.939772e+002,5.228370e-002
5.959057e+002,5.244607e-002
5.978342e+002,5.199761e-002
5.997627e+002,5.152588e-002
6.016912e+002,5.121505e-002
6.036197e+002,5.114906e-002
6.055482e+002,5.118232e-002
6.074767e+002,5.108600e-002
6.094052e+002,5.094632e-002
6.113337e+002,5.041312e-002
6.132622e+002,4.986313e-002
6.151907e+002,4.924150e-002
6.171192e+002,4.874814e-002
6.190477e+002,4.855494e-002
6.209762e+002,4.807276e-002
6.229047e+002,4.721973e-002
6.248332e+002,4.631661e-002
6.267617e+002,4.550373e-002
6.286902e+002,4.480916e-002
6.306187e+002,4.443012e-002
6.325472e+002,4.404708e-002
6.344756e+002,4.379609e-002
6.364042e+002,4.341234e-002
6.383326e+002,4.311531e-002
6.402612e+002,4.271341e-002
6.421896e+002,4.233776e-002
6.441182e+002,4.210480e-002
6.460466e+002,4.206244e-002
6.479752e+002,4.171393e-002
6.499036e+002,4.148737e-002
6.518322e+002,4.133118e-002
6.537606e+002,4.118678e-002
6.556891e+002,4.118108e-002
6.576177e+002,4.132351e-002
6.595461e+002,4.140285e-002
6.614746e+002,4.130568e-002
6.634031e+002,4.153092e-002
6.653317e+002,4.166695e-002
6.672601e+002,4.113710e-002
6.691886e+002,4.083700e-002
6.711171e+002,4.029372e-002
6.730457e+002,3.932315e-002
6.749741e+002,3.812662e-002
6.769026e+002,3.734212e-002
6.788311e+002,3.652260e-002
6.807596e+002,3.550409e-002
6.826881e+002,3.461748e-002
6.846166e+002,3.413026e-002
6.865451e+002,3.397596e-002
6.884736e+002,3.384452e-002
6.904021e+002,3.369543e-002
6.923306e+002,3.340818e-002
6.942591e+002,3.325542e-002
6.961876e+002,3.302870e-002
6.981161e+002,3.297250e-002
7.000446e+002,3.288405e-002
7.019731e+002,3.269829e-002
7.039016e+002,3.251989e-002
7.058301e+002,3.233276e-002
7.077585e+002,3.211837e-002
7.096871e+002,3.190546e-002
7.116156e+002,3.158152e-002
7.135441e+002,3.121515e-002
7.154725e+002,3.110314e-002
7.174011e+002,3.106937e-002
7.193296e+002,3.086054e-002
7.212581e+002,3.050962e-002
7.231865e+002,3.020401e-002
7.251151e+002,3.001264e-002
7.270436e+002,2.984589e-002
7.289720e+002,2.942141e-002
7.309005e+002,2.907062e-002
7.328290e+002,2.879121e-002
7.347576e+002,2.847245e-002
7.366860e+002,2.829560e-002
7.386145e+002,2.807802e-002
7.405430e+002,2.783033e-002
7.424716e+002,2.763881e-002
7.444000e+002,2.736739e-002
7.463285e+002,2.714715e-002
7.482570e+002,2.694376e-002
7.501855e+002,2.683137e-002
7.521140e+002,2.664170e-002
7.540425e+002,2.642484e-002
7.559710e+002,2.626985e-002
7.578995e+002,2.611893e-002
7.598280e+002,2.586783e-002
7.617565e+002,2.562482e-002
7.636850e+002,2.558880e-002
7.656135e+002,2.548604e-002
7.675420e+002,2.538110e-002
7.694705e+002,2.540714e-002
7.713990e+002,2.541360e-002
7.733275e+002,2.547722e-002
7.752560e+002,2.550354e-002
7.771844e+002,2.551170e-002
7.791130e+002,2.559909e-002
7.810415e+002,2.569794e-002
7.829700e+002,2.586906e-002
7.848984e+002,2.579532e-002
7.868270e+002,2.576227e-002
7.887555e+002,2.584205e-002
7.906840e+002,2.579476e-002
7.926124e+002,2.568440e-002
7.945410e+002,2.566633e-002
7.964695e+002,2.571305e-002
7.983979e+002,2.568331e-002
8.003264e+002,2.558310e-002
8.022549e+002,2.555045e-002
8.041835e+002,2.555211e-002
8.061119e+002,2.548903e-002
8.080404e+002,2.550801e-002
8.099689e+002,2.539294e-002
8.118975e+002,2.527809e-002
8.138259e+002,2.525708e-002
8.157545e+002,2.524760e-002
8.176830e+002,2.506485e-002
8.196115e+002,2.487243e-002
8.215399e+002,2.483717e-002
8.234684e+002,2.483492e-002
8.253970e+002,2.478020e-002
8.273254e+002,2.487387e-002
8.292539e+002,2.487092e-002
8.311824e+002,2.488050e-002
8.331110e+002,2.496946e-002
8.350394e+002,2.486724e-002
8.369679e+002,2.456998e-002
8.388964e+002,2.435577e-002
8.408250e+002,2.416029e-002
8.427534e+002,2.409899e-002
8.446819e+002,2.388182e-002
8.466104e+002,2.370336e-002
8.485389e+002,2.359150e-002
8.504674e+002,2.352203e-002
8.523959e+002,2.349220e-002
8.543244e+002,2.364006e-002
8.562529e+002,2.367915e-002
8.581814e+002,2.369146e-002
8.601099e+002,2.385613e-002
8.620384e+002,2.395524e-002
8.639669e+002,2.407378e-002
8.658954e+002,2.425022e-002
8.678239e+002,2.453930e-002
8.697524e+002,2.474652e-002
8.716809e+002,2.495440e-002
8.736094e+002,2.526801e-002
8.755378e+002,2.550045e-002
8.774664e+002,2.581698e-002
8.793949e+002,2.629072e-002
8.813234e+002,2.673251e-002
8.832518e+002,2.717511e-002
8.851804e+002,2.781128e-002
8.871089e+002,2.864413e-002
8.890374e+002,2.946177e-002
8.909658e+002,3.029676e-002
8.928943e+002,3.106745e-002
8.948229e+002,3.156868e-002
8.967513e+002,3.175340e-002
8.986798e+002,3.172250e-002
9.006083e+002,3.146358e-002
9.025369e+002,3.088700e-002
9.044653e+002,3.036736e-002
9.063938e+002,2.997723e-002
9.083223e+002,2.968650e-002
9.102509e+002,2.956798e-002
9.121793e+002,2.957359e-002
9.141078e+002,2.961324e-002
9.160364e+002,2.973000e-002
9.179648e+002,2.997393e-002
9.198933e+002,3.030760e-002
9.218218e+002,3.065763e-002
9.237504e+002,3.100552e-002
9.256788e+002,3.138639e-002
9.276073e+002,3.182413e-002
9.295358e+002,3.211669e-002
9.314644e+002,3.257167e-002
9.333928e+002,3.321101e-002
9.353213e+002,3.382144e-002
9.372498e+002,3.431820e-002
9.391783e+002,3.496205e-002
9.411068e+002,3.567814e-002
9.430353e+002,3.655049e-002
9.449637e+002,3.743875e-002
9.468923e+002,3.842282e-002
9.488208e+002,3.932664e-002
9.507493e+002,4.044192e-002
9.526777e+002,4.154894e-002
9.546063e+002,4.268775e-002
9.565348e+002,4.383750e-002
9.584633e+002,4.495448e-002
9.603917e+002,4.603307e-002
9.623203e+002,4.720724e-002
9.642488e+002,4.827401e-002
9.661772e+002,4.926100e-002
9.681057e+002,5.024396e-002
9.700343e+002,5.119977e-002
9.719628e+002,5.216101e-002
9.738912e+002,5.329577e-002
9.758197e+002,5.451250e-002
9.777483e+002,5.600418e-002
9.796768e+002,5.766141e-002
9.816052e+002,5.939975e-002
9.835337e+002,6.123652e-002
9.854623e+002,6.289963e-002
9.873907e+002,6.419276e-002
9.893192e+002,6.521804e-002
9.912477e+002,6.573682e-002
9.931763e+002,6.596089e-002
9.951047e+002,6.619738e-002
9.970332e+002,6.669756e-002
9.989617e+002,6.750178e-002
1.000890e+003,6.851442e-002
1.002819e+003,6.963202e-002
1.004747e+003,7.074837e-002
1.006676e+003,7.177996e-002
1.008604e+003,7.275154e-002
1.010533e+003,7.380530e-002
1.012461e+003,7.505972e-002
1.014390e+003,7.646778e-002
1.016318e+003,7.791503e-002
1.018247e+003,7.937574e-002
1.020175e+003,8.078955e-002
1.022104e+003,8.221706e-002
1.024032e+003,8.369680e-002
1.025961e+003,8.508019e-002
1.027889e+003,8.646452e-002
1.029818e+003,8.775192e-002
1.031746e+003,8.880446e-002
1.033675e+003,8.931173e-002
1.035603e+003,8.914416e-002
1.037532e+003,8.829604e-002
1.039460e+003,8.716102e-002
1.041389e+003,8.598000e-002
1.043317e+003,8.500692e-002
1.045246e+003,8.440485e-002
1.047174e+003,8.408818e-002
1.049103e+003,8.379469e-002
1.051031e+003,8.351071e-002
1.052960e+003,8.302798e-002
1.054888e+003,8.235666e-002
1.056817e+003,8.124235e-002
1.058745e+003,7.989569e-002
1.060674e+003,7.835805e-002
1.062602e+003,7.652958e-002
1.064531e+003,7.448555e-002
1.066459e+003,7.243966e-002
1.068388e+003,7.049384e-002
1.070316e+003,6.884742e-002
1.072245e+003,6.735972e-002
1.074173e+003,6.595090e-002
1.076102e+003,6.455302e-002
1.078030e+003,6.319302e-002
1.079959e+003,6.177532e-002
1.081887e+003,6.044495e-002
1.083816e+003,5.938574e-002
1.085744e+003,5.859207e-002
1.087673e+003,5.800380e-002
1.089601e+003,5.749836e-002
1.091530e+003,5.703930e-002
1.093458e+003,5.671168e-002
1.095387e+003,5.643057e-002
1.097315e+003,5.625213e-002
1.099244e+003,5.622965e-002
1.101172e+003,5.622984e-002
1.103101e+003,5.609439e-002
1.105029e+003,5.571957e-002
1.106958e+003,5.510264e-002
1.108886e+003,5.424162e-002
1.110815e+003,5.295404e-002
1.112743e+003,5.139788e-002
1.114672e+003,4.977125e-002
1.116600e+003,4.823605e-002
1.118529e+003,4.678885e-002
1.120457e+003,4.555369e-002
1.122386e+003,4.432919e-002
1.124314e+003,4.311629e-002
1.126243e+003,4.168467e-002
1.128171e+003,4.010361e-002
1.130100e+003,3.854635e-002
1.132028e+003,3.708523e-002
1.133957e+003,3.570174e-002
1.135885e+003,3.453839e-002
1.137814e+003,3.362278e-002
1.139742e+003,3.309871e-002
1.141671e+003,3.298484e-002
1.143599e+003,3.315915e-002
1.145528e+003,3.349917e-002
1.147456e+003,3.397728e-002
1.149385e+003,3.453451e-002
1.151313e+003,3.518616e-002
1.153242e+003,3.585814e-002
1.155170e+003,3.646233e-002
1.157099e+003,3.693441e-002
1.159027e+003,3.723502e-002
1.160956e+003,3.725730e-002
1.162884e+003,3.678011e-002
1.164813e+003,3.594761e-002
1.166741e+003,3.472736e-002
1.168670e+003,3.318168e-002
1.170598e+003,3.143326e-002
1.172526e+003,2.961105e-002
1.174455e+003,2.792122e-002
1.176384e+003,2.646549e-002
1.178312e+003,2.523370e-002
1.180240e+003,2.416306e-002
1.182169e+003,2.332742e-002
1.184098e+003,2.267782e-002
1.186026e+003,2.215619e-002
1.187954e+003,2.180250e-002
1.189883e+003,2.163554e-002
1.191812e+003,2.168367e-002
1.193740e+003,2.186857e-002
1.195668e+003,2.215465e-002
1.197597e+003,2.252509e-002
1.199526e+003,2.284190e-002
1.201454e+003,2.306345e-002
1.203382e+003,2.309565e-002
1.205311e+003,2.298598e-002
1.207240e+003,2.286668e-002
1.209168e+003,2.278145e-002
1.211096e+003,2.279247e-002
1.213025e+003,2.293486e-002
1.214953e+003,2.316146e-002
1.216882e+003,2.353118e-002
1.218810e+003,2.390805e-002
1.220739e+003,2.428300e-002
1.222667e+003,2.468121e-002
1.224596e+003,2.507823e-002
1.226524e+003,2.552857e-002
1.228453e+003,2.598146e-002
1.230381e+003,2.633557e-002
1.232310e+003,2.658260e-002
1.234238e+003,2.670091e-002
1.236167e+003,2.673587e-002
1.238095e+003,2.674289e-002
1.240024e+003,2.666367e-002
1.241952e+003,2.648470e-002
1.243881e+003,2.623769e-002
1.245809e+003,2.595593e-002
1.247738e+003,2.559359e-002
1.249666e+003,2.517975e-002
1.251595e+003,2.471561e-002
1.253523e+003,2.425742e-002
1.255452e+003,2.381543e-002
1.257380e+003,2.334405e-002
1.259309e+003,2.287045e-002
1.261237e+003,2.234617e-002
1.263166e+003,2.179334e-002
1.265094e+003,2.124288e-002
1.267023e+003,2.069141e-002
1.268951e+003,2.010289e-002
1.270880e+003,1.954004e-002
1.272808e+003,1.906112e-002
1.274737e+003,1.865674e-002
1.276665e+003,1.823783e-002
1.278594e+003,1.784519e-002
1.280522e+003,1.752818e-002
1.282451e+003,1.727492e-002
1.284379e+003,1.704615e-002
1.286308e+003,1.679628e-002
1.288236e+003,1.659249e-002
1.290165e+003,1.646416e-002
1.292093e+003,1.642014e-002
1.294022e+003,1.649797e-002
1.295950e+003,1.668771e-002
1.297879e+003,1.692257e-002
1.299807e+003,1.718492e-002
1.301736e+003,1.747946e-002
1.303664e+003,1.787151e-002
1.305593e+003,1.833407e-002
1.307521e+003,1.877934e-002
1.309450e+003,1.926444e-002
1.311378e+003,1.963318e-002
1.313307e+003,1.992545e-002
1.315235e+003,2.018538e-002
1.317164e+003,2.030157e-002
1.319092e+003,2.026356e-002
1.321021e+003,2.013069e-002
1.322949e+003,1.996572e-002
1.324878e+003,1.975013e-002
1.326806e+003,1.953645e-002
1.328735e+003,1.946148e-002
1.330663e+003,1.934915e-002
1.332592e+003,1.923445e-002
1.334520e+003,1.911109e-002
1.336449e+003,1.891650e-002
1.338377e+003,1.866706e-002
1.340306e+003,1.843499e-002
1.342234e+003,1.826659e-002
1.344163e+003,1.810195e-002
1.346091e+003,1.799329e-002
1.348020e+003,1.800072e-002
1.349948e+003,1.809419e-002
1.351877e+003,1.830249e-002
1.353805e+003,1.853370e-002
1.355734e+003,1.878142e-002
1.357662e+003,1.904409e-002
1.359591e+003,1.932352e-002
1.361519e+003,1.960610e-002
1.363448e+003,1.982833e-002
1.365376e+003,2.002709e-002
1.367305e+003,2.014700e-002
1.369233e+003,2.020676e-002
1.371162e+003,2.014355e-002
1.373090e+003,1.989800e-002
1.375019e+003,1.956992e-002
1.376947e+003,1.915385e-002
1.378876e+003,1.870002e-002
1.380804e+003,1.814500e-002
1.382733e+003,1.752187e-002
1.384661e+003,1.695924e-002
1.386590e+003,1.650700e-002
1.388518e+003,1.617412e-002
1.390447e+003,1.588956e-002
1.392375e+003,1.567793e-002
1.394304e+003,1.558440e-002
1.396232e+003,1.549728e-002
1.398161e+003,1.545568e-002
1.400089e+003,1.549456e-002
1.402018e+003,1.555429e-002
1.403946e+003,1.560680e-002
1.405875e+003,1.567153e-002
1.407803e+003,1.581568e-002
1.409732e+003,1.602191e-002
1.411660e+003,1.623852e-002
1.413589e+003,1.649886e-002
1.415517e+003,1.679962e-002
1.417446e+003,1.711289e-002
1.419374e+003,1.740382e-002
1.421303e+003,1.756803e-002
1.423231e+003,1.759728e-002
1.425160e+003,1.754841e-002
1.427088e+003,1.736830e-002
1.429017e+003,1.712169e-002
1.430945e+003,1.685761e-002
1.432874e+003,1.656586e-002
1.434802e+003,1.624511e-002
1.436731e+003,1.594296e-002
1.438659e+003,1.569169e-002
1.440588e+003,1.551962e-002
1.442516e+003,1.546213e-002
1.444445e+003,1.548277e-002
1.446373e+003,1.551598e-002
1.448302e+003,1.556654e-002
1.450230e+003,1.561338e-002
1.452159e+003,1.562577e-002
1.454087e+003,1.556316e-002
1.456016e+003,1.548612e-002
1.457944e+003,1.534807e-002
1.459873e+003,1.521958e-002
1.461801e+003,1.509915e-002
1.463730e+003,1.483592e-002
1.465658e+003,1.445098e-002
1.467587e+003,1.394373e-002
1.469515e+003,1.330170e-002
1.471444e+003,1.259596e-002
1.473372e+003,1.194085e-002
1.475301e+003,1.143277e-002
1.477229e+003,1.107471e-002
1.479158e+003,1.078789e-002
1.481086e+003,1.061666e-002
1.483015e+003,1.058759e-002
1.484943e+003,1.061694e-002
1.486872e+003,1.067555e-002
1.488800e+003,1.079913e-002
1.490729e+003,1.102304e-002
1.492657e+003,1.127863e-002
1.494586e+003,1.159409e-002
1.496514e+003,1.193627e-002
1.498443e+003,1.216925e-002
1.500371e+003,1.238806e-002
1.502300e+003,1.255791e-002
1.504228e+003,1.271553e-002
1.506157e+003,1.281834e-002
1.508085e+003,1.283093e-002
1.510014e+003,1.279762e-002
1.511942e+003,1.285014e-002
1.513871e+003,1.284562e-002
1.515799e+003,1.262236e-002
1.517728e+003,1.226288e-002
1.519656e+003,1.184133e-002
1.521585e+003,1.141780e-002
1.523513e+003,1.110978e-002
1.525442e+003,1.093998e-002
1.527370e+003,1.083328e-002
1.529299e+003,1.081255e-002
1.531227e+003,1.071572e-002
1.533156e+003,1.067801e-002
1.535084e+003,1.073187e-002
1.537013e+003,1.075143e-002
1.538941e+003,1.076408e-002
1.540870e+003,1.077602e-002
1.542798e+003,1.081835e-002
1.544727e+003,1.080397e-002
1.546655e+003,1.079081e-002
1.548584e+003,1.079514e-002
1.550512e+003,1.080822e-002
1.552441e+003,1.082539e-002
1.554369e+003,1.085713e-002
1.556298e+003,1.084069e-002
1.558226e+003,1.083052e-002
1.560155e+003,1.097092e-002
1.562083e+003,1.097016e-002
1.564012e+003,1.098708e-002
1.565940e+003,1.112394e-002
1.567869e+003,1.127083e-002
1.569797e+003,1.141293e-002
1.571726e+003,1.161353e-002
1.573654e+003,1.183585e-002
1.575583e+003,1.210071e-002
1.577511e+003,1.244315e-002
1.579440e+003,1.276443e-002
1.581368e+003,1.316876e-002
1.583297e+003,1.364150e-002
1.585225e+003,1.408252e-002
1.587154e+003,1.440843e-002
1.589082e+003,1.475841e-002
1.591010e+003,1.503214e-002
1.592939e+003,1.525501e-002
1.594868e+003,1.540499e-002
1.596796e+003,1.548908e-002
1.598724e+003,1.556107e-002
1.600653e+003,1.566072e-002
1.602582e+003,1.573296e-002
1.604510e+003,1.577557e-002
1.606438e+003,1.570989e-002
1.608367e+003,1.549294e-002
1.610296e+003,1.531821e-002
1.612224e+003,1.525643e-002
1.614152e+003,1.529195e-002
1.616081e+003,1.542480e-002
1.618010e+003,1.555934e-002
1.619938e+003,1.566449e-002
1.621866e+003,1.583206e-002
1.623795e+003,1.596423e-002
1.625724e+003,1.604737e-002
1.627652e+003,1.604682e-002
1.629580e+003,1.604143e-002
1.631509e+003,1.597659e-002
1.633438e+003,1.583030e-002
1.635366e+003,1.566927e-002
1.637294e+003,1.559701e-002
1.639223e+003,1.539976e-002
1.641151e+003,1.529590e-002
1.643080e+003,1.521355e-002
1.645008e+003,1.515393e-002
1.646937e+003,1.509411e-002
1.648865e+003,1.505515e-002
1.650794e+003,1.500108e-002
1.652722e+003,1.491152e-002
1.654651e+003,1.479773e-002
1.656579e+003,1.459582e-002
1.658508e+003,1.433404e-002
1.660436e+003,1.402442e-002
1.662365e+003,1.370629e-002
1.664293e+003,1.343129e-002
1.666222e+003,1.311254e-002
1.668150e+003,1.280368e-002
1.670079e+003,1.254662e-002
1.672007e+003,1.231278e-002
1.673936e+003,1.210410e-002
1.675864e+003,1.197069e-002
1.677793e+003,1.180458e-002
1.679721e+003,1.161300e-002
1.681650e+003,1.146055e-002
1.683578e+003,1.136407e-002
1.685507e+003,1.131953e-002
1.687435e+003,1.116486e-002
1.689364e+003,1.104863e-002
1.691292e+003,1.100669e-002
1.693221e+003,1.096075e-002
1.695149e+003,1.095565e-002
1.697078e+003,1.085590e-002
1.699006e+003,1.066532e-002
1.700935e+003,1.065453e-002
1.702863e+003,1.068316e-002
1.704792e+003,1.070414e-002
1.706720e+003,1.072083e-002
1.708649e+003,1.084303e-002
1.710577e+003,1.098855e-002
1.712506e+003,1.115975e-002
1.714434e+003,1.128870e-002
1.716363e+003,1.147910e-002
1.718291e+003,1.168299e-002
1.720220e+003,1.185775e-002
1.722148e+003,1.194164e-002
1.724077e+003,1.207137e-002
1.726005e+003,1.217994e-002
1.727934e+003,1.225546e-002
1.729862e+003,1.229874e-002
1.731791e+003,1.231608e-002
1.733719e+003,1.222294e-002
1.735648e+003,1.198401e-002
1.737576e+003,1.164379e-002
1.739505e+003,1.132951e-002
1.741433e+003,1.098948e-002
1.743362e+003,1.060157e-002
1.745290e+003,1.023042e-002
1.747219e+003,9.807982e-003
1.749147e+003,9.406429e-003
1.751076e+003,9.075265e-003
1.753004e+003,8.699581e-003
1.754933e+003,8.349584e-003
1.756861e+003,8.095015e-003
1.758790e+003,7.866885e-003
1.760718e+003,7.566045e-003
1.762647e+003,7.315755e-003
1.764575e+003,7.190154e-003
1.766504e+003,7.083499e-003
1.768432e+003,7.012746e-003
1.770361e+003,6.891210e-003
1.772289e+003,6.786188e-003
1.774218e+003,6.719798e-003
1.776146e+003,6.694101e-003
1.778075e+003,6.707870e-003
1.780003e+003,6.665947e-003
1.781932e+003,6.664077e-003
1.783860e+003,6.615681e-003
1.785789e+003,6.607051e-003
1.787717e+003,6.603100e-003
1.789646e+003,6.591120e-003
1.791574e+003,6.634400e-003
1.793503e+003,6.708587e-003
1.795431e+003,6.675617e-003
1.797360e+003,6.647561e-003
1.799288e+003,6.677342e-003
1.801217e+003,6.694149e-003
1.803145e+003,6.708361e-003
1.805074e+003,6.733959e-003
1.807002e+003,6.715507e-003
1.808931e+003,6.679452e-003
1.810859e+003,6.606948e-003
1.812788e+003,6.621142e-003
1.814716e+003,6.620202e-003
1.816645e+003,6.566971e-003
1.818573e+003,6.512693e-003
1.820502e+003,6.444895e-003
1.822430e+003,6.456386e-003
1.824359e+003,6.447585e-003
1.826287e+003,6.434379e-003
1.828216e+003,6.397059e-003
1.830144e+003,6.339559e-003
1.832073e+003,6.382485e-003
1.834001e+003,6.431996e-003
1.835930e+003,6.339935e-003
1.837858e+003,6.242008e-003
1.839787e+003,6.219538e-003
1.841715e+003,6.297883e-003
1.843644e+003,6.312059e-003
1.845572e+003,6.341980e-003
1.847501e+003,6.229018e-003
1.849429e+003,6.241735e-003
1.851358e+003,6.273418e-003
1.853286e+003,6.211954e-003
1.855215e+003,6.241504e-003
1.857143e+003,6.248503e-003
1.859072e+003,6.295574e-003
1.861000e+003,6.437867e-003
1.862929e+003,6.305753e-003
1.864857e+003,6.053406e-003
1.866786e+003,6.167120e-003
1.868714e+003,6.274451e-003
1.870643e+003,6.311435e-003
1.872571e+003,6.227985e-003
1.874500e+003,6.108550e-003
1.876428e+003,6.072836e-003
1.878357e+003,6.116399e-003
1.880285e+003,6.191042e-003
1.882214e+003,6.184966e-003
1.884142e+003,6.276885e-003
1.886071e+003,6.294105e-003
1.887999e+003,6.236350e-003
1.889928e+003,6.154468e-003
1.891856e+003,6.007263e-003
1.893785e+003,5.870854e-003
1.895713e+003,5.726488e-003
1.897642e+003,5.726001e-003
1.899570e+003,5.755647e-003
1.901499e+003,5.740816e-003
1.903427e+003,5.860175e-003
1.905356e+003,5.847486e-003
1.907284e+003,5.595083e-003
1.909213e+003,5.686000e-003
1.911141e+003,5.720575e-003
1.913070e+003,5.428448e-003
1.914998e+003,5.520016e-003
1.916927e+003,5.529680e-003
1.918855e+003,5.556766e-003
1.920784e+003,5.538235e-003
1.922712e+003,5.407918e-003
1.924641e+003,5.449615e-003
1.926569e+003,5.379357e-003
1.928498e+003,5.068404e-003
1.930426e+003,4.892437e-003
1.932355e+003,4.880411e-003
1.934283e+003,4.549272e-003
1.936212e+003,4.356262e-003
1.938140e+003,4.195213e-003
1.940069e+003,3.861817e-003
1.941997e+003,3.419491e-003
1.943926e+003,3.379863e-003
1.945854e+003,3.151942e-003
1.947783e+003,2.602969e-003
1.949711e+003,2.757463e-003
1.951640e+003,3.076715e-003
1.953568e+003,2.233682e-003
1.955497e+003,1.444796e-003
1.957425e+003,8.666421e-004
1.959354e+003,2.002033e-004
1.961282e+003,-6.704296e-004
1.963211e+003,-7.275714e-004
1.965139e+003,-1.122117e-003
1.967068e+003,-1.965073e-003
1.968996e+003,-2.390795e-003
1.970925e+003,-2.918819e-003
1.972853e+003,-3.840639e-003
1.974782e+003,-4.273513e-003
1.976710e+003,-4.557583e-003
1.978639e+003,-2.963573e-003
1.980567e+003,-2.120145e-003
1.982496e+003,-2.318462e-003
1.984424e+003,-1.332189e-003
1.986353e+003,-2.311787e-004
1.988281e+003,-7.484769e-004
1.990210e+003,-3.877478e-004
1.992138e+003,4.826134e-005
1.994067e+003,-4.657822e-004
1.995995e+003,-6.919423e-004
1.997924e+003,1.130730e-004
1.999852e+003,-5.938025e-004
2.001781e+003,-1.349835e-003
2.003709e+003,-2.096463e-003
2.005638e+003,-2.806661e-003
2.007566e+003,-3.575882e-003
2.009495e+003,-3.790496e-003
2.011423e+003,-4.490557e-003
2.013352e+003,-5.182269e-003
2.015280e+003,-6.457082e-003
2.017208e+003,-6.786433e-003
2.019137e+003,-6.365813e-003
2.021066e+003,-6.461943e-003
2.022994e+003,-6.386335e-003
2.024922e+003,-7.454928e-003
2.026851e+003,-6.359771e-003
2.028780e+003,-6.372347e-003
2.030708e+003,-6.560916e-003
2.032636e+003,-6.857155e-003
2.034565e+003,-7.654035e-003
2.036494e+003,-6.976902e-003
2.038422e+003,-5.132885e-003
2.040350e+003,-4.422696e-003
2.042279e+003,-4.380908e-003
2.044208e+003,-3.523307e-003
2.046136e+003,-3.597789e-003
2.048064e+003,-2.966044e-003
2.049993e+003,-1.360483e-003
2.051921e+003,-5.693454e-004
2.053850e+003,-4.992497e-005
2.055778e+003,7.540312e-004
2.057707e+003,1.018301e-003
2.059635e+003,5.810923e-004
2.061564e+003,2.217394e-004
2.063492e+003,4.964000e-004
2.065421e+003,1.071931e-003
2.067349e+003,2.091294e-003
2.069278e+003,2.392352e-003
2.071206e+003,2.281237e-003
2.073135e+003,2.260670e-003
2.075063e+003,2.453020e-003
2.076992e+003,2.642957e-003
2.078920e+003,3.057044e-003
2.080849e+003,3.358816e-003
2.082777e+003,3.591054e-003
2.084706e+003,3.794061e-003
2.086634e+003,3.995976e-003
2.088563e+003,3.769214e-003
2.090491e+003,3.816879e-003
2.092420e+003,3.943293e-003
2.094348e+003,3.806547e-003
2.096277e+003,3.588331e-003
2.098205e+003,3.409188e-003
2.100134e+003,3.704133e-003
2.102062e+003,4.130721e-003
2.103991e+003,4.272174e-003
2.105919e+003,4.341880e-003
2.107848e+003,4.496190e-003
2.109776e+003,4.634580e-003
2.111705e+003,4.734290e-003
2.113633e+003,4.827657e-003
2.115562e+003,4.960556e-003
2.117490e+003,4.881334e-003
2.119419e+003,4.892526e-003
2.121347e+003,5.094233e-003
2.123276e+003,5.076934e-003
2.125204e+003,4.716704e-003
2.127133e+003,4.335153e-003
2.129061e+003,4.053524e-003
2.130990e+003,3.665638e-003
2.132918e+003,3.356293e-003
2.134847e+003,2.833703e-003
2.136775e+003,2.604542e-003
2.138704e+003,2.389762e-003
2.140632e+003,2.352115e-003
2.142561e+003,1.927071e-003
2.144489e+003,9.996438e-004
2.146418e+003,-2.523418e-004
2.148346e+003,-1.020753e-003
2.150275e+003,-1.681573e-003
2.152203e+003,-2.735429e-003
2.154132e+003,-4.240007e-003
2.156060e+003,-6.513962e-003
2.157989e+003,-9.985237e-003
2.159917e+003,-1.197279e-002
2.161846e+003,-8.454747e-003
2.163774e+003,-6.437837e-003
2.165703e+003,-5.785200e-003
2.167631e+003,-4.750985e-003
2.169560e+003,-3.135789e-003
2.171488e+003,-2.564312e-003
2.173417e+003,-1.871019e-003
2.175345e+003,-1.571946e-003
2.177274e+003,-2.965586e-003
2.179202e+003,-2.877613e-003
2.181131e+003,-1.924429e-003
2.183059e+003,-1.225422e-003
2.184988e+003,-1.142019e-003
2.186916e+003,-1.722169e-003
2.188845e+003,-1.652362e-003
2.190773e+003,-5.881946e-004
2.192702e+003,2.542788e-004
2.194630e+003,6.735075e-004
2.196559e+003,7.299928e-004
2.198487e+003,7.212972e-004
2.200416e+003,9.472410e-004
2.202344e+003,4.941107e-004
2.204273e+003,7.016828e-004
2.206201e+003,1.186526e-003
2.208130e+003,1.555277e-003
2.210058e+003,1.639448e-003
2.211987e+003,1.344604e-003
2.213915e+003,1.722072e-003
2.215844e+003,2.160236e-003
2.217772e+003,2.275000e-003
2.219701e+003,2.453468e-003
2.221629e+003,2.791449e-003
2.223558e+003,2.406754e-003
2.225486e+003,2.581843e-003
2.227415e+003,3.029250e-003
2.229343e+003,3.194810e-003
2.231272e+003,3.041979e-003
2.233200e+003,3.227799e-003
2.235129e+003,3.163791e-003
2.237057e+003,2.835223e-003
2.238986e+003,3.003132e-003
2.240914e+003,3.539549e-003
2.242843e+003,3.830142e-003
2.244771e+003,3.743214e-003
2.246700e+003,4.051609e-003
2.248628e+003,3.872436e-003
2.250557e+003,3.730273e-003
2.252485e+003,3.943938e-003
2.254414e+003,4.353572e-003
2.256342e+003,4.466851e-003
2.258271e+003,4.229584e-003
2.260199e+003,4.293547e-003
2.262128e+003,4.306985e-003
2.264056e+003,4.528625e-003
2.265985e+003,4.848486e-003
2.267913e+003,4.925942e-003
2.269842e+003,5.352931e-003
2.271770e+003,5.660637e-003
2.273699e+003,5.641956e-003
2.275627e+003,5.719458e-003
2.277556e+003,5.879976e-003
2.279484e+003,6.085561e-003
2.281413e+003,6.492324e-003
2.283341e+003,6.914918e-003
2.285270e+003,6.975505e-003
2.287198e+003,7.120491e-003
2.289127e+003,7.231204e-003
2.291055e+003,7.243322e-003
2.292984e+003,7.348431e-003
2.294912e+003,7.438669e-003
2.296841e+003,7.702837e-003
2.298769e+003,7.884067e-003
2.300698e+003,8.053159e-003
2.302626e+003,8.081832e-003
2.304555e+003,8.230978e-003
2.306483e+003,8.360467e-003
2.308412e+003,8.366688e-003
2.310340e+003,8.486588e-003
2.312269e+003,8.636536e-003
2.314197e+003,8.759647e-003
2.316125e+003,8.886090e-003
2.318054e+003,9.100732e-003
2.319983e+003,9.128926e-003
2.321911e+003,9.161565e-003
2.323840e+003,9.141323e-003
2.325768e+003,9.205868e-003
2.327697e+003,9.302084e-003
2.329625e+003,9.075672e-003
2.331553e+003,8.869073e-003
2.333482e+003,8.993772e-003
2.335411e+003,8.951910e-003
2.337339e+003,8.655350e-003
2.339268e+003,8.395863e-003
2.341196e+003,8.440472e-003
2.343125e+003,8.211409e-003
2.345053e+003,8.093813e-003
2.346981e+003,7.831993e-003
2.348910e+003,7.745927e-003
2.350839e+003,7.612103e-003
2.352767e+003,7.370114e-003
2.354696e+003,7.648483e-003
2.356624e+003,7.542783e-003
2.358552e+003,7.490443e-003
2.360481e+003,7.341124e-003
2.362409e+003,7.589141e-003
2.364338e+003,8.120522e-003
2.366267e+003,7.446344e-003
2.368195e+003,7.514389e-003
2.370124e+003,7.920001e-003
2.372052e+003,8.161862e-003
2.373980e+003,8.083615e-003
2.375909e+003,8.291633e-003
2.377838e+003,8.461388e-003
2.379766e+003,8.354429e-003
2.381695e+003,8.253504e-003
2.383623e+003,8.254101e-003
2.385552e+003,8.121953e-003
2.387480e+003,8.001149e-003
2.389408e+003,8.167448e-003
2.391337e+003,8.379041e-003
2.393266e+003,8.420125e-003
2.395194e+003,8.466188e-003
2.397123e+003,8.387649e-003
2.399051e+003,8.287431e-003
2.400979e+003,8.351974e-003
2.402908e+003,8.363121e-003
2.404836e+003,8.189974e-003
2.406765e+003,8.078835e-003
2.408694e+003,8.057738e-003
2.410622e+003,8.127413e-003
2.412551e+003,8.115834e-003
2.414479e+003,8.031174e-003
2.416407e+003,7.851513e-003
2.418336e+003,7.846182e-003
2.420264e+003,7.903372e-003
2.422193e+003,7.885253e-003
2.424122e+003,7.936610e-003
2.426050e+003,7.867876e-003
2.427979e+003,7.798614e-003
2.429907e+003,7.875502e-003
2.431835e+003,7.932088e-003
2.433764e+003,7.894700e-003
2.435692e+003,7.883026e-003
2.437621e+003,7.712061e-003
2.439550e+003,7.615543e-003
2.441478e+003,7.624580e-003
2.443406e+003,7.548748e-003
2.445335e+003,7.603437e-003
2.447263e+003,7.559166e-003
2.449192e+003,7.509438e-003
2.451121e+003,7.517698e-003
2.453049e+003,7.521103e-003
2.454978e+003,7.548984e-003
2.456906e+003,7.652367e-003
2.458834e+003,7.729464e-003
2.460763e+003,7.756785e-003
2.462691e+003,7.673747e-003
2.464620e+003,7.624613e-003
2.466549e+003,7.746700e-003
2.468477e+003,7.906679e-003
2.470406e+003,7.854954e-003
2.472334e+003,7.730071e-003
2.474262e+003,7.806441e-003
2.476191e+003,7.798547e-003
2.478119e+003,7.635033e-003
2.480048e+003,7.626974e-003
2.481977e+003,7.788022e-003
2.483905e+003,7.950851e-003
2.485833e+003,8.081097e-003
2.487762e+003,7.974709e-003
2.489690e+003,8.010721e-003
2.491619e+003,7.994757e-003
2.493547e+003,8.002485e-003
2.495476e+003,7.978490e-003
2.497405e+003,7.854044e-003
2.499333e+003,7.986961e-003
2.501261e+003,8.055341e-003
2.503190e+003,7.949265e-003
2.505118e+003,7.935057e-003
2.507047e+003,7.955541e-003
2.508975e+003,7.793284e-003
2.510904e+003,7.779690e-003
2.512833e+003,7.914710e-003
2.514761e+003,7.911875e-003
2.516689e+003,7.864300e-003
2.518618e+003,7.872735e-003
2.520546e+003,7.911066e-003
2.522475e+003,7.936508e-003
2.524403e+003,7.996512e-003
2.526332e+003,8.090380e-003
2.528260e+003,8.057603e-003
2.530189e+003,7.905465e-003
2.532117e+003,7.872667e-003
2.534046e+003,7.897669e-003
2.535974e+003,7.943528e-003
2.537903e+003,8.013319e-003
2.539831e+003,8.070598e-003
2.541760e+003,7.986791e-003
2.543688e+003,7.824388e-003
2.545617e+003,7.807756e-003
2.547545e+003,7.982978e-003
2.549474e+003,8.014332e-003
2.551402e+003,7.918456e-003
2.553331e+003,7.925102e-003
2.555259e+003,8.022567e-003
2.557188e+003,8.085418e-003
2.559116e+003,7.932966e-003
2.561045e+003,7.848646e-003
2.562973e+003,7.882520e-003
2.564902e+003,7.875367e-003
2.566830e+003,7.867741e-003
2.568759e+003,7.817269e-003
2.570687e+003,7.758573e-003
2.572616e+003,7.706698e-003
2.574544e+003,7.754930e-003
2.576473e+003,7.768794e-003
2.578401e+003,7.835251e-003
2.580330e+003,7.844833e-003
2.582258e+003,7.822836e-003
2.584187e+003,7.851480e-003
2.586115e+003,7.788191e-003
2.588044e+003,7.836669e-003
2.589972e+003,7.928578e-003
2.591901e+003,7.877391e-003
2.593829e+003,7.716243e-003
2.595758e+003,7.664608e-003
2.597686e+003,7.699918e-003
2.599615e+003,7.675265e-003
2.601543e+003,7.663293e-003
2.603472e+003,7.705989e-003
2.605400e+003,7.734490e-003
2.607329e+003,7.767343e-003
2.609257e+003,7.726968e-003
2.611186e+003,7.725754e-003
2.613114e+003,7.765151e-003
2.615043e+003,7.813829e-003
2.616971e+003,7.834711e-003
2.618900e+003,7.889673e-003
2.620828e+003,7.848578e-003
2.622757e+003,7.908974e-003
2.624685e+003,7.977005e-003
2.626614e+003,7.994520e-003
2.628542e+003,8.084979e-003
2.630471e+003,8.196086e-003
2.632399e+003,8.242347e-003
2.634328e+003,8.261933e-003
2.636256e+003,8.278954e-003
2.638185e+003,8.341841e-003
2.640113e+003,8.440041e-003
2.642042e+003,8.511365e-003
2.643970e+003,8.559282e-003
2.645899e+003,8.624644e-003
2.647827e+003,8.773620e-003
2.649756e+003,8.837560e-003
2.651684e+003,8.901509e-003
2.653613e+003,9.025749e-003
2.655541e+003,9.114662e-003
2.657470e+003,9.184608e-003
2.659398e+003,9.214323e-003
2.661327e+003,9.273013e-003
2.663255e+003,9.353277e-003
2.665184e+003,9.409785e-003
2.667112e+003,9.450453e-003
2.669041e+003,9.471245e-003
2.670969e+003,9.500539e-003
2.672898e+003,9.478831e-003
2.674826e+003,9.509684e-003
2.676755e+003,9.545110e-003
2.678683e+003,9.529801e-003
2.680612e+003,9.546397e-003
2.682540e+003,9.567398e-003
2.684469e+003,9.555373e-003
2.686397e+003,9.559133e-003
2.688326e+003,9.581455e-003
2.690254e+003,9.630709e-003
2.692183e+003,9.636468e-003
2.694111e+003,9.623290e-003
2.696040e+003,9.636909e-003
2.697968e+003,9.635113e-003
2.699897e+003,9.644565e-003
2.701825e+003,9.644362e-003
2.703754e+003,9.642770e-003
2.705682e+003,9.663775e-003
2.707611e+003,9.701958e-003
2.709539e+003,9.666688e-003
2.711468e+003,9.673092e-003
2.713396e+003,9.676412e-003
2.715325e+003,9.699790e-003
2.717253e+003,9.737909e-003
2.719182e+003,9.732589e-003
2.721110e+003,9.715749e-003
2.723039e+003,9.732556e-003
2.724967e+003,9.765730e-003
2.726896e+003,9.800602e-003
2.728824e+003,9.821038e-003
2.730753e+003,9.833680e-003
2.732681e+003,9.814192e-003
2.734610e+003,9.789113e-003
2.736538e+003,9.806024e-003
2.738467e+003,9.836392e-003
2.740395e+003,9.788029e-003
2.742324e+003,9.774846e-003
2.744252e+003,9.838832e-003
2.746181e+003,9.838290e-003
2.748109e+003,9.871573e-003
2.750038e+003,9.939472e-003
2.751966e+003,9.972900e-003
2.753895e+003,9.987378e-003
2.755823e+003,9.993514e-003
2.757752e+003,9.954728e-003
2.759680e+003,9.967917e-003
2.761609e+003,9.995650e-003
2.763537e+003,1.001827e-002
2.765466e+003,1.003753e-002
2.767394e+003,1.006530e-002
2.769323e+003,1.009721e-002
2.771251e+003,1.011701e-002
2.773180e+003,1.015785e-002
2.775108e+003,1.018543e-002
2.777037e+003,1.017386e-002
2.778965e+003,1.018360e-002
2.780894e+003,1.021714e-002
2.782822e+003,1.021294e-002
2.784750e+003,1.021633e-002
2.786679e+003,1.027210e-002
2.788608e+003,1.031217e-002
2.790536e+003,1.035727e-002
2.792465e+003,1.038781e-002
2.794393e+003,1.034841e-002
2.796322e+003,1.032578e-002
2.798250e+003,1.036181e-002
2.800178e+003,1.043491e-002
2.802107e+003,1.051033e-002
2.804036e+003,1.054968e-002
2.805964e+003,1.055637e-002
2.807893e+003,1.061677e-002
2.809821e+003,1.065901e-002
2.811750e+003,1.068434e-002
2.813678e+003,1.073664e-002
2.815606e+003,1.078959e-002
2.817535e+003,1.084558e-002
2.819464e+003,1.090211e-002
2.821392e+003,1.092586e-002
2.823321e+003,1.096150e-002
2.825249e+003,1.102220e-002
2.827177e+003,1.111186e-002
2.829106e+003,1.121943e-002
2.831034e+003,1.128733e-002
2.832963e+003,1.132944e-002
2.834892e+003,1.140644e-002
2.836820e+003,1.148397e-002
2.838749e+003,1.155872e-002
2.840677e+003,1.164748e-002
2.842605e+003,1.178456e-002
2.844534e+003,1.192699e-002
2.846462e+003,1.210542e-002
2.848391e+003,1.218757e-002
2.850320e+003,1.224291e-002
2.852248e+003,1.235990e-002
2.854177e+003,1.245239e-002
2.856105e+003,1.251057e-002
2.858033e+003,1.258536e-002
2.859962e+003,1.260102e-002
2.861890e+003,1.263919e-002
2.863819e+003,1.268493e-002
2.865748e+003,1.280463e-002
2.867676e+003,1.292388e-002
2.869604e+003,1.294832e-002
2.871533e+003,1.296457e-002
2.873461e+003,1.297212e-002
2.875390e+003,1.298922e-002
2.877319e+003,1.301373e-002
2.879247e+003,1.304173e-002
2.881176e+003,1.307236e-002
2.883104e+003,1.309729e-002
2.885032e+003,1.311672e-002
2.886961e+003,1.309483e-002
2.888889e+003,1.317549e-002
2.890818e+003,1.327951e-002
2.892747e+003,1.331224e-002
2.894675e+003,1.327807e-002
2.896604e+003,1.328303e-002
2.898532e+003,1.327917e-002
2.900460e+003,1.325286e-002
2.902389e+003,1.323219e-002
2.904317e+003,1.322249e-002
2.906246e+003,1.319117e-002
2.908175e+003,1.315954e-002
2.910103e+003,1.313154e-002
2.912031e+003,1.303377e-002
2.913960e+003,1.297287e-002
2.915888e+003,1.299257e-002
2.917817e+003,1.301735e-002
2.919745e+003,1.293112e-002
2.921674e+003,1.288589e-002
2.923603e+003,1.283046e-002
2.925531e+003,1.270247e-002
2.927459e+003,1.264062e-002
2.929388e+003,1.253925e-002
2.931316e+003,1.241990e-002
2.933245e+003,1.236341e-002
2.935173e+003,1.239206e-002
2.937102e+003,1.231249e-002
2.939031e+003,1.213785e-002
2.940959e+003,1.208123e-002
2.942887e+003,1.201074e-002
2.944816e+003,1.184950e-002
2.946744e+003,1.167248e-002
2.948673e+003,1.161357e-002
2.950601e+003,1.155862e-002
2.952530e+003,1.141257e-002
2.954458e+003,1.133014e-002
2.956387e+003,1.125018e-002
2.958315e+003,1.117411e-002
2.960244e+003,1.103994e-002
2.962172e+003,1.097872e-002
2.964101e+003,1.089012e-002
2.966029e+003,1.080359e-002
2.967958e+003,1.073674e-002
2.969886e+003,1.067593e-002
2.971815e+003,1.061084e-002
2.973743e+003,1.060888e-002
2.975672e+003,1.057095e-002
2.977600e+003,1.042895e-002
2.979529e+003,1.036483e-002
2.981457e+003,1.039086e-002
2.983386e+003,1.034717e-002
2.985314e+003,1.027262e-002
2.987243e+003,1.022941e-002
2.989171e+003,1.028233e-002
2.991100e+003,1.021567e-002
2.993028e+003,1.015927e-002
2.994957e+003,1.015472e-002
2.996885e+003,1.015616e-002
2.998814e+003,1.015795e-002
3.000742e+003,1.016770e-002
3.002671e+003,1.013801e-002
3.004599e+003,1.012519e-002
3.006528e+003,1.018018e-002
3.008456e+003,1.018981e-002
3.010385e+003,1.021176e-002
3.012313e+003,1.024255e-002
3.014242e+003,1.026038e-002
3.016170e+003,1.019235e-002
3.018099e+003,1.024106e-002
3.020027e+003,1.030844e-002
3.021956e+003,1.032292e-002
3.023884e+003,1.033767e-002
3.025813e+003,1.035488e-002
3.027741e+003,1.035373e-002
3.029670e+003,1.037905e-002
3.031598e+003,1.042067e-002
3.033527e+003,1.047042e-002
3.035455e+003,1.044887e-002
3.037384e+003,1.050043e-002
3.039312e+003,1.054523e-002
3.041241e+003,1.057288e-002
3.043169e+003,1.061829e-002
3.045098e+003,1.067085e-002
3.047026e+003,1.069284e-002
3.048955e+003,1.075292e-002
3.050883e+003,1.073746e-002
3.052812e+003,1.071280e-002
3.054740e+003,1.081065e-002
3.056669e+003,1.091307e-002
3.058597e+003,1.094249e-002
3.060526e+003,1.100043e-002
3.062454e+003,1.103698e-002
3.064383e+003,1.103986e-002
3.066311e+003,1.100401e-002
3.068240e+003,1.105800e-002
3.070168e+003,1.123628e-002
3.072097e+003,1.127573e-002
3.074025e+003,1.131016e-002
3.075954e+003,1.131029e-002
3.077882e+003,1.133521e-002
3.079811e+003,1.136820e-002
3.081739e+003,1.140136e-002
3.083668e+003,1.145023e-002
3.085596e+003,1.150511e-002
3.087525e+003,1.147846e-002
3.089453e+003,1.143573e-002
3.091382e+003,1.157025e-002
3.093310e+003,1.167779e-002
3.095239e+003,1.168309e-002
3.097167e+003,1.169026e-002
3.099096e+003,1.170114e-002
3.101024e+003,1.182563e-002
3.102953e+003,1.187732e-002
3.104881e+003,1.182668e-002
3.106810e+003,1.187012e-002
3.108738e+003,1.187902e-002
3.110667e+003,1.193561e-002
3.112595e+003,1.206671e-002
3.114524e+003,1.211670e-002
3.116452e+003,1.209909e-002
3.118381e+003,1.213640e-002
3.120309e+003,1.216594e-002
3.122238e+003,1.223890e-002
3.124166e+003,1.238040e-002
3.126095e+003,1.242298e-002
3.128023e+003,1.249989e-002
3.129952e+003,1.250671e-002
3.131880e+003,1.259293e-002
3.133809e+003,1.268828e-002
3.135737e+003,1.281714e-002
3.137666e+003,1.273716e-002
3.139594e+003,1.276565e-002
3.141523e+003,1.289450e-002
3.143451e+003,1.293541e-002
3.145380e+003,1.297054e-002
3.147308e+003,1.303018e-002
3.149237e+003,1.316810e-002
3.151165e+003,1.321665e-002
3.153094e+003,1.323645e-002
3.155022e+003,1.331686e-002
3.156951e+003,1.340349e-002
3.158879e+003,1.349407e-002
3.160808e+003,1.353750e-002
3.162736e+003,1.361087e-002
3.164665e+003,1.364588e-002
3.166593e+003,1.376485e-002
3.168522e+003,1.380674e-002
3.170450e+003,1.381496e-002
3.172379e+003,1.386306e-002
3.174307e+003,1.394730e-002
3.176236e+003,1.406342e-002
3.178164e+003,1.413746e-002
3.180093e+003,1.422392e-002
3.182021e+003,1.430946e-002
3.183950e+003,1.439150e-002
3.185878e+003,1.440410e-002
3.187807e+003,1.447038e-002
3.189735e+003,1.455438e-002
3.191664e+003,1.464018e-002
3.193592e+003,1.473366e-002
3.195521e+003,1.481178e-002
3.197449e+003,1.490800e-002
3.199378e+003,1.498989e-002
3.201306e+003,1.501385e-002
3.203235e+003,1.512554e-002
3.205163e+003,1.525147e-002
3.207092e+003,1.532714e-002
3.209020e+003,1.537983e-002
3.210948e+003,1.543896e-002
3.212877e+003,1.559745e-002
3.214806e+003,1.567579e-002
3.216734e+003,1.572168e-002
3.218663e+003,1.574296e-002
3.220591e+003,1.582246e-002
3.222520e+003,1.593895e-002
3.224448e+003,1.604123e-002
3.226376e+003,1.617277e-002
3.228305e+003,1.627804e-002
3.230234e+003,1.641150e-002
3.232162e+003,1.646447e-002
3.234091e+003,1.656424e-002
3.236019e+003,1.666388e-002
3.237948e+003,1.679883e-002
3.239876e+003,1.691134e-002
3.241804e+003,1.698787e-002
3.243733e+003,1.700975e-002
3.245662e+003,1.710713e-002
3.247590e+003,1.726719e-002
3.249519e+003,1.736338e-002
3.251447e+003,1.742083e-002
3.253375e+003,1.752558e-002
3.255304e+003,1.763384e-002
3.257232e+003,1.771285e-002
3.259161e+003,1.789894e-002
3.261090e+003,1.803093e-002
3.263018e+003,1.813032e-002
3.264947e+003,1.814232e-002
3.266875e+003,1.816514e-002
3.268803e+003,1.829246e-002
3.270732e+003,1.838606e-002
3.272660e+003,1.842633e-002
3.274589e+003,1.844625e-002
3.276518e+003,1.857416e-002
3.278446e+003,1.863136e-002
3.280375e+003,1.866449e-002
3.282303e+003,1.878116e-002
3.284231e+003,1.883488e-002
3.286160e+003,1.881623e-002
3.288088e+003,1.883966e-002
3.290017e+003,1.884221e-002
3.291946e+003,1.884216e-002
3.293874e+003,1.889488e-002
3.295802e+003,1.895831e-002
3.297731e+003,1.892776e-002
3.299659e+003,1.887823e-002
3.301588e+003,1.890233e-002
3.303516e+003,1.901095e-002
3.305445e+003,1.907607e-002
3.307374e+003,1.912361e-002
3.309302e+003,1.908039e-002
3.311230e+003,1.914812e-002
3.313159e+003,1.923122e-002
3.315087e+003,1.921472e-002
3.317016e+003,1.922328e-002
3.318944e+003,1.939051e-002
3.320873e+003,1.947016e-002
3.322802e+003,1.942624e-002
3.324730e+003,1.945474e-002
3.326658e+003,1.950406e-002
3.328587e+003,1.951664e-002
3.330515e+003,1.952796e-002
3.332444e+003,1.953053e-002
3.334372e+003,1.950659e-002
3.336301e+003,1.952269e-002
3.338229e+003,1.952808e-002
3.340158e+003,1.952740e-002
3.342086e+003,1.949173e-002
3.344015e+003,1.937453e-002
3.345943e+003,1.929658e-002
3.347872e+003,1.927118e-002
3.349800e+003,1.923506e-002
3.351729e+003,1.920909e-002
3.353657e+003,1.921999e-002
3.355586e+003,1.903841e-002
3.357514e+003,1.896309e-002
3.359443e+003,1.887259e-002
3.361371e+003,1.879048e-002
3.363300e+003,1.877207e-002
3.365229e+003,1.875302e-002
3.367157e+003,1.864931e-002
3.369085e+003,1.851648e-002
3.371014e+003,1.851043e-002
3.372942e+003,1.855489e-002
3.374871e+003,1.851165e-002
3.376799e+003,1.843150e-002
3.378728e+003,1.831988e-002
3.380656e+003,1.824781e-002
3.382585e+003,1.821289e-002
3.384513e+003,1.821543e-002
3.386442e+003,1.817100e-002
3.388370e+003,1.802721e-002
3.390299e+003,1.802340e-002
3.392227e+003,1.793212e-002
3.394156e+003,1.785428e-002
3.396084e+003,1.778958e-002
3.398013e+003,1.772180e-002
3.399941e+003,1.762323e-002
3.401870e+003,1.751859e-002
3.403798e+003,1.739009e-002
3.405727e+003,1.732069e-002
3.407655e+003,1.727990e-002
3.409584e+003,1.719129e-002
3.411512e+003,1.709476e-002
3.413441e+003,1.706613e-002
3.415369e+003,1.694988e-002
3.417298e+003,1.680673e-002
3.419226e+003,1.661498e-002
3.421155e+003,1.647395e-002
3.423083e+003,1.637034e-002
3.425012e+003,1.632281e-002
3.426940e+003,1.621850e-002
3.428869e+003,1.601630e-002
3.430797e+003,1.588808e-002
3.432726e+003,1.579730e-002
3.434654e+003,1.565356e-002
3.436583e+003,1.548692e-002
3.438511e+003,1.537191e-002
3.440440e+003,1.525275e-002
3.442368e+003,1.508413e-002
3.444297e+003,1.490175e-002
3.446225e+003,1.487083e-002
3.448154e+003,1.474236e-002
3.450082e+003,1.462918e-002
3.452011e+003,1.450147e-002
3.453939e+003,1.434470e-002
3.455868e+003,1.413572e-002
3.457796e+003,1.398907e-002
3.459725e+003,1.386177e-002
3.461653e+003,1.371527e-002
3.463582e+003,1.354753e-002
3.465510e+003,1.342193e-002
3.467439e+003,1.321886e-002
3.469367e+003,1.306547e-002
3.471296e+003,1.293376e-002
3.473224e+003,1.286652e-002
3.475153e+003,1.274721e-002
3.477081e+003,1.263283e-002
3.479010e+003,1.255932e-002
3.480938e+003,1.238198e-002
3.482867e+003,1.229229e-002
3.484795e+003,1.216266e-002
3.486724e+003,1.198484e-002
3.488652e+003,1.192050e-002
3.490581e+003,1.182941e-002
3.492509e+003,1.169101e-002
3.494438e+003,1.162586e-002
3.496366e+003,1.144923e-002
3.498295e+003,1.134421e-002
3.500223e+003,1.126209e-002
3.502152e+003,1.118910e-002
3.504080e+003,1.107059e-002
3.506009e+003,1.091715e-002
3.507937e+003,1.078080e-002
3.509866e+003,1.072844e-002
3.511794e+003,1.060732e-002
3.513723e+003,1.051449e-002
3.515651e+003,1.049321e-002
3.517580e+003,1.046028e-002
3.519508e+003,1.029339e-002
3.521437e+003,1.008424e-002
3.523365e+003,1.000999e-002
3.525294e+003,9.925515e-003
3.527222e+003,9.886026e-003
3.529151e+003,9.817447e-003
3.531079e+003,9.683197e-003
3.533008e+003,9.566658e-003
3.534936e+003,9.499184e-003
3.536865e+003,9.535872e-003
3.538793e+003,9.437072e-003
3.540722e+003,9.166914e-003
3.542650e+003,9.055641e-003
3.544579e+003,9.012149e-003
3.546507e+003,8.892014e-003
3.548436e+003,8.890573e-003
3.550364e+003,8.794412e-003
3.552293e+003,8.642617e-003
3.554221e+003,8.612162e-003
3.556150e+003,8.550428e-003
3.558078e+003,8.501642e-003
3.560007e+003,8.431676e-003
3.561935e+003,8.300547e-003
3.563864e+003,8.315234e-003
3.565792e+003,8.270019e-003
3.567721e+003,8.202413e-003
3.569649e+003,8.046758e-003
3.571578e+003,7.924945e-003
3.573506e+003,7.876591e-003
3.575435e+003,7.830557e-003
3.577363e+003,7.726142e-003
3.579292e+003,7.651930e-003
3.581220e+003,7.620212e-003
3.583149e+003,7.660463e-003
3.585077e+003,7.753247e-003
3.587006e+003,7.684376e-003
3.588934e+003,7.615414e-003
3.590863e+003,7.683455e-003
3.592791e+003,7.614911e-003
3.594720e+003,7.526178e-003
3.596648e+003,7.500723e-003
3.598577e+003,7.479083e-003
3.600505e+003,7.446801e-003
3.602434e+003,7.369386e-003
3.604362e+003,7.225447e-003
3.606291e+003,6.995543e-003
3.608219e+003,6.797089e-003
3.610148e+003,6.636978e-003
3.612076e+003,6.422030e-003
3.614005e+003,6.382288e-003
3.615933e+003,6.452042e-003
3.617862e+003,6.616504e-003
3.619790e+003,6.881042e-003
3.621719e+003,6.794298e-003
3.623647e+003,6.688900e-003
3.625576e+003,6.746558e-003
3.627504e+003,6.771176e-003
3.629433e+003,6.684695e-003
3.631361e+003,6.590192e-003
3.633290e+003,6.393672e-003
3.635218e+003,6.251990e-003
3.637146e+003,6.046247e-003
3.639075e+003,5.917031e-003
3.641004e+003,5.853027e-003
3.642932e+003,5.683991e-003
3.644861e+003,5.589048e-003
3.646789e+003,5.489680e-003
3.648718e+003,5.542292e-003
3.650646e+003,5.609178e-003
3.652574e+003,5.524918e-003
3.654503e+003,5.437108e-003
3.656432e+003,5.416364e-003
3.658360e+003,5.449447e-003
3.660289e+003,5.489736e-003
3.662217e+003,5.397444e-003
3.664146e+003,5.332338e-003
3.666074e+003,5.293346e-003
3.668002e+003,5.120499e-003
3.669931e+003,5.059787e-003
3.671860e+003,5.135723e-003
3.673788e+003,5.211528e-003
3.675717e+003,5.352467e-003
3.677645e+003,5.424609e-003
3.679573e+003,5.445396e-003
3.681502e+003,5.459606e-003
3.683430e+003,5.452375e-003
3.685359e+003,5.522020e-003
3.687288e+003,5.694557e-003
3.689216e+003,5.841700e-003
3.691145e+003,5.831680e-003
3.693073e+003,5.897793e-003
3.695001e+003,6.036041e-003
3.696930e+003,6.123126e-003
3.698858e+003,6.117450e-003
3.700787e+003,6.094973e-003
3.702716e+003,5.914660e-003
3.704644e+003,5.873151e-003
3.706573e+003,5.914316e-003
3.708501e+003,5.796954e-003
3.710429e+003,5.632550e-003
3.712358e+003,5.499652e-003
3.714286e+003,5.263066e-003
3.716215e+003,5.279746e-003
3.718144e+003,5.541399e-003
3.720072e+003,5.769352e-003
3.722000e+003,5.984554e-003
3.723929e+003,6.191160e-003
3.725857e+003,6.368500e-003
3.727786e+003,6.437446e-003
3.729714e+003,6.346141e-003
3.731643e+003,6.267566e-003
3.733572e+003,6.113958e-003
3.735500e+003,5.949287e-003
3.737428e+003,5.769585e-003
3.739357e+003,5.584740e-003
3.741285e+003,5.478304e-003
3.743214e+003,5.369763e-003
3.745142e+003,5.231552e-003
3.747071e+003,5.074046e-003
3.749000e+003,5.021940e-003
3.750928e+003,5.030570e-003
3.752856e+003,5.084232e-003
3.754785e+003,5.074661e-003
3.756713e+003,5.086301e-003
3.758642e+003,5.116363e-003
3.760570e+003,5.149616e-003
3.762499e+003,5.157169e-003
3.764427e+003,5.196085e-003
3.766356e+003,5.209555e-003
3.768284e+003,5.205580e-003
3.770213e+003,5.188311e-003
3.772141e+003,5.293539e-003
3.774070e+003,5.322342e-003
3.775998e+003,5.260224e-003
3.777927e+003,5.269244e-003
3.779855e+003,5.222723e-003
3.781784e+003,5.291179e-003
3.783712e+003,5.301736e-003
3.785641e+003,5.330213e-003
3.787569e+003,5.382087e-003
3.789498e+003,5.369604e-003
3.791426e+003,5.357098e-003
3.793355e+003,5.364106e-003
3.795283e+003,5.410806e-003
3.797212e+003,5.434336e-003
3.799140e+003,5.395329e-003
3.801069e+003,5.334434e-003
3.802997e+003,5.364894e-003
3.804926e+003,5.365146e-003
3.806854e+003,5.309506e-003
3.808783e+003,5.440334e-003
3.810711e+003,5.551296e-003
3.812640e+003,5.557453e-003
3.814568e+003,5.552719e-003
3.816497e+003,5.524789e-003
3.818425e+003,5.432160e-003
3.820354e+003,5.424168e-003
3.822282e+003,5.511829e-003
3.824211e+003,5.519479e-003
3.826139e+003,5.562074e-003
3.828068e+003,5.532067e-003
3.829996e+003,5.490651e-003
3.831925e+003,5.565748e-003
3.833853e+003,5.567921e-003
3.835782e+003,5.595110e-003
3.837710e+003,5.683656e-003
3.839639e+003,5.547659e-003
3.841567e+003,5.498661e-003
3.843496e+003,5.469228e-003
3.845424e+003,5.496019e-003
3.847353e+003,5.544717e-003
3.849281e+003,5.574761e-003
3.851210e+003,5.578145e-003
3.853138e+003,5.574832e-003
3.855067e+003,5.686278e-003
3.856995e+003,5.685899e-003
3.858924e+003,5.622166e-003
3.860852e+003,5.629614e-003
3.862781e+003,5.672941e-003
3.864709e+003,5.713291e-003
3.866638e+003,5.780302e-003
3.868566e+003,5.674800e-003
3.870495e+003,5.686947e-003
3.872423e+003,5.674936e-003
3.874352e+003,5.582282e-003
3.876280e+003,5.634050e-003
3.878209e+003,5.685803e-003
3.880137e+003,5.581260e-003
3.882066e+003,5.578890e-003
3.883994e+003,5.780566e-003
3.885923e+003,5.847977e-003
3.887851e+003,5.783698e-003
3.889780e+003,5.776541e-003
3.891708e+003,5.751773e-003
3.893637e+003,5.837545e-003
3.895565e+003,5.872511e-003
3.897494e+003,5.741491e-003
3.899422e+003,5.679620e-003
3.901351e+003,5.656075e-003
3.903279e+003,5.666500e-003
3.905208e+003,5.785259e-003
3.907136e+003,5.827427e-003
3.909065e+003,5.705429e-003
3.910993e+003,5.667547e-003
3.912922e+003,5.750615e-003
3.914850e+003,5.762933e-003
3.916779e+003,5.721970e-003
3.918707e+003,5.679884e-003
3.920636e+003,5.769384e-003
3.922564e+003,5.747616e-003
3.924493e+003,5.671499e-003
3.926421e+003,5.689626e-003
3.928350e+003,5.762487e-003
3.930278e+003,5.816233e-003
3.932207e+003,5.782395e-003
3.934135e+003,5.713672e-003
3.936064e+003,5.687907e-003
3.937992e+003,5.768931e-003
3.939921e+003,5.749561e-003
3.941849e+003,5.705692e-003
3.943778e+003,5.772993e-003
3.945706e+003,5.807271e-003
3.947635e+003,5.878558e-003
3.949563e+003,5.824673e-003
3.951492e+003,5.805329e-003
3.953420e+003,5.857748e-003
3.955349e+003,5.894960e-003
3.957277e+003,5.877666e-003
3.959206e+003,5.809800e-003
3.961134e+003,5.740387e-003
3.963063e+003,5.797096e-003
3.964991e+003,5.859476e-003
3.966920e+003,5.805583e-003
3.968848e+003,5.729796e-003
3.970777e+003,5.840042e-003
3.972705e+003,5.893334e-003
3.974634e+003,5.861500e-003
3.976562e+003,5.749321e-003
3.978491e+003,5.703103e-003
3.980419e+003,5.775866e-003
3.982348e+003,5.790218e-003
3.984276e+003,5.760182e-003
3.986205e+003,5.813454e-003
3.988133e+003,5.894299e-003
3.990062e+003,5.840904e-003
3.991990e+003,5.841660e-003
3.993919e+003,5.821041e-003
3.995847e+003,5.811374e-003
3.997776e+003,5.685913e-003
3.999704e+003,5.686083e-003
4.001633e+003,0.000000e+000
