3.991989e+002,2.517365e-002
4.011274e+002,2.975480e-002
4.030559e+002,2.975480e-002
4.049844e+002,2.814678e-002
4.069129e+002,2.851560e-002
4.088414e+002,3.020884e-002
4.107699e+002,3.352172e-002
4.126984e+002,3.587796e-002
4.146269e+002,3.559339e-002
4.165554e+002,3.614771e-002
4.184839e+002,3.753478e-002
4.204124e+002,3.807954e-002
4.223409e+002,3.933095e-002
4.242694e+002,3.939126e-002
4.261979e+002,3.951436e-002
4.281264e+002,4.097390e-002
4.300549e+002,4.074624e-002
4.319834e+002,4.097228e-002
4.339119e+002,4.218054e-002
4.358404e+002,4.233708e-002
4.377689e+002,4.337535e-002
4.396974e+002,4.458462e-002
4.416259e+002,4.394244e-002
4.435544e+002,4.385965e-002
4.454829e+002,4.445230e-002
4.474114e+002,4.456032e-002
4.493399e+002,4.517577e-002
4.512684e+002,4.483823e-002
4.531969e+002,4.503364e-002
4.551254e+002,4.539843e-002
4.570539e+002,4.555860e-002
4.589824e+002,4.557830e-002
4.609109e+002,4.614798e-002
4.628394e+002,4.584399e-002
4.647679e+002,4.560258e-002
4.666964e+002,4.509835e-002
4.686249e+002,4.413570e-002
4.705533e+002,4.436633e-002
4.724819e+002,4.434120e-002
4.744103e+002,4.361548e-002
4.763389e+002,4.333077e-002
4.782673e+002,4.320746e-002
4.801959e+002,4.238234e-002
4.821243e+002,4.182523e-002
4.840529e+002,4.099597e-002
4.859813e+002,4.051136e-002
4.879099e+002,4.000818e-002
4.898383e+002,3.946554e-002
4.917668e+002,3.931392e-002
4.936953e+002,3.896039e-002
4.956238e+002,3.867176e-002
4.975523e+002,3.857657e-002
4.994808e+002,3.846305e-002
5.014093e+002,3.840070e-002
5.033378e+002,3.809362e-002
5.052663e+002,3.811852e-002
5.071948e+002,3.795352e-002
5.091233e+002,3.752890e-002
5.110518e+002,3.771375e-002
5.129803e+002,3.834624e-002
5.149088e+002,3.874867e-002
5.168373e+002,3.889542e-002
5.187658e+002,3.920229e-002
5.206943e+002,3.942734e-002
5.226228e+002,3.943193e-002
5.245513e+002,3.935218e-002
5.264798e+002,4.002352e-002
5.284083e+002,4.001855e-002
5.303368e+002,4.015875e-002
5.322653e+002,4.007892e-002
5.341938e+002,3.958307e-002
5.361223e+002,3.937646e-002
5.380508e+002,3.952456e-002
5.399792e+002,3.966651e-002
5.419078e+002,3.981463e-002
5.438363e+002,3.970988e-002
5.457648e+002,3.955340e-002
5.476932e+002,4.017168e-002
5.496218e+002,4.038635e-002
5.515503e+002,4.034076e-002
5.534788e+002,4.055651e-002
5.554072e+002,4.073631e-002
5.573358e+002,4.118115e-002
5.592643e+002,4.114220e-002
5.611927e+002,4.145020e-002
5.631212e+002,4.110758e-002
5.650497e+002,4.044081e-002
5.669783e+002,4.004921e-002
5.689067e+002,3.966610e-002
5.708352e+002,3.950453e-002
5.727637e+002,3.928682e-002
5.746923e+002,3.905987e-002
5.766207e+002,3.895885e-002
5.785492e+002,3.885501e-002
5.804777e+002,3.851103e-002
5.824063e+002,3.852697e-002
5.843347e+002,3.852388e-002
5.862632e+002,3.861932e-002
5.881917e+002,3.876900e-002
5.901202e+002,3.871879e-002
5.920487e+002,3.845404e-002
5.939772e+002,3.813039e-002
5.959057e+002,3.800359e-002
5.978342e+002,3.785821e-002
5.997627e+002,3.791578e-002
6.016912e+002,3.770132e-002
6.036197e+002,3.729217e-002
6.055482e+002,3.720841e-002
6.074767e+002,3.745014e-002
6.094052e+002,3.742218e-002
6.113337e+002,3.704052e-002
6.132622e+002,3.669433e-002
6.151907e+002,3.663604e-002
6.171192e+002,3.641558e-002
6.190477e+002,3.608928e-002
6.209762e+002,3.555987e-002
6.229047e+002,3.487901e-002
6.248332e+002,3.432649e-002
6.267617e+002,3.397560e-002
6.286902e+002,3.380948e-002
6.306187e+002,3.344376e-002
6.325472e+002,3.302974e-002
6.344756e+002,3.279343e-002
6.364042e+002,3.261748e-002
6.383326e+002,3.245195e-002
6.402612e+002,3.225284e-002
6.421896e+002,3.234996e-002
6.441182e+002,3.211421e-002
6.460466e+002,3.173287e-002
6.479752e+002,3.138701e-002
6.499036e+002,3.132398e-002
6.518322e+002,3.118271e-002
6.537606e+002,3.107527e-002
6.556891e+002,3.106609e-002
6.576177e+002,3.111322e-002
6.595461e+002,3.119752e-002
6.614746e+002,3.129353e-002
6.634031e+002,3.131957e-002
6.653317e+002,3.145425e-002
6.672601e+002,3.127612e-002
6.691886e+002,3.111163e-002
6.711171e+002,3.096262e-002
6.730457e+002,3.042403e-002
6.749741e+002,2.962497e-002
6.769026e+002,2.896741e-002
6.788311e+002,2.833010e-002
6.807596e+002,2.774689e-002
6.826881e+002,2.730466e-002
6.846166e+002,2.703074e-002
6.865451e+002,2.669539e-002
6.884736e+002,2.640758e-002
6.904021e+002,2.628336e-002
6.923306e+002,2.603353e-002
6.942591e+002,2.594935e-002
6.961876e+002,2.586535e-002
6.981161e+002,2.580590e-002
7.000446e+002,2.575681e-002
7.019731e+002,2.566265e-002
7.039016e+002,2.543628e-002
7.058301e+002,2.507823e-002
7.077585e+002,2.482723e-002
7.096871e+002,2.469324e-002
7.116156e+002,2.457181e-002
7.135441e+002,2.442855e-002
7.154725e+002,2.421768e-002
7.174011e+002,2.409871e-002
7.193296e+002,2.398751e-002
7.212581e+002,2.372708e-002
7.231865e+002,2.351621e-002
7.251151e+002,2.327010e-002
7.270436e+002,2.316793e-002
7.289720e+002,2.294849e-002
7.309005e+002,2.269597e-002
7.328290e+002,2.244593e-002
7.347576e+002,2.218424e-002
7.366860e+002,2.207653e-002
7.386145e+002,2.199139e-002
7.405430e+002,2.181750e-002
7.424716e+002,2.161052e-002
7.444000e+002,2.138723e-002
7.463285e+002,2.135227e-002
7.482570e+002,2.120683e-002
7.501855e+002,2.112868e-002
7.521140e+002,2.087187e-002
7.540425e+002,2.060931e-002
7.559710e+002,2.044813e-002
7.578995e+002,2.035157e-002
7.598280e+002,2.032271e-002
7.617565e+002,2.015261e-002
7.636850e+002,1.995569e-002
7.656135e+002,1.994445e-002
7.675420e+002,1.993800e-002
7.694705e+002,1.992908e-002
7.713990e+002,1.989318e-002
7.733275e+002,1.989384e-002
7.752560e+002,1.990307e-002
7.771844e+002,1.988489e-002
7.791130e+002,1.984414e-002
7.810415e+002,1.997335e-002
7.829700e+002,1.991781e-002
7.848984e+002,1.982659e-002
7.868270e+002,1.973042e-002
7.887555e+002,1.963203e-002
7.906840e+002,1.956409e-002
7.926124e+002,1.949703e-002
7.945410e+002,1.945187e-002
7.964695e+002,1.931045e-002
7.983979e+002,1.922600e-002
8.003264e+002,1.918967e-002
8.022549e+002,1.920598e-002
8.041835e+002,1.909552e-002
8.061119e+002,1.906706e-002
8.080404e+002,1.901922e-002
8.099689e+002,1.888627e-002
8.118975e+002,1.877399e-002
8.138259e+002,1.870251e-002
8.157545e+002,1.868301e-002
8.176830e+002,1.862652e-002
8.196115e+002,1.843510e-002
8.215399e+002,1.825488e-002
8.234684e+002,1.802303e-002
8.253970e+002,1.791684e-002
8.273254e+002,1.784102e-002
8.292539e+002,1.771210e-002
8.311824e+002,1.760139e-002
8.331110e+002,1.761430e-002
8.350394e+002,1.761261e-002
8.369679e+002,1.754895e-002
8.388964e+002,1.755029e-002
8.408250e+002,1.743442e-002
8.427534e+002,1.736300e-002
8.446819e+002,1.730565e-002
8.466104e+002,1.725142e-002
8.485389e+002,1.709699e-002
8.504674e+002,1.704357e-002
8.523959e+002,1.712897e-002
8.543244e+002,1.717199e-002
8.562529e+002,1.712894e-002
8.581814e+002,1.727248e-002
8.601099e+002,1.729310e-002
8.620384e+002,1.729676e-002
8.639669e+002,1.742166e-002
8.658954e+002,1.750607e-002
8.678239e+002,1.766892e-002
8.697524e+002,1.786464e-002
8.716809e+002,1.793418e-002
8.736094e+002,1.813550e-002
8.755378e+002,1.834214e-002
8.774664e+002,1.850915e-002
8.793949e+002,1.865263e-002
8.813234e+002,1.890323e-002
8.832518e+002,1.921824e-002
8.851804e+002,1.963123e-002
8.871089e+002,2.008417e-002
8.890374e+002,2.055447e-002
8.909658e+002,2.105261e-002
8.928943e+002,2.157281e-002
8.948229e+002,2.193870e-002
8.967513e+002,2.217327e-002
8.986798e+002,2.218007e-002
9.006083e+002,2.194908e-002
9.025369e+002,2.165584e-002
9.044653e+002,2.133439e-002
9.063938e+002,2.093528e-002
9.083223e+002,2.068407e-002
9.102509e+002,2.056288e-002
9.121793e+002,2.049847e-002
9.141078e+002,2.047892e-002
9.160364e+002,2.055989e-002
9.179648e+002,2.069106e-002
9.198933e+002,2.083787e-002
9.218218e+002,2.093959e-002
9.237504e+002,2.108371e-002
9.256788e+002,2.128671e-002
9.276073e+002,2.152598e-002
9.295358e+002,2.170557e-002
9.314644e+002,2.198826e-002
9.333928e+002,2.235990e-002
9.353213e+002,2.270920e-002
9.372498e+002,2.306563e-002
9.391783e+002,2.348286e-002
9.411068e+002,2.399005e-002
9.430353e+002,2.455077e-002
9.449637e+002,2.516259e-002
9.468923e+002,2.589576e-002
9.488208e+002,2.655396e-002
9.507493e+002,2.727375e-002
9.526777e+002,2.797278e-002
9.546063e+002,2.875351e-002
9.565348e+002,2.953106e-002
9.584633e+002,3.032188e-002
9.603917e+002,3.108976e-002
9.623203e+002,3.182331e-002
9.642488e+002,3.248639e-002
9.661772e+002,3.320965e-002
9.681057e+002,3.397459e-002
9.700343e+002,3.463731e-002
9.719628e+002,3.536024e-002
9.738912e+002,3.616193e-002
9.758197e+002,3.703868e-002
9.777483e+002,3.811636e-002
9.796768e+002,3.933059e-002
9.816052e+002,4.068972e-002
9.835337e+002,4.215614e-002
9.854623e+002,4.356349e-002
9.873907e+002,4.483374e-002
9.893192e+002,4.588173e-002
9.912477e+002,4.656229e-002
9.931763e+002,4.699223e-002
9.951047e+002,4.731729e-002
9.970332e+002,4.770720e-002
9.989617e+002,4.830112e-002
1.000890e+003,4.915569e-002
1.002819e+003,5.011721e-002
1.004747e+003,5.096080e-002
1.006676e+003,5.181420e-002
1.008604e+003,5.279223e-002
1.010533e+003,5.379698e-002
1.012461e+003,5.474092e-002
1.014390e+003,5.572315e-002
1.016318e+003,5.685367e-002
1.018247e+003,5.800713e-002
1.020175e+003,5.912471e-002
1.022104e+003,6.023368e-002
1.024032e+003,6.145598e-002
1.025961e+003,6.268265e-002
1.027889e+003,6.390746e-002
1.029818e+003,6.499925e-002
1.031746e+003,6.598283e-002
1.033675e+003,6.662845e-002
1.035603e+003,6.688312e-002
1.037532e+003,6.678998e-002
1.039460e+003,6.633247e-002
1.041389e+003,6.565966e-002
1.043317e+003,6.508422e-002
1.045246e+003,6.471533e-002
1.047174e+003,6.456845e-002
1.049103e+003,6.436224e-002
1.051031e+003,6.415427e-002
1.052960e+003,6.387310e-002
1.054888e+003,6.339882e-002
1.056817e+003,6.268445e-002
1.058745e+003,6.186216e-002
1.060674e+003,6.094483e-002
1.062602e+003,5.995622e-002
1.064531e+003,5.882488e-002
1.066459e+003,5.768117e-002
1.068388e+003,5.657072e-002
1.070316e+003,5.549202e-002
1.072245e+003,5.441412e-002
1.074173e+003,5.341551e-002
1.076102e+003,5.254516e-002
1.078030e+003,5.153523e-002
1.079959e+003,5.038102e-002
1.081887e+003,4.937329e-002
1.083816e+003,4.856786e-002
1.085744e+003,4.799812e-002
1.087673e+003,4.753316e-002
1.089601e+003,4.712709e-002
1.091530e+003,4.677896e-002
1.093458e+003,4.653252e-002
1.095387e+003,4.627447e-002
1.097315e+003,4.602640e-002
1.099244e+003,4.579512e-002
1.101172e+003,4.559042e-002
1.103101e+003,4.531280e-002
1.105029e+003,4.496418e-002
1.106958e+003,4.430027e-002
1.108886e+003,4.341096e-002
1.110815e+003,4.230225e-002
1.112743e+003,4.102634e-002
1.114672e+003,3.961537e-002
1.116600e+003,3.831920e-002
1.118529e+003,3.713302e-002
1.120457e+003,3.605701e-002
1.122386e+003,3.506451e-002
1.124314e+003,3.402927e-002
1.126243e+003,3.291324e-002
1.128171e+003,3.181761e-002
1.130100e+003,3.076784e-002
1.132028e+003,2.979000e-002
1.133957e+003,2.894174e-002
1.135885e+003,2.827132e-002
1.137814e+003,2.770090e-002
1.139742e+003,2.731316e-002
1.141671e+003,2.714439e-002
1.143599e+003,2.717769e-002
1.145528e+003,2.734626e-002
1.147456e+003,2.759987e-002
1.149385e+003,2.792214e-002
1.151313e+003,2.831962e-002
1.153242e+003,2.865244e-002
1.155170e+003,2.899834e-002
1.157099e+003,2.928490e-002
1.159027e+003,2.940029e-002
1.160956e+003,2.933406e-002
1.162884e+003,2.901832e-002
1.164813e+003,2.840197e-002
1.166741e+003,2.755171e-002
1.168670e+003,2.646623e-002
1.170598e+003,2.529098e-002
1.172526e+003,2.405294e-002
1.174455e+003,2.283351e-002
1.176384e+003,2.174445e-002
1.178312e+003,2.082946e-002
1.180240e+003,2.007310e-002
1.182169e+003,1.940104e-002
1.184098e+003,1.891403e-002
1.186026e+003,1.854744e-002
1.187954e+003,1.828305e-002
1.189883e+003,1.814789e-002
1.191812e+003,1.811211e-002
1.193740e+003,1.819931e-002
1.195668e+003,1.832507e-002
1.197597e+003,1.846060e-002
1.199526e+003,1.859653e-002
1.201454e+003,1.869016e-002
1.203382e+003,1.865070e-002
1.205311e+003,1.851191e-002
1.207240e+003,1.834479e-002
1.209168e+003,1.822048e-002
1.211096e+003,1.820867e-002
1.213025e+003,1.821253e-002
1.214953e+003,1.827255e-002
1.216882e+003,1.839781e-002
1.218810e+003,1.853735e-002
1.220739e+003,1.871822e-002
1.222667e+003,1.896669e-002
1.224596e+003,1.927274e-002
1.226524e+003,1.947149e-002
1.228453e+003,1.967501e-002
1.230381e+003,1.991325e-002
1.232310e+003,2.011296e-002
1.234238e+003,2.022625e-002
1.236167e+003,2.026267e-002
1.238095e+003,2.021936e-002
1.240024e+003,2.018290e-002
1.241952e+003,2.012078e-002
1.243881e+003,2.002853e-002
1.245809e+003,1.987087e-002
1.247738e+003,1.967930e-002
1.249666e+003,1.943296e-002
1.251595e+003,1.917282e-002
1.253523e+003,1.887096e-002
1.255452e+003,1.856435e-002
1.257380e+003,1.830328e-002
1.259309e+003,1.801109e-002
1.261237e+003,1.769111e-002
1.263166e+003,1.742180e-002
1.265094e+003,1.709365e-002
1.267023e+003,1.677261e-002
1.268951e+003,1.641011e-002
1.270880e+003,1.604094e-002
1.272808e+003,1.579518e-002
1.274737e+003,1.556922e-002
1.276665e+003,1.533289e-002
1.278594e+003,1.519812e-002
1.280522e+003,1.512018e-002
1.282451e+003,1.496205e-002
1.284379e+003,1.481748e-002
1.286308e+003,1.470353e-002
1.288236e+003,1.456949e-002
1.290165e+003,1.453361e-002
1.292093e+003,1.457256e-002
1.294022e+003,1.465447e-002
1.295950e+003,1.473032e-002
1.297879e+003,1.490632e-002
1.299807e+003,1.509661e-002
1.301736e+003,1.529354e-002
1.303664e+003,1.554786e-002
1.305593e+003,1.581991e-002
1.307521e+003,1.613074e-002
1.309450e+003,1.643821e-002
1.311378e+003,1.664501e-002
1.313307e+003,1.687371e-002
1.315235e+003,1.708050e-002
1.317164e+003,1.718379e-002
1.319092e+003,1.712280e-002
1.321021e+003,1.700237e-002
1.322949e+003,1.689037e-002
1.324878e+003,1.673136e-002
1.326806e+003,1.656872e-002
1.328735e+003,1.645721e-002
1.330663e+003,1.639329e-002
1.332592e+003,1.633281e-002
1.334520e+003,1.624952e-002
1.336449e+003,1.612935e-002
1.338377e+003,1.597078e-002
1.340306e+003,1.586238e-002
1.342234e+003,1.574675e-002
1.344163e+003,1.567243e-002
1.346091e+003,1.569990e-002
1.348020e+003,1.578395e-002
1.349948e+003,1.588359e-002
1.351877e+003,1.600342e-002
1.353805e+003,1.614385e-002
1.355734e+003,1.627587e-002
1.357662e+003,1.642625e-002
1.359591e+003,1.665666e-002
1.361519e+003,1.688898e-002
1.363448e+003,1.708150e-002
1.365376e+003,1.720995e-002
1.367305e+003,1.730423e-002
1.369233e+003,1.734705e-002
1.371162e+003,1.728285e-002
1.373090e+003,1.710614e-002
1.375019e+003,1.689839e-002
1.376947e+003,1.667049e-002
1.378876e+003,1.642158e-002
1.380804e+003,1.611427e-002
1.382733e+003,1.581747e-002
1.384661e+003,1.552816e-002
1.386590e+003,1.524773e-002
1.388518e+003,1.500751e-002
1.390447e+003,1.485736e-002
1.392375e+003,1.472090e-002
1.394304e+003,1.466358e-002
1.396232e+003,1.461661e-002
1.398161e+003,1.459414e-002
1.400089e+003,1.460532e-002
1.402018e+003,1.464240e-002
1.403946e+003,1.466128e-002
1.405875e+003,1.471011e-002
1.407803e+003,1.479930e-002
1.409732e+003,1.487429e-002
1.411660e+003,1.496373e-002
1.413589e+003,1.509196e-002
1.415517e+003,1.522762e-002
1.417446e+003,1.535653e-002
1.419374e+003,1.547906e-002
1.421303e+003,1.553924e-002
1.423231e+003,1.554607e-002
1.425160e+003,1.551735e-002
1.427088e+003,1.548186e-002
1.429017e+003,1.543202e-002
1.430945e+003,1.535173e-002
1.432874e+003,1.520915e-002
1.434802e+003,1.500258e-002
1.436731e+003,1.486093e-002
1.438659e+003,1.473553e-002
1.440588e+003,1.457036e-002
1.442516e+003,1.440854e-002
1.444445e+003,1.432695e-002
1.446373e+003,1.426463e-002
1.448302e+003,1.421692e-002
1.450230e+003,1.412500e-002
1.452159e+003,1.404105e-002
1.454087e+003,1.391884e-002
1.456016e+003,1.376777e-002
1.457944e+003,1.361910e-002
1.459873e+003,1.347338e-002
1.461801e+003,1.336933e-002
1.463730e+003,1.324387e-002
1.465658e+003,1.301535e-002
1.467587e+003,1.268537e-002
1.469515e+003,1.229037e-002
1.471444e+003,1.189684e-002
1.473372e+003,1.146652e-002
1.475301e+003,1.103593e-002
1.477229e+003,1.074782e-002
1.479158e+003,1.057020e-002
1.481086e+003,1.042037e-002
1.483015e+003,1.033546e-002
1.484943e+003,1.034521e-002
1.486872e+003,1.046816e-002
1.488800e+003,1.057688e-002
1.490729e+003,1.066514e-002
1.492657e+003,1.080781e-002
1.494586e+003,1.100534e-002
1.496514e+003,1.115754e-002
1.498443e+003,1.126929e-002
1.500371e+003,1.141129e-002
1.502300e+003,1.155432e-002
1.504228e+003,1.167857e-002
1.506157e+003,1.184708e-002
1.508085e+003,1.200014e-002
1.510014e+003,1.217141e-002
1.511942e+003,1.232541e-002
1.513871e+003,1.246041e-002
1.515799e+003,1.252418e-002
1.517728e+003,1.245816e-002
1.519656e+003,1.235089e-002
1.521585e+003,1.227869e-002
1.523513e+003,1.220443e-002
1.525442e+003,1.217167e-002
1.527370e+003,1.218363e-002
1.529299e+003,1.219900e-002
1.531227e+003,1.220937e-002
1.533156e+003,1.221285e-002
1.535084e+003,1.219098e-002
1.537013e+003,1.217989e-002
1.538941e+003,1.215825e-002
1.540870e+003,1.216258e-002
1.542798e+003,1.218153e-002
1.544727e+003,1.215928e-002
1.546655e+003,1.209577e-002
1.548584e+003,1.205662e-002
1.550512e+003,1.198774e-002
1.552441e+003,1.192100e-002
1.554369e+003,1.191700e-002
1.556298e+003,1.189914e-002
1.558226e+003,1.186383e-002
1.560155e+003,1.183035e-002
1.562083e+003,1.186745e-002
1.564012e+003,1.187031e-002
1.565940e+003,1.187201e-002
1.567869e+003,1.190821e-002
1.569797e+003,1.198293e-002
1.571726e+003,1.207578e-002
1.573654e+003,1.215087e-002
1.575583e+003,1.229613e-002
1.577511e+003,1.247906e-002
1.579440e+003,1.269480e-002
1.581368e+003,1.290687e-002
1.583297e+003,1.309650e-002
1.585225e+003,1.328493e-002
1.587154e+003,1.352189e-002
1.589082e+003,1.376558e-002
1.591010e+003,1.400203e-002
1.592939e+003,1.424466e-002
1.594868e+003,1.441267e-002
1.596796e+003,1.455326e-002
1.598724e+003,1.471426e-002
1.600653e+003,1.486850e-002
1.602582e+003,1.501966e-002
1.604510e+003,1.514591e-002
1.606438e+003,1.523504e-002
1.608367e+003,1.538977e-002
1.610296e+003,1.557734e-002
1.612224e+003,1.580199e-002
1.614152e+003,1.606465e-002
1.616081e+003,1.630663e-002
1.618010e+003,1.652577e-002
1.619938e+003,1.669894e-002
1.621866e+003,1.694124e-002
1.623795e+003,1.714567e-002
1.625724e+003,1.721234e-002
1.627652e+003,1.718423e-002
1.629580e+003,1.709142e-002
1.631509e+003,1.691897e-002
1.633438e+003,1.675222e-002
1.635366e+003,1.660525e-002
1.637294e+003,1.647557e-002
1.639223e+003,1.634254e-002
1.641151e+003,1.622963e-002
1.643080e+003,1.614993e-002
1.645008e+003,1.610435e-002
1.646937e+003,1.604723e-002
1.648865e+003,1.594921e-002
1.650794e+003,1.584955e-002
1.652722e+003,1.571157e-002
1.654651e+003,1.551608e-002
1.656579e+003,1.532511e-002
1.658508e+003,1.507763e-002
1.660436e+003,1.476951e-002
1.662365e+003,1.439753e-002
1.664293e+003,1.406668e-002
1.666222e+003,1.373897e-002
1.668150e+003,1.342502e-002
1.670079e+003,1.313466e-002
1.672007e+003,1.283651e-002
1.673936e+003,1.253413e-002
1.675864e+003,1.224775e-002
1.677793e+003,1.197987e-002
1.679721e+003,1.169754e-002
1.681650e+003,1.141991e-002
1.683578e+003,1.121738e-002
1.685507e+003,1.099830e-002
1.687435e+003,1.086170e-002
1.689364e+003,1.069826e-002
1.691292e+003,1.054348e-002
1.693221e+003,1.041443e-002
1.695149e+003,1.022530e-002
1.697078e+003,1.001834e-002
1.699006e+003,9.856349e-003
1.700935e+003,9.729061e-003
1.702863e+003,9.653538e-003
1.704792e+003,9.606125e-003
1.706720e+003,9.609559e-003
1.708649e+003,9.623786e-003
1.710577e+003,9.653729e-003
1.712506e+003,9.726128e-003
1.714434e+003,9.827663e-003
1.716363e+003,9.918951e-003
1.718291e+003,1.005492e-002
1.720220e+003,1.017981e-002
1.722148e+003,1.027797e-002
1.724077e+003,1.033928e-002
1.726005e+003,1.043406e-002
1.727934e+003,1.054734e-002
1.729862e+003,1.061746e-002
1.731791e+003,1.060664e-002
1.733719e+003,1.054134e-002
1.735648e+003,1.040431e-002
1.737576e+003,1.018312e-002
1.739505e+003,9.835159e-003
1.741433e+003,9.459368e-003
1.743362e+003,9.168765e-003
1.745290e+003,8.845489e-003
1.747219e+003,8.509486e-003
1.749147e+003,8.274765e-003
1.751076e+003,8.028014e-003
1.753004e+003,7.812029e-003
1.754933e+003,7.580091e-003
1.756861e+003,7.450638e-003
1.758790e+003,7.320731e-003
1.760718e+003,7.094580e-003
1.762647e+003,6.934939e-003
1.764575e+003,6.796815e-003
1.766504e+003,6.636241e-003
1.768432e+003,6.597339e-003
1.770361e+003,6.560557e-003
1.772289e+003,6.481990e-003
1.774218e+003,6.447668e-003
1.776146e+003,6.435459e-003
1.778075e+003,6.392868e-003
1.780003e+003,6.420652e-003
1.781932e+003,6.439943e-003
1.783860e+003,6.330979e-003
1.785789e+003,6.280534e-003
1.787717e+003,6.325829e-003
1.789646e+003,6.382242e-003
1.791574e+003,6.368587e-003
1.793503e+003,6.362527e-003
1.795431e+003,6.377446e-003
1.797360e+003,6.362428e-003
1.799288e+003,6.362814e-003
1.801217e+003,6.405991e-003
1.803145e+003,6.311489e-003
1.805074e+003,6.255869e-003
1.807002e+003,6.281881e-003
1.808931e+003,6.339631e-003
1.810859e+003,6.351996e-003
1.812788e+003,6.300616e-003
1.814716e+003,6.193325e-003
1.816645e+003,6.128792e-003
1.818573e+003,6.139278e-003
1.820502e+003,6.112284e-003
1.822430e+003,6.104659e-003
1.824359e+003,6.065491e-003
1.826287e+003,5.991543e-003
1.828216e+003,6.064568e-003
1.830144e+003,6.092229e-003
1.832073e+003,6.064248e-003
1.834001e+003,6.115052e-003
1.835930e+003,6.057255e-003
1.837858e+003,5.968334e-003
1.839787e+003,6.112978e-003
1.841715e+003,6.077499e-003
1.843644e+003,5.939657e-003
1.845572e+003,5.898614e-003
1.847501e+003,5.896744e-003
1.849429e+003,5.868608e-003
1.851358e+003,5.865712e-003
1.853286e+003,5.837044e-003
1.855215e+003,5.742840e-003
1.857143e+003,5.808804e-003
1.859072e+003,5.926016e-003
1.861000e+003,5.923400e-003
1.862929e+003,5.825456e-003
1.864857e+003,5.749112e-003
1.866786e+003,5.703717e-003
1.868714e+003,5.723658e-003
1.870643e+003,5.754247e-003
1.872571e+003,5.640711e-003
1.874500e+003,5.670711e-003
1.876428e+003,5.696733e-003
1.878357e+003,5.601249e-003
1.880285e+003,5.547175e-003
1.882214e+003,5.647295e-003
1.884142e+003,5.647431e-003
1.886071e+003,5.484164e-003
1.887999e+003,5.370039e-003
1.889928e+003,5.282041e-003
1.891856e+003,5.363662e-003
1.893785e+003,5.316035e-003
1.895713e+003,5.459438e-003
1.897642e+003,5.478397e-003
1.899570e+003,5.374918e-003
1.901499e+003,5.224067e-003
1.903427e+003,5.180466e-003
1.905356e+003,4.990620e-003
1.907284e+003,4.804540e-003
1.909213e+003,4.846387e-003
1.911141e+003,5.024555e-003
1.913070e+003,5.020262e-003
1.914998e+003,5.041754e-003
1.916927e+003,4.930927e-003
1.918855e+003,4.787887e-003
1.920784e+003,4.787756e-003
1.922712e+003,4.835932e-003
1.924641e+003,4.725476e-003
1.926569e+003,4.193868e-003
1.928498e+003,4.145353e-003
1.930426e+003,4.148367e-003
1.932355e+003,3.804078e-003
1.934283e+003,3.678791e-003
1.936212e+003,3.546948e-003
1.938140e+003,3.303352e-003
1.940069e+003,2.807409e-003
1.941997e+003,2.667501e-003
1.943926e+003,2.378192e-003
1.945854e+003,2.219813e-003
1.947783e+003,2.469621e-003
1.949711e+003,2.760096e-003
1.951640e+003,2.016246e-003
1.953568e+003,1.381730e-003
1.955497e+003,1.277300e-003
1.957425e+003,7.219923e-004
1.959354e+003,-1.710248e-004
1.961282e+003,-6.645374e-004
1.963211e+003,-6.425179e-004
1.965139e+003,-1.384330e-003
1.967068e+003,-2.100493e-003
1.968996e+003,-2.858923e-003
1.970925e+003,-3.487179e-003
1.972853e+003,-3.868548e-003
1.974782e+003,-4.257048e-003
1.976710e+003,-3.958229e-003
1.978639e+003,-3.522566e-003
1.980567e+003,-2.137766e-003
1.982496e+003,-1.765659e-003
1.984424e+003,-1.514830e-003
1.986353e+003,-1.477517e-003
1.988281e+003,-1.279792e-003
1.990210e+003,-9.003465e-004
1.992138e+003,-1.053169e-003
1.994067e+003,-1.333328e-003
1.995995e+003,-1.454625e-003
1.997924e+003,-1.074829e-003
1.999852e+003,-8.847852e-004
2.001781e+003,-1.545100e-003
2.003709e+003,-2.996232e-003
2.005638e+003,-4.454587e-003
2.007566e+003,-5.039919e-003
2.009495e+003,-5.748284e-003
2.011423e+003,-5.766087e-003
2.013352e+003,-5.284750e-003
2.015280e+003,-5.026393e-003
2.017208e+003,-6.282785e-003
2.019137e+003,-6.763609e-003
2.021066e+003,-7.257342e-003
2.022994e+003,-6.915322e-003
2.024922e+003,-6.940221e-003
2.026851e+003,-7.314994e-003
2.028780e+003,-7.330585e-003
2.030708e+003,-7.476275e-003
2.032636e+003,-7.280016e-003
2.034565e+003,-5.955035e-003
2.036494e+003,-4.893919e-003
2.038422e+003,-4.345318e-003
2.040350e+003,-3.711195e-003
2.042279e+003,-3.191820e-003
2.044208e+003,-2.943662e-003
2.046136e+003,-3.488520e-003
2.048064e+003,-2.642599e-003
2.049993e+003,-1.492386e-003
2.051921e+003,-8.709191e-004
2.053850e+003,-8.398138e-004
2.055778e+003,-4.554865e-004
2.057707e+003,-1.192481e-004
2.059635e+003,-9.584951e-005
2.061564e+003,4.072036e-004
2.063492e+003,9.593875e-004
2.065421e+003,8.796433e-004
2.067349e+003,1.168897e-003
2.069278e+003,1.262503e-003
2.071206e+003,1.096584e-003
2.073135e+003,1.184507e-003
2.075063e+003,1.513836e-003
2.076992e+003,1.842418e-003
2.078920e+003,2.298768e-003
2.080849e+003,2.084557e-003
2.082777e+003,1.931431e-003
2.084706e+003,2.344433e-003
2.086634e+003,2.513040e-003
2.088563e+003,2.551974e-003
2.090491e+003,2.432509e-003
2.092420e+003,2.515305e-003
2.094348e+003,2.762782e-003
2.096277e+003,2.865135e-003
2.098205e+003,2.728260e-003
2.100134e+003,2.702086e-003
2.102062e+003,2.532182e-003
2.103991e+003,2.632443e-003
2.105919e+003,2.726960e-003
2.107848e+003,2.937236e-003
2.109776e+003,3.046734e-003
2.111705e+003,2.921458e-003
2.113633e+003,2.995418e-003
2.115562e+003,3.163368e-003
2.117490e+003,3.136034e-003
2.119419e+003,2.810124e-003
2.121347e+003,2.925494e-003
2.123276e+003,3.185831e-003
2.125204e+003,2.993983e-003
2.127133e+003,2.558545e-003
2.129061e+003,1.901811e-003
2.130990e+003,1.404368e-003
2.132918e+003,7.940870e-004
2.134847e+003,1.696794e-004
2.136775e+003,-3.671687e-004
2.138704e+003,-7.198365e-004
2.140632e+003,-1.367011e-003
2.142561e+003,-2.168172e-003
2.144489e+003,-2.834163e-003
2.146418e+003,-2.954134e-003
2.148346e+003,-2.868364e-003
2.150275e+003,-4.094231e-003
2.152203e+003,-5.484067e-003
2.154132e+003,-6.985658e-003
2.156060e+003,-8.888310e-003
2.157989e+003,-1.177606e-002
2.159917e+003,-1.291825e-002
2.161846e+003,-9.790455e-003
2.163774e+003,-7.388506e-003
2.165703e+003,-6.376196e-003
2.167631e+003,-5.062222e-003
2.169560e+003,-4.209327e-003
2.171488e+003,-4.090522e-003
2.173417e+003,-4.054120e-003
2.175345e+003,-4.785593e-003
2.177274e+003,-4.481142e-003
2.179202e+003,-4.058026e-003
2.181131e+003,-3.696463e-003
2.183059e+003,-3.660684e-003
2.184988e+003,-3.237688e-003
2.186916e+003,-2.665983e-003
2.188845e+003,-2.598073e-003
2.190773e+003,-3.002212e-003
2.192702e+003,-2.848811e-003
2.194630e+003,-2.210106e-003
2.196559e+003,-1.352313e-003
2.198487e+003,-9.918936e-004
2.200416e+003,-8.789843e-004
2.202344e+003,-1.051229e-003
2.204273e+003,-7.077294e-004
2.206201e+003,-1.687851e-004
2.208130e+003,-1.597031e-005
2.210058e+003,4.316528e-004
2.211987e+003,7.430034e-004
2.213915e+003,5.566440e-004
2.215844e+003,8.666566e-004
2.217772e+003,1.155196e-003
2.219701e+003,9.729767e-004
2.221629e+003,1.147821e-003
2.223558e+003,1.412612e-003
2.225486e+003,1.838185e-003
2.227415e+003,2.179017e-003
2.229343e+003,2.376235e-003
2.231272e+003,2.489846e-003
2.233200e+003,2.378173e-003
2.235129e+003,2.229160e-003
2.237057e+003,2.607273e-003
2.238986e+003,3.174183e-003
2.240914e+003,3.155121e-003
2.242843e+003,3.190183e-003
2.244771e+003,3.247591e-003
2.246700e+003,3.215529e-003
2.248628e+003,3.308823e-003
2.250557e+003,3.594650e-003
2.252485e+003,3.682181e-003
2.254414e+003,3.625532e-003
2.256342e+003,3.485727e-003
2.258271e+003,3.713203e-003
2.260199e+003,4.038861e-003
2.262128e+003,4.136201e-003
2.264056e+003,4.221669e-003
2.265985e+003,4.234164e-003
2.267913e+003,4.484834e-003
2.269842e+003,4.950630e-003
2.271770e+003,5.127036e-003
2.273699e+003,4.973087e-003
2.275627e+003,5.043447e-003
2.277556e+003,5.261974e-003
2.279484e+003,5.409726e-003
2.281413e+003,5.407112e-003
2.283341e+003,5.593721e-003
2.285270e+003,5.791228e-003
2.287198e+003,5.884628e-003
2.289127e+003,6.062603e-003
2.291055e+003,6.033774e-003
2.292984e+003,5.997844e-003
2.294912e+003,6.103815e-003
2.296841e+003,6.221652e-003
2.298769e+003,6.253532e-003
2.300698e+003,6.321927e-003
2.302626e+003,6.382975e-003
2.304555e+003,6.431730e-003
2.306483e+003,6.507172e-003
2.308412e+003,6.480435e-003
2.310340e+003,6.398104e-003
2.312269e+003,6.373885e-003
2.314197e+003,6.450626e-003
2.316125e+003,6.605491e-003
2.318054e+003,6.807616e-003
2.319983e+003,6.903447e-003
2.321911e+003,6.811563e-003
2.323840e+003,7.161265e-003
2.325768e+003,7.407147e-003
2.327697e+003,7.734086e-003
2.329625e+003,7.748955e-003
2.331553e+003,7.680707e-003
2.333482e+003,7.613550e-003
2.335411e+003,7.551810e-003
2.337339e+003,7.294143e-003
2.339268e+003,7.358081e-003
2.341196e+003,7.247271e-003
2.343125e+003,7.155927e-003
2.345053e+003,7.136677e-003
2.346981e+003,7.119997e-003
2.348910e+003,6.980854e-003
2.350839e+003,7.045690e-003
2.352767e+003,6.936843e-003
2.354696e+003,6.754859e-003
2.356624e+003,6.791326e-003
2.358552e+003,6.728565e-003
2.360481e+003,6.698036e-003
2.362409e+003,6.830308e-003
2.364338e+003,7.115693e-003
2.366267e+003,6.812563e-003
2.368195e+003,6.686055e-003
2.370124e+003,6.831261e-003
2.372052e+003,7.005487e-003
2.373980e+003,7.148531e-003
2.375909e+003,7.281791e-003
2.377838e+003,7.273802e-003
2.379766e+003,7.200182e-003
2.381695e+003,7.139356e-003
2.383623e+003,7.206292e-003
2.385552e+003,7.122898e-003
2.387480e+003,7.046207e-003
2.389408e+003,7.033705e-003
2.391337e+003,7.136293e-003
2.393266e+003,7.098245e-003
2.395194e+003,6.974079e-003
2.397123e+003,6.947021e-003
2.399051e+003,6.936714e-003
2.400979e+003,6.845517e-003
2.402908e+003,6.796577e-003
2.404836e+003,6.755013e-003
2.406765e+003,6.734485e-003
2.408694e+003,6.755316e-003
2.410622e+003,6.794457e-003
2.412551e+003,6.839155e-003
2.414479e+003,6.765345e-003
2.416407e+003,6.788736e-003
2.418336e+003,6.808458e-003
2.420264e+003,6.784495e-003
2.422193e+003,6.676036e-003
2.424122e+003,6.602556e-003
2.426050e+003,6.723851e-003
2.427979e+003,6.737581e-003
2.429907e+003,6.730279e-003
2.431835e+003,6.819532e-003
2.433764e+003,6.789577e-003
2.435692e+003,6.723414e-003
2.437621e+003,6.767701e-003
2.439550e+003,6.708877e-003
2.441478e+003,6.628293e-003
2.443406e+003,6.707834e-003
2.445335e+003,6.707329e-003
2.447263e+003,6.733409e-003
2.449192e+003,6.817142e-003
2.451121e+003,6.701743e-003
2.453049e+003,6.726914e-003
2.454978e+003,6.787457e-003
2.456906e+003,6.700431e-003
2.458834e+003,6.665976e-003
2.460763e+003,6.686972e-003
2.462691e+003,6.739903e-003
2.464620e+003,6.614264e-003
2.466549e+003,6.661030e-003
2.468477e+003,6.871706e-003
2.470406e+003,6.950315e-003
2.472334e+003,6.899983e-003
2.474262e+003,6.851542e-003
2.476191e+003,6.910857e-003
2.478119e+003,6.839458e-003
2.480048e+003,6.727418e-003
2.481977e+003,6.868541e-003
2.483905e+003,6.865141e-003
2.485833e+003,6.907019e-003
2.487762e+003,6.930687e-003
2.489690e+003,6.888403e-003
2.491619e+003,6.979237e-003
2.493547e+003,6.891399e-003
2.495476e+003,6.848378e-003
2.497405e+003,6.994928e-003
2.499333e+003,7.042745e-003
2.501261e+003,7.068137e-003
2.503190e+003,7.056653e-003
2.505118e+003,6.978496e-003
2.507047e+003,7.024830e-003
2.508975e+003,7.168912e-003
2.510904e+003,7.006713e-003
2.512833e+003,6.982503e-003
2.514761e+003,7.113907e-003
2.516689e+003,7.153620e-003
2.518618e+003,7.150655e-003
2.520546e+003,7.225205e-003
2.522475e+003,7.269003e-003
2.524403e+003,7.139539e-003
2.526332e+003,6.999979e-003
2.528260e+003,7.042408e-003
2.530189e+003,7.091510e-003
2.532117e+003,7.163051e-003
2.534046e+003,7.197647e-003
2.535974e+003,7.058236e-003
2.537903e+003,7.019879e-003
2.539831e+003,7.036986e-003
2.541760e+003,7.200578e-003
2.543688e+003,7.267487e-003
2.545617e+003,7.374914e-003
2.547545e+003,7.356244e-003
2.549474e+003,7.252561e-003
2.551402e+003,7.091510e-003
2.553331e+003,7.082316e-003
2.555259e+003,7.287333e-003
2.557188e+003,7.448828e-003
2.559116e+003,7.457390e-003
2.561045e+003,7.317188e-003
2.562973e+003,7.320322e-003
2.564902e+003,7.411381e-003
2.566830e+003,7.451188e-003
2.568759e+003,7.458165e-003
2.570687e+003,7.528991e-003
2.572616e+003,7.481896e-003
2.574544e+003,7.474244e-003
2.576473e+003,7.542409e-003
2.578401e+003,7.613519e-003
2.580330e+003,7.606505e-003
2.582258e+003,7.593591e-003
2.584187e+003,7.637899e-003
2.586115e+003,7.551041e-003
2.588044e+003,7.501550e-003
2.589972e+003,7.650208e-003
2.591901e+003,7.680526e-003
2.593829e+003,7.739516e-003
2.595758e+003,7.732264e-003
2.597686e+003,7.711116e-003
2.599615e+003,7.635303e-003
2.601543e+003,7.741641e-003
2.603472e+003,7.882047e-003
2.605400e+003,7.814975e-003
2.607329e+003,7.794262e-003
2.609257e+003,7.846351e-003
2.611186e+003,7.900504e-003
2.613114e+003,7.911268e-003
2.615043e+003,7.889099e-003
2.616971e+003,7.884949e-003
2.618900e+003,7.887513e-003
2.620828e+003,7.988378e-003
2.622757e+003,7.986421e-003
2.624685e+003,7.930941e-003
2.626614e+003,8.022567e-003
2.628542e+003,8.150741e-003
2.630471e+003,8.224720e-003
2.632399e+003,8.327182e-003
2.634328e+003,8.329716e-003
2.636256e+003,8.341436e-003
2.638185e+003,8.347786e-003
2.640113e+003,8.351772e-003
2.642042e+003,8.431933e-003
2.643970e+003,8.464536e-003
2.645899e+003,8.543299e-003
2.647827e+003,8.625827e-003
2.649756e+003,8.641071e-003
2.651684e+003,8.717431e-003
2.653613e+003,8.723144e-003
2.655541e+003,8.737783e-003
2.657470e+003,8.780788e-003
2.659398e+003,8.822512e-003
2.661327e+003,8.832758e-003
2.663255e+003,8.834179e-003
2.665184e+003,8.859912e-003
2.667112e+003,8.904925e-003
2.669041e+003,8.908138e-003
2.670969e+003,8.929107e-003
2.672898e+003,8.948319e-003
2.674826e+003,8.955895e-003
2.676755e+003,8.949807e-003
2.678683e+003,8.939018e-003
2.680612e+003,8.945918e-003
2.682540e+003,8.988976e-003
2.684469e+003,8.960800e-003
2.686397e+003,8.962998e-003
2.688326e+003,9.051087e-003
2.690254e+003,9.047129e-003
2.692183e+003,9.028489e-003
2.694111e+003,9.069594e-003
2.696040e+003,9.125930e-003
2.697968e+003,9.136082e-003
2.699897e+003,9.116489e-003
2.701825e+003,9.073282e-003
2.703754e+003,9.062828e-003
2.705682e+003,9.110703e-003
2.707611e+003,9.173644e-003
2.709539e+003,9.193306e-003
2.711468e+003,9.161664e-003
2.713396e+003,9.167857e-003
2.715325e+003,9.199601e-003
2.717253e+003,9.197604e-003
2.719182e+003,9.179871e-003
2.721110e+003,9.166064e-003
2.723039e+003,9.191817e-003
2.724967e+003,9.244311e-003
2.726896e+003,9.231584e-003
2.728824e+003,9.210465e-003
2.730753e+003,9.218656e-003
2.732681e+003,9.252299e-003
2.734610e+003,9.290886e-003
2.736538e+003,9.263095e-003
2.738467e+003,9.259000e-003
2.740395e+003,9.344475e-003
2.742324e+003,9.344780e-003
2.744252e+003,9.335537e-003
2.746181e+003,9.357814e-003
2.748109e+003,9.305273e-003
2.750038e+003,9.291495e-003
2.751966e+003,9.320574e-003
2.753895e+003,9.331780e-003
2.755823e+003,9.370882e-003
2.757752e+003,9.449775e-003
2.759680e+003,9.429188e-003
2.761609e+003,9.431626e-003
2.763537e+003,9.463220e-003
2.765466e+003,9.502571e-003
2.767394e+003,9.505077e-003
2.769323e+003,9.516694e-003
2.771251e+003,9.551579e-003
2.773180e+003,9.565331e-003
2.775108e+003,9.570886e-003
2.777037e+003,9.576645e-003
2.778965e+003,9.586061e-003
2.780894e+003,9.626238e-003
2.782822e+003,9.662859e-003
2.784750e+003,9.715207e-003
2.786679e+003,9.722627e-003
2.788608e+003,9.702466e-003
2.790536e+003,9.709040e-003
2.792465e+003,9.737909e-003
2.794393e+003,9.696808e-003
2.796322e+003,9.707854e-003
2.798250e+003,9.765222e-003
2.800178e+003,9.830154e-003
2.802107e+003,9.880963e-003
2.804036e+003,9.865846e-003
2.805964e+003,9.888589e-003
2.807893e+003,9.930251e-003
2.809821e+003,9.991005e-003
2.811750e+003,1.002335e-002
2.813678e+003,1.003946e-002
2.815606e+003,1.011488e-002
2.817535e+003,1.016860e-002
2.819464e+003,1.018631e-002
2.821392e+003,1.023736e-002
2.823321e+003,1.025914e-002
2.825249e+003,1.025022e-002
2.827177e+003,1.037661e-002
2.829106e+003,1.047147e-002
2.831034e+003,1.052850e-002
2.832963e+003,1.055824e-002
2.834892e+003,1.063908e-002
2.836820e+003,1.075695e-002
2.838749e+003,1.090979e-002
2.840677e+003,1.100527e-002
2.842605e+003,1.110523e-002
2.844534e+003,1.131032e-002
2.846462e+003,1.160388e-002
2.848391e+003,1.188136e-002
2.850320e+003,1.193677e-002
2.852248e+003,1.193469e-002
2.854177e+003,1.195550e-002
2.856105e+003,1.193942e-002
2.858033e+003,1.187581e-002
2.859962e+003,1.180907e-002
2.861890e+003,1.174316e-002
2.863819e+003,1.179429e-002
2.865748e+003,1.189321e-002
2.867676e+003,1.190186e-002
2.869604e+003,1.188412e-002
2.871533e+003,1.186889e-002
2.873461e+003,1.188412e-002
2.875390e+003,1.189695e-002
2.877319e+003,1.195410e-002
2.879247e+003,1.197195e-002
2.881176e+003,1.200693e-002
2.883104e+003,1.201636e-002
2.885032e+003,1.204324e-002
2.886961e+003,1.207840e-002
2.888889e+003,1.210780e-002
2.890818e+003,1.216327e-002
2.892747e+003,1.222979e-002
2.894675e+003,1.228548e-002
2.896604e+003,1.230927e-002
2.898532e+003,1.230246e-002
2.900460e+003,1.236988e-002
2.902389e+003,1.239579e-002
2.904317e+003,1.236576e-002
2.906246e+003,1.241479e-002
2.908175e+003,1.248980e-002
2.910103e+003,1.253925e-002
2.912031e+003,1.267954e-002
2.913960e+003,1.285599e-002
2.915888e+003,1.299082e-002
2.917817e+003,1.306246e-002
2.919745e+003,1.299465e-002
2.921674e+003,1.285278e-002
2.923603e+003,1.278402e-002
2.925531e+003,1.270148e-002
2.927459e+003,1.256766e-002
2.929388e+003,1.238567e-002
2.931316e+003,1.224445e-002
2.933245e+003,1.209390e-002
2.935173e+003,1.202325e-002
2.937102e+003,1.198831e-002
2.939031e+003,1.187914e-002
2.940959e+003,1.170162e-002
2.942887e+003,1.149809e-002
2.944816e+003,1.138803e-002
2.946744e+003,1.130557e-002
2.948673e+003,1.116895e-002
2.950601e+003,1.104825e-002
2.952530e+003,1.098259e-002
2.954458e+003,1.088731e-002
2.956387e+003,1.083391e-002
2.958315e+003,1.073156e-002
2.960244e+003,1.063721e-002
2.962172e+003,1.056722e-002
2.964101e+003,1.051772e-002
2.966029e+003,1.045492e-002
2.967958e+003,1.038012e-002
2.969886e+003,1.035158e-002
2.971815e+003,1.033007e-002
2.973743e+003,1.027646e-002
2.975672e+003,1.019680e-002
2.977600e+003,1.008115e-002
2.979529e+003,1.000551e-002
2.981457e+003,9.936358e-003
2.983386e+003,9.860870e-003
2.985314e+003,9.841673e-003
2.987243e+003,9.846974e-003
2.989171e+003,9.824193e-003
2.991100e+003,9.824570e-003
2.993028e+003,9.799299e-003
2.994957e+003,9.784020e-003
2.996885e+003,9.817064e-003
2.998814e+003,9.859185e-003
3.000742e+003,9.788692e-003
3.002671e+003,9.756116e-003
3.004599e+003,9.819418e-003
3.006528e+003,9.769474e-003
3.008456e+003,9.776556e-003
3.010385e+003,9.818391e-003
3.012313e+003,9.860501e-003
3.014242e+003,9.937891e-003
3.016170e+003,9.966197e-003
3.018099e+003,9.932892e-003
3.020027e+003,9.919059e-003
3.021956e+003,9.878303e-003
3.023884e+003,9.932197e-003
3.025813e+003,9.975467e-003
3.027741e+003,1.002744e-002
3.029670e+003,9.961026e-003
3.031598e+003,1.002331e-002
3.033527e+003,1.014495e-002
3.035455e+003,1.016131e-002
3.037384e+003,1.010946e-002
3.039312e+003,1.014045e-002
3.041241e+003,1.020098e-002
3.043169e+003,1.024961e-002
3.045098e+003,1.024485e-002
3.047026e+003,1.027635e-002
3.048955e+003,1.029314e-002
3.050883e+003,1.033362e-002
3.052812e+003,1.040227e-002
3.054740e+003,1.043619e-002
3.056669e+003,1.042109e-002
3.058597e+003,1.042726e-002
3.060526e+003,1.051674e-002
3.062454e+003,1.053115e-002
3.064383e+003,1.058395e-002
3.066311e+003,1.062818e-002
3.068240e+003,1.058161e-002
3.070168e+003,1.062711e-002
3.072097e+003,1.075705e-002
3.074025e+003,1.076388e-002
3.075954e+003,1.077131e-002
3.077882e+003,1.076287e-002
3.079811e+003,1.077055e-002
3.081739e+003,1.077055e-002
3.083668e+003,1.083266e-002
3.085596e+003,1.086384e-002
3.087525e+003,1.090575e-002
3.089453e+003,1.094720e-002
3.091382e+003,1.095958e-002
3.093310e+003,1.097207e-002
3.095239e+003,1.103026e-002
3.097167e+003,1.104322e-002
3.099096e+003,1.107869e-002
3.101024e+003,1.111297e-002
3.102953e+003,1.113956e-002
3.104881e+003,1.114180e-002
3.106810e+003,1.113299e-002
3.108738e+003,1.118792e-002
3.110667e+003,1.126857e-002
3.112595e+003,1.134235e-002
3.114524e+003,1.133757e-002
3.116452e+003,1.133411e-002
3.118381e+003,1.140755e-002
3.120309e+003,1.149558e-002
3.122238e+003,1.153887e-002
3.124166e+003,1.157629e-002
3.126095e+003,1.160081e-002
3.128023e+003,1.160453e-002
3.129952e+003,1.160554e-002
3.131880e+003,1.164858e-002
3.133809e+003,1.177971e-002
3.135737e+003,1.180171e-002
3.137666e+003,1.180807e-002
3.139594e+003,1.186546e-002
3.141523e+003,1.189794e-002
3.143451e+003,1.199706e-002
3.145380e+003,1.209919e-002
3.147308e+003,1.213545e-002
3.149237e+003,1.211124e-002
3.151165e+003,1.214465e-002
3.153094e+003,1.230307e-002
3.155022e+003,1.247658e-002
3.156951e+003,1.248042e-002
3.158879e+003,1.245504e-002
3.160808e+003,1.252417e-002
3.162736e+003,1.257565e-002
3.164665e+003,1.257126e-002
3.166593e+003,1.260625e-002
3.168522e+003,1.276790e-002
3.170450e+003,1.286631e-002
3.172379e+003,1.279447e-002
3.174307e+003,1.281125e-002
3.176236e+003,1.291878e-002
3.178164e+003,1.291825e-002
3.180093e+003,1.295839e-002
3.182021e+003,1.308403e-002
3.183950e+003,1.316116e-002
3.185878e+003,1.324838e-002
3.187807e+003,1.328518e-002
3.189735e+003,1.336997e-002
3.191664e+003,1.338069e-002
3.193592e+003,1.339659e-002
3.195521e+003,1.347002e-002
3.197449e+003,1.354102e-002
3.199378e+003,1.358012e-002
3.201306e+003,1.363393e-002
3.203235e+003,1.376871e-002
3.205163e+003,1.382666e-002
3.207092e+003,1.387776e-002
3.209020e+003,1.400567e-002
3.210948e+003,1.410866e-002
3.212877e+003,1.411912e-002
3.214806e+003,1.422261e-002
3.216734e+003,1.436185e-002
3.218663e+003,1.438698e-002
3.220591e+003,1.438990e-002
3.222520e+003,1.438752e-002
3.224448e+003,1.443966e-002
3.226376e+003,1.453954e-002
3.228305e+003,1.464203e-002
3.230234e+003,1.471977e-002
3.232162e+003,1.472334e-002
3.234091e+003,1.484054e-002
3.236019e+003,1.501513e-002
3.237948e+003,1.508071e-002
3.239876e+003,1.511581e-002
3.241804e+003,1.522093e-002
3.243733e+003,1.521971e-002
3.245662e+003,1.527023e-002
3.247590e+003,1.537622e-002
3.249519e+003,1.544221e-002
3.251447e+003,1.554745e-002
3.253375e+003,1.560683e-002
3.255304e+003,1.563580e-002
3.257232e+003,1.571793e-002
3.259161e+003,1.583204e-002
3.261090e+003,1.594507e-002
3.263018e+003,1.595521e-002
3.264947e+003,1.600353e-002
3.266875e+003,1.613000e-002
3.268803e+003,1.623866e-002
3.270732e+003,1.625224e-002
3.272660e+003,1.620877e-002
3.274589e+003,1.627606e-002
3.276518e+003,1.631701e-002
3.278446e+003,1.639483e-002
3.280375e+003,1.646351e-002
3.282303e+003,1.650072e-002
3.284231e+003,1.645433e-002
3.286160e+003,1.642942e-002
3.288088e+003,1.639462e-002
3.290017e+003,1.643326e-002
3.291946e+003,1.642179e-002
3.293874e+003,1.641395e-002
3.295802e+003,1.644228e-002
3.297731e+003,1.645824e-002
3.299659e+003,1.643594e-002
3.301588e+003,1.648823e-002
3.303516e+003,1.654088e-002
3.305445e+003,1.660410e-002
3.307374e+003,1.664258e-002
3.309302e+003,1.667537e-002
3.311230e+003,1.663232e-002
3.313159e+003,1.658958e-002
3.315087e+003,1.655759e-002
3.317016e+003,1.655623e-002
3.318944e+003,1.661492e-002
3.320873e+003,1.669630e-002
3.322802e+003,1.672717e-002
3.324730e+003,1.671262e-002
3.326658e+003,1.673377e-002
3.328587e+003,1.673233e-002
3.330515e+003,1.667845e-002
3.332444e+003,1.669047e-002
3.334372e+003,1.671613e-002
3.336301e+003,1.668965e-002
3.338229e+003,1.664087e-002
3.340158e+003,1.665409e-002
3.342086e+003,1.658910e-002
3.344015e+003,1.656417e-002
3.345943e+003,1.666819e-002
3.347872e+003,1.666480e-002
3.349800e+003,1.659178e-002
3.351729e+003,1.650588e-002
3.353657e+003,1.640955e-002
3.355586e+003,1.642325e-002
3.357514e+003,1.642641e-002
3.359443e+003,1.635893e-002
3.361371e+003,1.629185e-002
3.363300e+003,1.625085e-002
3.365229e+003,1.619926e-002
3.367157e+003,1.617159e-002
3.369085e+003,1.614742e-002
3.371014e+003,1.603139e-002
3.372942e+003,1.598608e-002
3.374871e+003,1.600522e-002
3.376799e+003,1.603995e-002
3.378728e+003,1.597454e-002
3.380656e+003,1.583255e-002
3.382585e+003,1.582363e-002
3.384513e+003,1.582671e-002
3.386442e+003,1.574972e-002
3.388370e+003,1.569038e-002
3.390299e+003,1.563677e-002
3.392227e+003,1.555439e-002
3.394156e+003,1.550107e-002
3.396084e+003,1.545287e-002
3.398013e+003,1.545189e-002
3.399941e+003,1.544682e-002
3.401870e+003,1.540537e-002
3.403798e+003,1.533522e-002
3.405727e+003,1.523624e-002
3.407655e+003,1.512423e-002
3.409584e+003,1.506576e-002
3.411512e+003,1.502672e-002
3.413441e+003,1.501292e-002
3.415369e+003,1.487848e-002
3.417298e+003,1.464490e-002
3.419226e+003,1.454505e-002
3.421155e+003,1.455403e-002
3.423083e+003,1.456475e-002
3.425012e+003,1.448260e-002
3.426940e+003,1.438654e-002
3.428869e+003,1.426518e-002
3.430797e+003,1.416107e-002
3.432726e+003,1.408433e-002
3.434654e+003,1.394271e-002
3.436583e+003,1.379399e-002
3.438511e+003,1.378907e-002
3.440440e+003,1.373339e-002
3.442368e+003,1.353877e-002
3.444297e+003,1.337541e-002
3.446225e+003,1.332029e-002
3.448154e+003,1.320154e-002
3.450082e+003,1.304888e-002
3.452011e+003,1.295217e-002
3.453939e+003,1.287320e-002
3.455868e+003,1.279231e-002
3.457796e+003,1.270984e-002
3.459725e+003,1.267209e-002
3.461653e+003,1.258544e-002
3.463582e+003,1.245349e-002
3.465510e+003,1.230107e-002
3.467439e+003,1.216033e-002
3.469367e+003,1.209161e-002
3.471296e+003,1.202646e-002
3.473224e+003,1.194754e-002
3.475153e+003,1.176544e-002
3.477081e+003,1.165539e-002
3.479010e+003,1.153443e-002
3.480938e+003,1.146063e-002
3.482867e+003,1.139619e-002
3.484795e+003,1.134493e-002
3.486724e+003,1.121834e-002
3.488652e+003,1.112316e-002
3.490581e+003,1.103546e-002
3.492509e+003,1.090240e-002
3.494438e+003,1.076754e-002
3.496366e+003,1.069734e-002
3.498295e+003,1.068193e-002
3.500223e+003,1.064642e-002
3.502152e+003,1.043314e-002
3.504080e+003,1.031969e-002
3.506009e+003,1.026265e-002
3.507937e+003,1.020891e-002
3.509866e+003,1.011442e-002
3.511794e+003,1.003792e-002
3.513723e+003,9.968500e-003
3.515651e+003,1.001782e-002
3.517580e+003,9.987279e-003
3.519508e+003,9.911369e-003
3.521437e+003,9.824184e-003
3.523365e+003,9.772758e-003
3.525294e+003,9.669917e-003
3.527222e+003,9.473515e-003
3.529151e+003,9.381903e-003
3.531079e+003,9.267643e-003
3.533008e+003,9.273333e-003
3.534936e+003,9.200436e-003
3.536865e+003,9.066994e-003
3.538793e+003,9.010805e-003
3.540722e+003,8.952359e-003
3.542650e+003,8.812934e-003
3.544579e+003,8.817371e-003
3.546507e+003,8.849274e-003
3.548436e+003,8.720529e-003
3.550364e+003,8.522145e-003
3.552293e+003,8.464416e-003
3.554221e+003,8.383553e-003
3.556150e+003,8.424689e-003
3.558078e+003,8.374116e-003
3.560007e+003,8.240945e-003
3.561935e+003,8.119034e-003
3.563864e+003,8.116850e-003
3.565792e+003,8.097077e-003
3.567721e+003,8.025197e-003
3.569649e+003,7.959763e-003
3.571578e+003,7.874542e-003
3.573506e+003,7.794886e-003
3.575435e+003,7.762947e-003
3.577363e+003,7.630523e-003
3.579292e+003,7.542537e-003
3.581220e+003,7.544136e-003
3.583149e+003,7.413262e-003
3.585077e+003,7.351107e-003
3.587006e+003,7.322492e-003
3.588934e+003,7.352391e-003
3.590863e+003,7.408747e-003
3.592791e+003,7.344683e-003
3.594720e+003,7.112453e-003
3.596648e+003,7.027491e-003
3.598577e+003,6.954583e-003
3.600505e+003,6.944857e-003
3.602434e+003,6.968152e-003
3.604362e+003,6.887635e-003
3.606291e+003,6.790996e-003
3.608219e+003,6.727588e-003
3.610148e+003,6.684489e-003
3.612076e+003,6.592800e-003
3.614005e+003,6.628941e-003
3.615933e+003,6.694719e-003
3.617862e+003,6.676058e-003
3.619790e+003,6.653983e-003
3.621719e+003,6.636212e-003
3.623647e+003,6.527161e-003
3.625576e+003,6.499557e-003
3.627504e+003,6.448353e-003
3.629433e+003,6.399453e-003
3.631361e+003,6.485929e-003
3.633290e+003,6.363463e-003
3.635218e+003,6.197226e-003
3.637146e+003,6.266380e-003
3.639075e+003,6.226509e-003
3.641004e+003,6.042077e-003
3.642932e+003,6.036394e-003
3.644861e+003,6.105858e-003
3.646789e+003,6.050568e-003
3.648718e+003,6.092432e-003
3.650646e+003,6.080394e-003
3.652574e+003,6.004084e-003
3.654503e+003,5.923100e-003
3.656432e+003,5.919083e-003
3.658360e+003,5.960254e-003
3.660289e+003,6.022004e-003
3.662217e+003,5.987552e-003
3.664146e+003,5.906696e-003
3.666074e+003,5.793604e-003
3.668002e+003,5.762476e-003
3.669931e+003,5.849884e-003
3.671860e+003,5.874326e-003
3.673788e+003,5.845280e-003
3.675717e+003,5.789288e-003
3.677645e+003,5.640301e-003
3.679573e+003,5.640023e-003
3.681502e+003,5.810811e-003
3.683430e+003,5.812704e-003
3.685359e+003,5.720531e-003
3.687288e+003,5.774874e-003
3.689216e+003,5.851410e-003
3.691145e+003,5.843872e-003
3.693073e+003,5.824850e-003
3.695001e+003,5.889263e-003
3.696930e+003,5.995777e-003
3.698858e+003,6.087139e-003
3.700787e+003,6.081239e-003
3.702716e+003,5.942800e-003
3.704644e+003,5.970523e-003
3.706573e+003,6.021734e-003
3.708501e+003,5.951689e-003
3.710429e+003,6.002540e-003
3.712358e+003,6.025214e-003
3.714286e+003,5.898607e-003
3.716215e+003,5.778922e-003
3.718144e+003,5.879397e-003
3.720072e+003,6.090023e-003
3.722000e+003,6.128927e-003
3.723929e+003,6.068512e-003
3.725857e+003,6.133898e-003
3.727786e+003,6.222275e-003
3.729714e+003,6.212137e-003
3.731643e+003,6.117430e-003
3.733572e+003,6.051923e-003
3.735500e+003,6.036869e-003
3.737428e+003,6.001504e-003
3.739357e+003,6.043003e-003
3.741285e+003,6.016447e-003
3.743214e+003,6.057042e-003
3.745142e+003,6.051555e-003
3.747071e+003,5.896450e-003
3.749000e+003,5.836603e-003
3.750928e+003,5.897248e-003
3.752856e+003,5.938115e-003
3.754785e+003,5.950894e-003
3.756713e+003,6.010636e-003
3.758642e+003,6.064166e-003
3.760570e+003,6.065136e-003
3.762499e+003,6.066169e-003
3.764427e+003,6.166978e-003
3.766356e+003,6.165718e-003
3.768284e+003,6.143363e-003
3.770213e+003,6.052880e-003
3.772141e+003,6.036591e-003
3.774070e+003,6.097239e-003
3.775998e+003,6.023447e-003
3.777927e+003,6.048555e-003
3.779855e+003,6.051247e-003
3.781784e+003,6.074324e-003
3.783712e+003,6.180315e-003
3.785641e+003,6.260806e-003
3.787569e+003,6.126134e-003
3.789498e+003,6.069560e-003
3.791426e+003,6.145378e-003
3.793355e+003,6.119904e-003
3.795283e+003,6.130138e-003
3.797212e+003,6.136147e-003
3.799140e+003,6.096918e-003
3.801069e+003,6.147227e-003
3.802997e+003,6.219204e-003
3.804926e+003,6.238713e-003
3.806854e+003,6.154198e-003
3.808783e+003,6.217926e-003
3.810711e+003,6.267106e-003
3.812640e+003,6.261520e-003
3.814568e+003,6.207998e-003
3.816497e+003,6.189612e-003
3.818425e+003,6.261822e-003
3.820354e+003,6.302812e-003
3.822282e+003,6.353573e-003
3.824211e+003,6.368807e-003
3.826139e+003,6.232824e-003
3.828068e+003,6.272899e-003
3.829996e+003,6.307150e-003
3.831925e+003,6.291021e-003
3.833853e+003,6.307384e-003
3.835782e+003,6.328206e-003
3.837710e+003,6.267349e-003
3.839639e+003,6.205305e-003
3.841567e+003,6.333745e-003
3.843496e+003,6.465611e-003
3.845424e+003,6.393587e-003
3.847353e+003,6.304890e-003
3.849281e+003,6.273713e-003
3.851210e+003,6.312460e-003
3.853138e+003,6.361282e-003
3.855067e+003,6.351015e-003
3.856995e+003,6.349330e-003
3.858924e+003,6.390935e-003
3.860852e+003,6.343212e-003
3.862781e+003,6.318480e-003
3.864709e+003,6.329777e-003
3.866638e+003,6.437460e-003
3.868566e+003,6.483165e-003
3.870495e+003,6.495693e-003
3.872423e+003,6.531204e-003
3.874352e+003,6.546409e-003
3.876280e+003,6.506394e-003
3.878209e+003,6.471837e-003
3.880137e+003,6.449336e-003
3.882066e+003,6.439785e-003
3.883994e+003,6.467161e-003
3.885923e+003,6.421144e-003
3.887851e+003,6.413207e-003
3.889780e+003,6.465853e-003
3.891708e+003,6.462536e-003
3.893637e+003,6.490177e-003
3.895565e+003,6.500838e-003
3.897494e+003,6.442918e-003
3.899422e+003,6.459596e-003
3.901351e+003,6.487676e-003
3.903279e+003,6.461028e-003
3.905208e+003,6.487892e-003
3.907136e+003,6.503845e-003
3.909065e+003,6.560068e-003
3.910993e+003,6.522494e-003
3.912922e+003,6.516575e-003
3.914850e+003,6.614786e-003
3.916779e+003,6.583584e-003
3.918707e+003,6.459065e-003
3.920636e+003,6.506572e-003
3.922564e+003,6.560099e-003
3.924493e+003,6.583223e-003
3.926421e+003,6.651033e-003
3.928350e+003,6.596456e-003
3.930278e+003,6.589170e-003
3.932207e+003,6.556531e-003
3.934135e+003,6.535894e-003
3.936064e+003,6.515829e-003
3.937992e+003,6.530081e-003
3.939921e+003,6.488075e-003
3.941849e+003,6.471020e-003
3.943778e+003,6.588303e-003
3.945706e+003,6.662638e-003
3.947635e+003,6.584967e-003
3.949563e+003,6.483419e-003
3.951492e+003,6.544560e-003
3.953420e+003,6.567853e-003
3.955349e+003,6.578682e-003
3.957277e+003,6.594124e-003
3.959206e+003,6.698442e-003
3.961134e+003,6.720950e-003
3.963063e+003,6.601766e-003
3.964991e+003,6.524402e-003
3.966920e+003,6.628778e-003
3.968848e+003,6.630386e-003
3.970777e+003,6.567321e-003
3.972705e+003,6.596630e-003
3.974634e+003,6.663666e-003
3.976562e+003,6.661198e-003
3.978491e+003,6.602636e-003
3.980419e+003,6.624217e-003
3.982348e+003,6.611160e-003
3.984276e+003,6.638119e-003
3.986205e+003,6.659783e-003
3.988133e+003,6.701769e-003
3.990062e+003,6.666203e-003
3.991990e+003,6.584025e-003
3.993919e+003,6.637649e-003
3.995847e+003,6.635291e-003
3.997776e+003,6.613466e-003
3.999704e+003,6.613457e-003
4.001633e+003,0.000000e+000
