3.991989e+002,4.177349e-002
4.011274e+002,4.208644e-002
4.030559e+002,4.208644e-002
4.049844e+002,4.212094e-002
4.069129e+002,4.434915e-002
4.088414e+002,4.583363e-002
4.107699e+002,4.620811e-002
4.126984e+002,4.746720e-002
4.146269e+002,4.839685e-002
4.165554e+002,4.967314e-002
4.184839e+002,5.098971e-002
4.204124e+002,5.077005e-002
4.223409e+002,5.087550e-002
4.242694e+002,5.074242e-002
4.261979e+002,5.224485e-002
4.281264e+002,5.403145e-002
4.300549e+002,5.491836e-002
4.319834e+002,5.536874e-002
4.339119e+002,5.585189e-002
4.358404e+002,5.593009e-002
4.377689e+002,5.633619e-002
4.396974e+002,5.751403e-002
4.416259e+002,5.727448e-002
4.435544e+002,5.786877e-002
4.454829e+002,5.857359e-002
4.474114e+002,5.890546e-002
4.493399e+002,5.903163e-002
4.512684e+002,5.846182e-002
4.531969e+002,5.839035e-002
4.551254e+002,5.879715e-002
4.570539e+002,5.847606e-002
4.589824e+002,5.930172e-002
4.609109e+002,5.991343e-002
4.628394e+002,6.007548e-002
4.647679e+002,5.997022e-002
4.666964e+002,5.942785e-002
4.686249e+002,5.830354e-002
4.705533e+002,5.778977e-002
4.724819e+002,5.753148e-002
4.744103e+002,5.609997e-002
4.763389e+002,5.529454e-002
4.782673e+002,5.411076e-002
4.801959e+002,5.266565e-002
4.821243e+002,5.138566e-002
4.840529e+002,5.015504e-002
4.859813e+002,4.924982e-002
4.879099e+002,4.784602e-002
4.898383e+002,4.665412e-002
4.917668e+002,4.544224e-002
4.936953e+002,4.455169e-002
4.956238e+002,4.396233e-002
4.975523e+002,4.345842e-002
4.994808e+002,4.278051e-002
5.014093e+002,4.201617e-002
5.033378e+002,4.160206e-002
5.052663e+002,4.155022e-002
5.071948e+002,4.170088e-002
5.091233e+002,4.129344e-002
5.110518e+002,4.112099e-002
5.129803e+002,4.137657e-002
5.149088e+002,4.182773e-002
5.168373e+002,4.178805e-002
5.187658e+002,4.196017e-002
5.206943e+002,4.206595e-002
5.226228e+002,4.196703e-002
5.245513e+002,4.218401e-002
5.264798e+002,4.254339e-002
5.284083e+002,4.230470e-002
5.303368e+002,4.240677e-002
5.322653e+002,4.227269e-002
5.341938e+002,4.253396e-002
5.361223e+002,4.195507e-002
5.380508e+002,4.176215e-002
5.399792e+002,4.211704e-002
5.419078e+002,4.211713e-002
5.438363e+002,4.220624e-002
5.457648e+002,4.213063e-002
5.476932e+002,4.236576e-002
5.496218e+002,4.255162e-002
5.515503e+002,4.274010e-002
5.534788e+002,4.281738e-002
5.554072e+002,4.273082e-002
5.573358e+002,4.310234e-002
5.592643e+002,4.326920e-002
5.611927e+002,4.326577e-002
5.631212e+002,4.280476e-002
5.650497e+002,4.232250e-002
5.669783e+002,4.211156e-002
5.689067e+002,4.182852e-002
5.708352e+002,4.155633e-002
5.727637e+002,4.140636e-002
5.746923e+002,4.147093e-002
5.766207e+002,4.145069e-002
5.785492e+002,4.106916e-002
5.804777e+002,4.061035e-002
5.824063e+002,4.053491e-002
5.843347e+002,4.037005e-002
5.862632e+002,4.021057e-002
5.881917e+002,4.026444e-002
5.901202e+002,4.045690e-002
5.920487e+002,4.033300e-002
5.939772e+002,3.997658e-002
5.959057e+002,3.965821e-002
5.978342e+002,3.961394e-002
5.997627e+002,3.952974e-002
6.016912e+002,3.918366e-002
6.036197e+002,3.890913e-002
6.055482e+002,3.875287e-002
6.074767e+002,3.871990e-002
6.094052e+002,3.880261e-002
6.113337e+002,3.852748e-002
6.132622e+002,3.819473e-002
6.151907e+002,3.797349e-002
6.171192e+002,3.785327e-002
6.190477e+002,3.746935e-002
6.209762e+002,3.715238e-002
6.229047e+002,3.669479e-002
6.248332e+002,3.623116e-002
6.267617e+002,3.579659e-002
6.286902e+002,3.549225e-002
6.306187e+002,3.520501e-002
6.325472e+002,3.486757e-002
6.344756e+002,3.446647e-002
6.364042e+002,3.431350e-002
6.383326e+002,3.405334e-002
6.402612e+002,3.373988e-002
6.421896e+002,3.373395e-002
6.441182e+002,3.341563e-002
6.460466e+002,3.300620e-002
6.479752e+002,3.282246e-002
6.499036e+002,3.263145e-002
6.518322e+002,3.270717e-002
6.537606e+002,3.258091e-002
6.556891e+002,3.266689e-002
6.576177e+002,3.262422e-002
6.595461e+002,3.248599e-002
6.614746e+002,3.259532e-002
6.634031e+002,3.273195e-002
6.653317e+002,3.274109e-002
6.672601e+002,3.251460e-002
6.691886e+002,3.238228e-002
6.711171e+002,3.215586e-002
6.730457e+002,3.155802e-002
6.749741e+002,3.087684e-002
6.769026e+002,3.022281e-002
6.788311e+002,2.976568e-002
6.807596e+002,2.921434e-002
6.826881e+002,2.875833e-002
6.846166e+002,2.863011e-002
6.865451e+002,2.835355e-002
6.884736e+002,2.804322e-002
6.904021e+002,2.814608e-002
6.923306e+002,2.795838e-002
6.942591e+002,2.778274e-002
6.961876e+002,2.781160e-002
6.981161e+002,2.774766e-002
7.000446e+002,2.757771e-002
7.019731e+002,2.736113e-002
7.039016e+002,2.728365e-002
7.058301e+002,2.713652e-002
7.077585e+002,2.699341e-002
7.096871e+002,2.673953e-002
7.116156e+002,2.656810e-002
7.135441e+002,2.649032e-002
7.154725e+002,2.635101e-002
7.174011e+002,2.623321e-002
7.193296e+002,2.596916e-002
7.212581e+002,2.576342e-002
7.231865e+002,2.559695e-002
7.251151e+002,2.524978e-002
7.270436e+002,2.506850e-002
7.289720e+002,2.484061e-002
7.309005e+002,2.472633e-002
7.328290e+002,2.458258e-002
7.347576e+002,2.434321e-002
7.366860e+002,2.424378e-002
7.386145e+002,2.419206e-002
7.405430e+002,2.409486e-002
7.424716e+002,2.384900e-002
7.444000e+002,2.362567e-002
7.463285e+002,2.352666e-002
7.482570e+002,2.347172e-002
7.501855e+002,2.329146e-002
7.521140e+002,2.314927e-002
7.540425e+002,2.291939e-002
7.559710e+002,2.277758e-002
7.578995e+002,2.275000e-002
7.598280e+002,2.263411e-002
7.617565e+002,2.256416e-002
7.636850e+002,2.247350e-002
7.656135e+002,2.225446e-002
7.675420e+002,2.228714e-002
7.694705e+002,2.239262e-002
7.713990e+002,2.243759e-002
7.733275e+002,2.254308e-002
7.752560e+002,2.257390e-002
7.771844e+002,2.270533e-002
7.791130e+002,2.288548e-002
7.810415e+002,2.303394e-002
7.829700e+002,2.299282e-002
7.848984e+002,2.288195e-002
7.868270e+002,2.276985e-002
7.887555e+002,2.263265e-002
7.906840e+002,2.255750e-002
7.926124e+002,2.248048e-002
7.945410e+002,2.240103e-002
7.964695e+002,2.225554e-002
7.983979e+002,2.214336e-002
8.003264e+002,2.201973e-002
8.022549e+002,2.201663e-002
8.041835e+002,2.196477e-002
8.061119e+002,2.190747e-002
8.080404e+002,2.176901e-002
8.099689e+002,2.162857e-002
8.118975e+002,2.148936e-002
8.138259e+002,2.122060e-002
8.157545e+002,2.094599e-002
8.176830e+002,2.079709e-002
8.196115e+002,2.058021e-002
8.215399e+002,2.041609e-002
8.234684e+002,2.011843e-002
8.253970e+002,1.993481e-002
8.273254e+002,1.991281e-002
8.292539e+002,1.981466e-002
8.311824e+002,1.953172e-002
8.331110e+002,1.929995e-002
8.350394e+002,1.914379e-002
8.369679e+002,1.908905e-002
8.388964e+002,1.897854e-002
8.408250e+002,1.888298e-002
8.427534e+002,1.882945e-002
8.446819e+002,1.870885e-002
8.466104e+002,1.865827e-002
8.485389e+002,1.861103e-002
8.504674e+002,1.870563e-002
8.523959e+002,1.881616e-002
8.543244e+002,1.878568e-002
8.562529e+002,1.872593e-002
8.581814e+002,1.880793e-002
8.601099e+002,1.884551e-002
8.620384e+002,1.890679e-002
8.639669e+002,1.902057e-002
8.658954e+002,1.916138e-002
8.678239e+002,1.935579e-002
8.697524e+002,1.946650e-002
8.716809e+002,1.951893e-002
8.736094e+002,1.975130e-002
8.755378e+002,1.998830e-002
8.774664e+002,2.014296e-002
8.793949e+002,2.040095e-002
8.813234e+002,2.073519e-002
8.832518e+002,2.108649e-002
8.851804e+002,2.151098e-002
8.871089e+002,2.188977e-002
8.890374e+002,2.225976e-002
8.909658e+002,2.262804e-002
8.928943e+002,2.301284e-002
8.948229e+002,2.336081e-002
8.967513e+002,2.358101e-002
8.986798e+002,2.363471e-002
9.006083e+002,2.352210e-002
9.025369e+002,2.329208e-002
9.044653e+002,2.308394e-002
9.063938e+002,2.293137e-002
9.083223e+002,2.280368e-002
9.102509e+002,2.270700e-002
9.121793e+002,2.269185e-002
9.141078e+002,2.273319e-002
9.160364e+002,2.279978e-002
9.179648e+002,2.301658e-002
9.198933e+002,2.323345e-002
9.218218e+002,2.339323e-002
9.237504e+002,2.358612e-002
9.256788e+002,2.383415e-002
9.276073e+002,2.412789e-002
9.295358e+002,2.439123e-002
9.314644e+002,2.467749e-002
9.333928e+002,2.500701e-002
9.353213e+002,2.533210e-002
9.372498e+002,2.572423e-002
9.391783e+002,2.602935e-002
9.411068e+002,2.642095e-002
9.430353e+002,2.699353e-002
9.449637e+002,2.755291e-002
9.468923e+002,2.816669e-002
9.488208e+002,2.880863e-002
9.507493e+002,2.941152e-002
9.526777e+002,3.000951e-002
9.546063e+002,3.070912e-002
9.565348e+002,3.133674e-002
9.584633e+002,3.190179e-002
9.603917e+002,3.247565e-002
9.623203e+002,3.301111e-002
9.642488e+002,3.357663e-002
9.661772e+002,3.412371e-002
9.681057e+002,3.468134e-002
9.700343e+002,3.523449e-002
9.719628e+002,3.569444e-002
9.738912e+002,3.624617e-002
9.758197e+002,3.688798e-002
9.777483e+002,3.768149e-002
9.796768e+002,3.870465e-002
9.816052e+002,3.985773e-002
9.835337e+002,4.109637e-002
9.854623e+002,4.231185e-002
9.873907e+002,4.348790e-002
9.893192e+002,4.453586e-002
9.912477e+002,4.523668e-002
9.931763e+002,4.575127e-002
9.951047e+002,4.621561e-002
9.970332e+002,4.670922e-002
9.989617e+002,4.744415e-002
1.000890e+003,4.834855e-002
1.002819e+003,4.929734e-002
1.004747e+003,5.024727e-002
1.006676e+003,5.125760e-002
1.008604e+003,5.222408e-002
1.010533e+003,5.325468e-002
1.012461e+003,5.435963e-002
1.014390e+003,5.547203e-002
1.016318e+003,5.666305e-002
1.018247e+003,5.780432e-002
1.020175e+003,5.898559e-002
1.022104e+003,6.016750e-002
1.024032e+003,6.136938e-002
1.025961e+003,6.252199e-002
1.027889e+003,6.378356e-002
1.029818e+003,6.501999e-002
1.031746e+003,6.609212e-002
1.033675e+003,6.688359e-002
1.035603e+003,6.730110e-002
1.037532e+003,6.735217e-002
1.039460e+003,6.713945e-002
1.041389e+003,6.682839e-002
1.043317e+003,6.659812e-002
1.045246e+003,6.642184e-002
1.047174e+003,6.639354e-002
1.049103e+003,6.650297e-002
1.051031e+003,6.658581e-002
1.052960e+003,6.653421e-002
1.054888e+003,6.633583e-002
1.056817e+003,6.592194e-002
1.058745e+003,6.539884e-002
1.060674e+003,6.479336e-002
1.062602e+003,6.408756e-002
1.064531e+003,6.331191e-002
1.066459e+003,6.242178e-002
1.068388e+003,6.153836e-002
1.070316e+003,6.068790e-002
1.072245e+003,5.982762e-002
1.074173e+003,5.898608e-002
1.076102e+003,5.813973e-002
1.078030e+003,5.727026e-002
1.079959e+003,5.632844e-002
1.081887e+003,5.542765e-002
1.083816e+003,5.464422e-002
1.085744e+003,5.405448e-002
1.087673e+003,5.360804e-002
1.089601e+003,5.327596e-002
1.091530e+003,5.295914e-002
1.093458e+003,5.267759e-002
1.095387e+003,5.239687e-002
1.097315e+003,5.206145e-002
1.099244e+003,5.176045e-002
1.101172e+003,5.146088e-002
1.103101e+003,5.099996e-002
1.105029e+003,5.044000e-002
1.106958e+003,4.963475e-002
1.108886e+003,4.861581e-002
1.110815e+003,4.737616e-002
1.112743e+003,4.604574e-002
1.114672e+003,4.467411e-002
1.116600e+003,4.330910e-002
1.118529e+003,4.204363e-002
1.120457e+003,4.090978e-002
1.122386e+003,3.978477e-002
1.124314e+003,3.872831e-002
1.126243e+003,3.761923e-002
1.128171e+003,3.651448e-002
1.130100e+003,3.552418e-002
1.132028e+003,3.460652e-002
1.133957e+003,3.374183e-002
1.135885e+003,3.304218e-002
1.137814e+003,3.248843e-002
1.139742e+003,3.209639e-002
1.141671e+003,3.189687e-002
1.143599e+003,3.182570e-002
1.145528e+003,3.182859e-002
1.147456e+003,3.196459e-002
1.149385e+003,3.212886e-002
1.151313e+003,3.235380e-002
1.153242e+003,3.249914e-002
1.155170e+003,3.265068e-002
1.157099e+003,3.272935e-002
1.159027e+003,3.268790e-002
1.160956e+003,3.257360e-002
1.162884e+003,3.222420e-002
1.164813e+003,3.159416e-002
1.166741e+003,3.072726e-002
1.168670e+003,2.974022e-002
1.170598e+003,2.863871e-002
1.172526e+003,2.756509e-002
1.174455e+003,2.651015e-002
1.176384e+003,2.551011e-002
1.178312e+003,2.468731e-002
1.180240e+003,2.398976e-002
1.182169e+003,2.333427e-002
1.184098e+003,2.285153e-002
1.186026e+003,2.251658e-002
1.187954e+003,2.225368e-002
1.189883e+003,2.207900e-002
1.191812e+003,2.196716e-002
1.193740e+003,2.196520e-002
1.195668e+003,2.200975e-002
1.197597e+003,2.206404e-002
1.199526e+003,2.211815e-002
1.201454e+003,2.209073e-002
1.203382e+003,2.198429e-002
1.205311e+003,2.176799e-002
1.207240e+003,2.153521e-002
1.209168e+003,2.136949e-002
1.211096e+003,2.120396e-002
1.213025e+003,2.108860e-002
1.214953e+003,2.107041e-002
1.216882e+003,2.107846e-002
1.218810e+003,2.106697e-002
1.220739e+003,2.108510e-002
1.222667e+003,2.115266e-002
1.224596e+003,2.125404e-002
1.226524e+003,2.129846e-002
1.228453e+003,2.137301e-002
1.230381e+003,2.140528e-002
1.232310e+003,2.138539e-002
1.234238e+003,2.129369e-002
1.236167e+003,2.121037e-002
1.238095e+003,2.105876e-002
1.240024e+003,2.085978e-002
1.241952e+003,2.068103e-002
1.243881e+003,2.047878e-002
1.245809e+003,2.021148e-002
1.247738e+003,1.989932e-002
1.249666e+003,1.956061e-002
1.251595e+003,1.922746e-002
1.253523e+003,1.887850e-002
1.255452e+003,1.852479e-002
1.257380e+003,1.816977e-002
1.259309e+003,1.781224e-002
1.261237e+003,1.746148e-002
1.263166e+003,1.716054e-002
1.265094e+003,1.688160e-002
1.267023e+003,1.662100e-002
1.268951e+003,1.633948e-002
1.270880e+003,1.610057e-002
1.272808e+003,1.593477e-002
1.274737e+003,1.572834e-002
1.276665e+003,1.556017e-002
1.278594e+003,1.546747e-002
1.280522e+003,1.534571e-002
1.282451e+003,1.522302e-002
1.284379e+003,1.510978e-002
1.286308e+003,1.500630e-002
1.288236e+003,1.487998e-002
1.290165e+003,1.483845e-002
1.292093e+003,1.485803e-002
1.294022e+003,1.493550e-002
1.295950e+003,1.502891e-002
1.297879e+003,1.520271e-002
1.299807e+003,1.533072e-002
1.301736e+003,1.547396e-002
1.303664e+003,1.569461e-002
1.305593e+003,1.593497e-002
1.307521e+003,1.618220e-002
1.309450e+003,1.648059e-002
1.311378e+003,1.672512e-002
1.313307e+003,1.689579e-002
1.315235e+003,1.708929e-002
1.317164e+003,1.720903e-002
1.319092e+003,1.719798e-002
1.321021e+003,1.711082e-002
1.322949e+003,1.696202e-002
1.324878e+003,1.680277e-002
1.326806e+003,1.673457e-002
1.328735e+003,1.662634e-002
1.330663e+003,1.651680e-002
1.332592e+003,1.643308e-002
1.334520e+003,1.636739e-002
1.336449e+003,1.624365e-002
1.338377e+003,1.604144e-002
1.340306e+003,1.590886e-002
1.342234e+003,1.583984e-002
1.344163e+003,1.578519e-002
1.346091e+003,1.577354e-002
1.348020e+003,1.580919e-002
1.349948e+003,1.588323e-002
1.351877e+003,1.599053e-002
1.353805e+003,1.608423e-002
1.355734e+003,1.619680e-002
1.357662e+003,1.634729e-002
1.359591e+003,1.654515e-002
1.361519e+003,1.674485e-002
1.363448e+003,1.692914e-002
1.365376e+003,1.708796e-002
1.367305e+003,1.719102e-002
1.369233e+003,1.725581e-002
1.371162e+003,1.725902e-002
1.373090e+003,1.716401e-002
1.375019e+003,1.701739e-002
1.376947e+003,1.684034e-002
1.378876e+003,1.664747e-002
1.380804e+003,1.644638e-002
1.382733e+003,1.618188e-002
1.384661e+003,1.592870e-002
1.386590e+003,1.574223e-002
1.388518e+003,1.554465e-002
1.390447e+003,1.535450e-002
1.392375e+003,1.523501e-002
1.394304e+003,1.523866e-002
1.396232e+003,1.524456e-002
1.398161e+003,1.522162e-002
1.400089e+003,1.523264e-002
1.402018e+003,1.528004e-002
1.403946e+003,1.527159e-002
1.405875e+003,1.531846e-002
1.407803e+003,1.537899e-002
1.409732e+003,1.540536e-002
1.411660e+003,1.546781e-002
1.413589e+003,1.556002e-002
1.415517e+003,1.568727e-002
1.417446e+003,1.576166e-002
1.419374e+003,1.582989e-002
1.421303e+003,1.589559e-002
1.423231e+003,1.590754e-002
1.425160e+003,1.587806e-002
1.427088e+003,1.583909e-002
1.429017e+003,1.581618e-002
1.430945e+003,1.578528e-002
1.432874e+003,1.571083e-002
1.434802e+003,1.561103e-002
1.436731e+003,1.547954e-002
1.438659e+003,1.533799e-002
1.440588e+003,1.523109e-002
1.442516e+003,1.505870e-002
1.444445e+003,1.493696e-002
1.446373e+003,1.490694e-002
1.448302e+003,1.482437e-002
1.450230e+003,1.471469e-002
1.452159e+003,1.463737e-002
1.454087e+003,1.450883e-002
1.456016e+003,1.435771e-002
1.457944e+003,1.421859e-002
1.459873e+003,1.406968e-002
1.461801e+003,1.396102e-002
1.463730e+003,1.382735e-002
1.465658e+003,1.362337e-002
1.467587e+003,1.335606e-002
1.469515e+003,1.302592e-002
1.471444e+003,1.267679e-002
1.473372e+003,1.233110e-002
1.475301e+003,1.199677e-002
1.477229e+003,1.175131e-002
1.479158e+003,1.159526e-002
1.481086e+003,1.150270e-002
1.483015e+003,1.144988e-002
1.484943e+003,1.147019e-002
1.486872e+003,1.155122e-002
1.488800e+003,1.164497e-002
1.490729e+003,1.176110e-002
1.492657e+003,1.190256e-002
1.494586e+003,1.206354e-002
1.496514e+003,1.221650e-002
1.498443e+003,1.232527e-002
1.500371e+003,1.253711e-002
1.502300e+003,1.271817e-002
1.504228e+003,1.288040e-002
1.506157e+003,1.303961e-002
1.508085e+003,1.321353e-002
1.510014e+003,1.338977e-002
1.511942e+003,1.357346e-002
1.513871e+003,1.368618e-002
1.515799e+003,1.379359e-002
1.517728e+003,1.382551e-002
1.519656e+003,1.378989e-002
1.521585e+003,1.376592e-002
1.523513e+003,1.375670e-002
1.525442e+003,1.373458e-002
1.527370e+003,1.376033e-002
1.529299e+003,1.377035e-002
1.531227e+003,1.374300e-002
1.533156e+003,1.375619e-002
1.535084e+003,1.376271e-002
1.537013e+003,1.375959e-002
1.538941e+003,1.373842e-002
1.540870e+003,1.371583e-002
1.542798e+003,1.367737e-002
1.544727e+003,1.361740e-002
1.546655e+003,1.358166e-002
1.548584e+003,1.354443e-002
1.550512e+003,1.347860e-002
1.552441e+003,1.339289e-002
1.554369e+003,1.333680e-002
1.556298e+003,1.325639e-002
1.558226e+003,1.318227e-002
1.560155e+003,1.320280e-002
1.562083e+003,1.318655e-002
1.564012e+003,1.314095e-002
1.565940e+003,1.315305e-002
1.567869e+003,1.317611e-002
1.569797e+003,1.321582e-002
1.571726e+003,1.326872e-002
1.573654e+003,1.337128e-002
1.575583e+003,1.353552e-002
1.577511e+003,1.368376e-002
1.579440e+003,1.382153e-002
1.581368e+003,1.397250e-002
1.583297e+003,1.411557e-002
1.585225e+003,1.428883e-002
1.587154e+003,1.450302e-002
1.589082e+003,1.474767e-002
1.591010e+003,1.496038e-002
1.592939e+003,1.515651e-002
1.594868e+003,1.533483e-002
1.596796e+003,1.553571e-002
1.598724e+003,1.568326e-002
1.600653e+003,1.588977e-002
1.602582e+003,1.612303e-002
1.604510e+003,1.629527e-002
1.606438e+003,1.645442e-002
1.608367e+003,1.669491e-002
1.610296e+003,1.693220e-002
1.612224e+003,1.718613e-002
1.614152e+003,1.746860e-002
1.616081e+003,1.777855e-002
1.618010e+003,1.808188e-002
1.619938e+003,1.829347e-002
1.621866e+003,1.851527e-002
1.623795e+003,1.872468e-002
1.625724e+003,1.880393e-002
1.627652e+003,1.877778e-002
1.629580e+003,1.871346e-002
1.631509e+003,1.853678e-002
1.633438e+003,1.833566e-002
1.635366e+003,1.820773e-002
1.637294e+003,1.807380e-002
1.639223e+003,1.794780e-002
1.641151e+003,1.784250e-002
1.643080e+003,1.772848e-002
1.645008e+003,1.765075e-002
1.646937e+003,1.752158e-002
1.648865e+003,1.742028e-002
1.650794e+003,1.729329e-002
1.652722e+003,1.710871e-002
1.654651e+003,1.692886e-002
1.656579e+003,1.670692e-002
1.658508e+003,1.644798e-002
1.660436e+003,1.610872e-002
1.662365e+003,1.579241e-002
1.664293e+003,1.552029e-002
1.666222e+003,1.515817e-002
1.668150e+003,1.481072e-002
1.670079e+003,1.449278e-002
1.672007e+003,1.419966e-002
1.673936e+003,1.386364e-002
1.675864e+003,1.354189e-002
1.677793e+003,1.326762e-002
1.679721e+003,1.302925e-002
1.681650e+003,1.273766e-002
1.683578e+003,1.250310e-002
1.685507e+003,1.228269e-002
1.687435e+003,1.201984e-002
1.689364e+003,1.179773e-002
1.691292e+003,1.161907e-002
1.693221e+003,1.144147e-002
1.695149e+003,1.125612e-002
1.697078e+003,1.101798e-002
1.699006e+003,1.083170e-002
1.700935e+003,1.068389e-002
1.702863e+003,1.052208e-002
1.704792e+003,1.044015e-002
1.706720e+003,1.041238e-002
1.708649e+003,1.039902e-002
1.710577e+003,1.039688e-002
1.712506e+003,1.046687e-002
1.714434e+003,1.054713e-002
1.716363e+003,1.062841e-002
1.718291e+003,1.071206e-002
1.720220e+003,1.079024e-002
1.722148e+003,1.089088e-002
1.724077e+003,1.094310e-002
1.726005e+003,1.101442e-002
1.727934e+003,1.107830e-002
1.729862e+003,1.117037e-002
1.731791e+003,1.120394e-002
1.733719e+003,1.118574e-002
1.735648e+003,1.108543e-002
1.737576e+003,1.087210e-002
1.739505e+003,1.057781e-002
1.741433e+003,1.026526e-002
1.743362e+003,1.002058e-002
1.745290e+003,9.742868e-003
1.747219e+003,9.453932e-003
1.749147e+003,9.256328e-003
1.751076e+003,9.077081e-003
1.753004e+003,8.932337e-003
1.754933e+003,8.736307e-003
1.756861e+003,8.565281e-003
1.758790e+003,8.410065e-003
1.760718e+003,8.295143e-003
1.762647e+003,8.189224e-003
1.764575e+003,8.106799e-003
1.766504e+003,7.976781e-003
1.768432e+003,7.920112e-003
1.770361e+003,7.862283e-003
1.772289e+003,7.800872e-003
1.774218e+003,7.785264e-003
1.776146e+003,7.813819e-003
1.778075e+003,7.835614e-003
1.780003e+003,7.835368e-003
1.781932e+003,7.853056e-003
1.783860e+003,7.830348e-003
1.785789e+003,7.805164e-003
1.787717e+003,7.792366e-003
1.789646e+003,7.808147e-003
1.791574e+003,7.813989e-003
1.793503e+003,7.852714e-003
1.795431e+003,7.856882e-003
1.797360e+003,7.827319e-003
1.799288e+003,7.833714e-003
1.801217e+003,7.874360e-003
1.803145e+003,7.846563e-003
1.805074e+003,7.811443e-003
1.807002e+003,7.752565e-003
1.808931e+003,7.745879e-003
1.810859e+003,7.843539e-003
1.812788e+003,7.962275e-003
1.814716e+003,7.925211e-003
1.816645e+003,7.916889e-003
1.818573e+003,7.962816e-003
1.820502e+003,7.998947e-003
1.822430e+003,7.921858e-003
1.824359e+003,7.784024e-003
1.826287e+003,7.827840e-003
1.828216e+003,7.961760e-003
1.830144e+003,8.018251e-003
1.832073e+003,7.902565e-003
1.834001e+003,7.874588e-003
1.835930e+003,7.822155e-003
1.837858e+003,7.856938e-003
1.839787e+003,8.061565e-003
1.841715e+003,7.996604e-003
1.843644e+003,7.894249e-003
1.845572e+003,7.859348e-003
1.847501e+003,7.916113e-003
1.849429e+003,7.933676e-003
1.851358e+003,7.965369e-003
1.853286e+003,7.939290e-003
1.855215e+003,7.936402e-003
1.857143e+003,8.054757e-003
1.859072e+003,7.942895e-003
1.861000e+003,7.874607e-003
1.862929e+003,7.958629e-003
1.864857e+003,7.912160e-003
1.866786e+003,7.882050e-003
1.868714e+003,7.860862e-003
1.870643e+003,7.853948e-003
1.872571e+003,7.848719e-003
1.874500e+003,7.904563e-003
1.876428e+003,7.911865e-003
1.878357e+003,7.837055e-003
1.880285e+003,7.840635e-003
1.882214e+003,7.937991e-003
1.884142e+003,7.845731e-003
1.886071e+003,7.749438e-003
1.887999e+003,7.760447e-003
1.889928e+003,7.835419e-003
1.891856e+003,7.933407e-003
1.893785e+003,7.661557e-003
1.895713e+003,7.694586e-003
1.897642e+003,7.661440e-003
1.899570e+003,7.607486e-003
1.901499e+003,7.661025e-003
1.903427e+003,7.537912e-003
1.905356e+003,7.435674e-003
1.907284e+003,7.575748e-003
1.909213e+003,7.744885e-003
1.911141e+003,7.626728e-003
1.913070e+003,7.560698e-003
1.914998e+003,7.605367e-003
1.916927e+003,7.684462e-003
1.918855e+003,7.847688e-003
1.920784e+003,7.862038e-003
1.922712e+003,7.675570e-003
1.924641e+003,7.458046e-003
1.926569e+003,7.269394e-003
1.928498e+003,7.363638e-003
1.930426e+003,7.471935e-003
1.932355e+003,7.213315e-003
1.934283e+003,6.897189e-003
1.936212e+003,6.876044e-003
1.938140e+003,6.823422e-003
1.940069e+003,6.562127e-003
1.941997e+003,6.526038e-003
1.943926e+003,6.618637e-003
1.945854e+003,6.281157e-003
1.947783e+003,6.403429e-003
1.949711e+003,6.801499e-003
1.951640e+003,6.766642e-003
1.953568e+003,6.756263e-003
1.955497e+003,6.278425e-003
1.957425e+003,5.756567e-003
1.959354e+003,5.965571e-003
1.961282e+003,6.081963e-003
1.963211e+003,5.422465e-003
1.965139e+003,4.304458e-003
1.967068e+003,3.630257e-003
1.968996e+003,3.801252e-003
1.970925e+003,3.768976e-003
1.972853e+003,3.678819e-003
1.974782e+003,3.737435e-003
1.976710e+003,2.600827e-003
1.978639e+003,2.326121e-003
1.980567e+003,3.389097e-003
1.982496e+003,3.928520e-003
1.984424e+003,4.057682e-003
1.986353e+003,4.128191e-003
1.988281e+003,4.934906e-003
1.990210e+003,5.427322e-003
1.992138e+003,4.557938e-003
1.994067e+003,4.121556e-003
1.995995e+003,3.685545e-003
1.997924e+003,4.187678e-003
1.999852e+003,4.654402e-003
2.001781e+003,4.611520e-003
2.003709e+003,3.849697e-003
2.005638e+003,2.946014e-003
2.007566e+003,3.164372e-003
2.009495e+003,2.762172e-003
2.011423e+003,2.515124e-003
2.013352e+003,3.287958e-003
2.015280e+003,3.266663e-003
2.017208e+003,1.865414e-003
2.019137e+003,1.820483e-003
2.021066e+003,9.350645e-004
2.022994e+003,1.124633e-003
2.024922e+003,1.750300e-003
2.026851e+003,1.967543e-003
2.028780e+003,1.586749e-003
2.030708e+003,8.699851e-004
2.032636e+003,9.188207e-005
2.034565e+003,1.365513e-003
2.036494e+003,2.668214e-003
2.038422e+003,3.135691e-003
2.040350e+003,2.731626e-003
2.042279e+003,2.931218e-003
2.044208e+003,2.781303e-003
2.046136e+003,2.190027e-003
2.048064e+003,2.930368e-003
2.049993e+003,3.105449e-003
2.051921e+003,2.950332e-003
2.053850e+003,3.051776e-003
2.055778e+003,3.635477e-003
2.057707e+003,4.181743e-003
2.059635e+003,4.111198e-003
2.061564e+003,4.498898e-003
2.063492e+003,4.622481e-003
2.065421e+003,4.756590e-003
2.067349e+003,4.801725e-003
2.069278e+003,4.562006e-003
2.071206e+003,4.212687e-003
2.073135e+003,4.178643e-003
2.075063e+003,4.289168e-003
2.076992e+003,4.973424e-003
2.078920e+003,5.402984e-003
2.080849e+003,5.341997e-003
2.082777e+003,5.388282e-003
2.084706e+003,5.218495e-003
2.086634e+003,5.376092e-003
2.088563e+003,5.593936e-003
2.090491e+003,5.658439e-003
2.092420e+003,5.437433e-003
2.094348e+003,5.583997e-003
2.096277e+003,5.704910e-003
2.098205e+003,5.729493e-003
2.100134e+003,5.883155e-003
2.102062e+003,5.706931e-003
2.103991e+003,5.925139e-003
2.105919e+003,6.096007e-003
2.107848e+003,6.030723e-003
2.109776e+003,5.996455e-003
2.111705e+003,5.872139e-003
2.113633e+003,5.843659e-003
2.115562e+003,5.959133e-003
2.117490e+003,5.887051e-003
2.119419e+003,5.543197e-003
2.121347e+003,5.707569e-003
2.123276e+003,6.067446e-003
2.125204e+003,6.075073e-003
2.127133e+003,5.664465e-003
2.129061e+003,5.462996e-003
2.130990e+003,5.454340e-003
2.132918e+003,4.931969e-003
2.134847e+003,4.702067e-003
2.136775e+003,4.653871e-003
2.138704e+003,4.241357e-003
2.140632e+003,3.385010e-003
2.142561e+003,2.619976e-003
2.144489e+003,2.705120e-003
2.146418e+003,2.751901e-003
2.148346e+003,3.351785e-003
2.150275e+003,3.655881e-003
2.152203e+003,2.268039e-003
2.154132e+003,1.200647e-003
2.156060e+003,8.373779e-005
2.157989e+003,-1.926244e-003
2.159917e+003,-1.496007e-003
2.161846e+003,6.963065e-004
2.163774e+003,1.332274e-003
2.165703e+003,1.506531e-003
2.167631e+003,8.118465e-004
2.169560e+003,1.793899e-003
2.171488e+003,2.083655e-003
2.173417e+003,1.011068e-003
2.175345e+003,1.157056e-003
2.177274e+003,1.731021e-003
2.179202e+003,1.729690e-003
2.181131e+003,1.559899e-003
2.183059e+003,1.872825e-003
2.184988e+003,2.551845e-003
2.186916e+003,2.358079e-003
2.188845e+003,1.851795e-003
2.190773e+003,1.575395e-003
2.192702e+003,1.464340e-003
2.194630e+003,2.474062e-003
2.196559e+003,3.569180e-003
2.198487e+003,3.671018e-003
2.200416e+003,2.654979e-003
2.202344e+003,3.067522e-003
2.204273e+003,3.768601e-003
2.206201e+003,4.190937e-003
2.208130e+003,4.139017e-003
2.210058e+003,4.234732e-003
2.211987e+003,4.942726e-003
2.213915e+003,4.899127e-003
2.215844e+003,5.163601e-003
2.217772e+003,5.361274e-003
2.219701e+003,5.070531e-003
2.221629e+003,5.032283e-003
2.223558e+003,5.391835e-003
2.225486e+003,5.879326e-003
2.227415e+003,5.863138e-003
2.229343e+003,5.083471e-003
2.231272e+003,5.444902e-003
2.233200e+003,5.781961e-003
2.235129e+003,5.619753e-003
2.237057e+003,5.510318e-003
2.238986e+003,5.961046e-003
2.240914e+003,5.916272e-003
2.242843e+003,6.213573e-003
2.244771e+003,6.395799e-003
2.246700e+003,6.045163e-003
2.248628e+003,5.962424e-003
2.250557e+003,6.003012e-003
2.252485e+003,6.094057e-003
2.254414e+003,6.047215e-003
2.256342e+003,5.885851e-003
2.258271e+003,6.005344e-003
2.260199e+003,6.348583e-003
2.262128e+003,6.552672e-003
2.264056e+003,6.489570e-003
2.265985e+003,6.550582e-003
2.267913e+003,6.690335e-003
2.269842e+003,6.841350e-003
2.271770e+003,6.901902e-003
2.273699e+003,6.872145e-003
2.275627e+003,6.887046e-003
2.277556e+003,6.980084e-003
2.279484e+003,7.052107e-003
2.281413e+003,7.070828e-003
2.283341e+003,7.233169e-003
2.285270e+003,7.424761e-003
2.287198e+003,7.462842e-003
2.289127e+003,7.517634e-003
2.291055e+003,7.572331e-003
2.292984e+003,7.791367e-003
2.294912e+003,7.841957e-003
2.296841e+003,7.970166e-003
2.298769e+003,7.998255e-003
2.300698e+003,8.009558e-003
2.302626e+003,7.955567e-003
2.304555e+003,8.009702e-003
2.306483e+003,8.193051e-003
2.308412e+003,8.307958e-003
2.310340e+003,8.368816e-003
2.312269e+003,8.422757e-003
2.314197e+003,8.404829e-003
2.316125e+003,8.470718e-003
2.318054e+003,8.603892e-003
2.319983e+003,8.727115e-003
2.321911e+003,8.686559e-003
2.323840e+003,8.879077e-003
2.325768e+003,9.079563e-003
2.327697e+003,9.145435e-003
2.329625e+003,9.068690e-003
2.331553e+003,8.782392e-003
2.333482e+003,8.386078e-003
2.335411e+003,8.220583e-003
2.337339e+003,8.107858e-003
2.339268e+003,7.782023e-003
2.341196e+003,7.623711e-003
2.343125e+003,7.595216e-003
2.345053e+003,7.730635e-003
2.346981e+003,7.814602e-003
2.348910e+003,7.855241e-003
2.350839e+003,7.780650e-003
2.352767e+003,8.016868e-003
2.354696e+003,8.204612e-003
2.356624e+003,8.201465e-003
2.358552e+003,8.022947e-003
2.360481e+003,8.043516e-003
2.362409e+003,8.018899e-003
2.364338e+003,7.913211e-003
2.366267e+003,7.790694e-003
2.368195e+003,7.939743e-003
2.370124e+003,8.013698e-003
2.372052e+003,8.040200e-003
2.373980e+003,8.122304e-003
2.375909e+003,8.218300e-003
2.377838e+003,8.291746e-003
2.379766e+003,8.388058e-003
2.381695e+003,8.500570e-003
2.383623e+003,8.498448e-003
2.385552e+003,8.448447e-003
2.387480e+003,8.424997e-003
2.389408e+003,8.489325e-003
2.391337e+003,8.447805e-003
2.393266e+003,8.340576e-003
2.395194e+003,8.296527e-003
2.397123e+003,8.276623e-003
2.399051e+003,8.234355e-003
2.400979e+003,8.322454e-003
2.402908e+003,8.334410e-003
2.404836e+003,8.424839e-003
2.406765e+003,8.481564e-003
2.408694e+003,8.399671e-003
2.410622e+003,8.346976e-003
2.412551e+003,8.445717e-003
2.414479e+003,8.597201e-003
2.416407e+003,8.621669e-003
2.418336e+003,8.656281e-003
2.420264e+003,8.645566e-003
2.422193e+003,8.568677e-003
2.424122e+003,8.567798e-003
2.426050e+003,8.655097e-003
2.427979e+003,8.736396e-003
2.429907e+003,8.714490e-003
2.431835e+003,8.631911e-003
2.433764e+003,8.661790e-003
2.435692e+003,8.613862e-003
2.437621e+003,8.588514e-003
2.439550e+003,8.508966e-003
2.441478e+003,8.462407e-003
2.443406e+003,8.452778e-003
2.445335e+003,8.495383e-003
2.447263e+003,8.587332e-003
2.449192e+003,8.622042e-003
2.451121e+003,8.478220e-003
2.453049e+003,8.489808e-003
2.454978e+003,8.693125e-003
2.456906e+003,8.687074e-003
2.458834e+003,8.654388e-003
2.460763e+003,8.634107e-003
2.462691e+003,8.505047e-003
2.464620e+003,8.421022e-003
2.466549e+003,8.437541e-003
2.468477e+003,8.602811e-003
2.470406e+003,8.572699e-003
2.472334e+003,8.546812e-003
2.474262e+003,8.533465e-003
2.476191e+003,8.631167e-003
2.478119e+003,8.820280e-003
2.480048e+003,8.809595e-003
2.481977e+003,8.753774e-003
2.483905e+003,8.864342e-003
2.485833e+003,8.868298e-003
2.487762e+003,8.788767e-003
2.489690e+003,8.812199e-003
2.491619e+003,8.923662e-003
2.493547e+003,8.879560e-003
2.495476e+003,8.866710e-003
2.497405e+003,8.938002e-003
2.499333e+003,9.004132e-003
2.501261e+003,9.054539e-003
2.503190e+003,9.024057e-003
2.505118e+003,8.946762e-003
2.507047e+003,8.897281e-003
2.508975e+003,8.883754e-003
2.510904e+003,8.856362e-003
2.512833e+003,8.800568e-003
2.514761e+003,8.723043e-003
2.516689e+003,8.689136e-003
2.518618e+003,8.812436e-003
2.520546e+003,8.934553e-003
2.522475e+003,8.977848e-003
2.524403e+003,8.965502e-003
2.526332e+003,8.973721e-003
2.528260e+003,9.079643e-003
2.530189e+003,9.046013e-003
2.532117e+003,8.986237e-003
2.534046e+003,8.976833e-003
2.535974e+003,8.883517e-003
2.537903e+003,8.924237e-003
2.539831e+003,8.930325e-003
2.541760e+003,8.925522e-003
2.543688e+003,8.933301e-003
2.545617e+003,8.984139e-003
2.547545e+003,9.111854e-003
2.549474e+003,9.026052e-003
2.551402e+003,8.922377e-003
2.553331e+003,9.059749e-003
2.555259e+003,9.098151e-003
2.557188e+003,8.990093e-003
2.559116e+003,8.936514e-003
2.561045e+003,8.931205e-003
2.562973e+003,8.950179e-003
2.564902e+003,9.046149e-003
2.566830e+003,9.156622e-003
2.568759e+003,9.100113e-003
2.570687e+003,9.037183e-003
2.572616e+003,9.045674e-003
2.574544e+003,9.027846e-003
2.576473e+003,9.056264e-003
2.578401e+003,9.102955e-003
2.580330e+003,9.131920e-003
2.582258e+003,9.160040e-003
2.584187e+003,9.130363e-003
2.586115e+003,9.110230e-003
2.588044e+003,9.226372e-003
2.589972e+003,9.347759e-003
2.591901e+003,9.276060e-003
2.593829e+003,9.165928e-003
2.595758e+003,9.257883e-003
2.597686e+003,9.268817e-003
2.599615e+003,9.214255e-003
2.601543e+003,9.287772e-003
2.603472e+003,9.382902e-003
2.605400e+003,9.302463e-003
2.607329e+003,9.265669e-003
2.609257e+003,9.248643e-003
2.611186e+003,9.218181e-003
2.613114e+003,9.200582e-003
2.615043e+003,9.073992e-003
2.616971e+003,9.106677e-003
2.618900e+003,9.154930e-003
2.620828e+003,9.116895e-003
2.622757e+003,9.137165e-003
2.624685e+003,9.169041e-003
2.626614e+003,9.185590e-003
2.628542e+003,9.226914e-003
2.630471e+003,9.303411e-003
2.632399e+003,9.428070e-003
2.634328e+003,9.421129e-003
2.636256e+003,9.347352e-003
2.638185e+003,9.375487e-003
2.640113e+003,9.435350e-003
2.642042e+003,9.414932e-003
2.643970e+003,9.425327e-003
2.645899e+003,9.498879e-003
2.647827e+003,9.529666e-003
2.649756e+003,9.563435e-003
2.651684e+003,9.652764e-003
2.653613e+003,9.737062e-003
2.655541e+003,9.755970e-003
2.657470e+003,9.780539e-003
2.659398e+003,9.784979e-003
2.661327e+003,9.803652e-003
2.663255e+003,9.837408e-003
2.665184e+003,9.889505e-003
2.667112e+003,9.916454e-003
2.669041e+003,9.931370e-003
2.670969e+003,9.951405e-003
2.672898e+003,9.968153e-003
2.674826e+003,9.991480e-003
2.676755e+003,1.000148e-002
2.678683e+003,1.001270e-002
2.680612e+003,1.006893e-002
2.682540e+003,1.010233e-002
2.684469e+003,1.005092e-002
2.686397e+003,1.007486e-002
2.688326e+003,1.018831e-002
2.690254e+003,1.021161e-002
2.692183e+003,1.021986e-002
2.694111e+003,1.026250e-002
2.696040e+003,1.027912e-002
2.697968e+003,1.031102e-002
2.699897e+003,1.030328e-002
2.701825e+003,1.026827e-002
2.703754e+003,1.030457e-002
2.705682e+003,1.034739e-002
2.707611e+003,1.032805e-002
2.709539e+003,1.033385e-002
2.711468e+003,1.039022e-002
2.713396e+003,1.039388e-002
2.715325e+003,1.036222e-002
2.717253e+003,1.035452e-002
2.719182e+003,1.037827e-002
2.721110e+003,1.039799e-002
2.723039e+003,1.043104e-002
2.724967e+003,1.041716e-002
2.726896e+003,1.038017e-002
2.728824e+003,1.033660e-002
2.730753e+003,1.032310e-002
2.732681e+003,1.034872e-002
2.734610e+003,1.042850e-002
2.736538e+003,1.045657e-002
2.738467e+003,1.047279e-002
2.740395e+003,1.049289e-002
2.742324e+003,1.044527e-002
2.744252e+003,1.042921e-002
2.746181e+003,1.048508e-002
2.748109e+003,1.049282e-002
2.750038e+003,1.047843e-002
2.751966e+003,1.049217e-002
2.753895e+003,1.052558e-002
2.755823e+003,1.056404e-002
2.757752e+003,1.059076e-002
2.759680e+003,1.051169e-002
2.761609e+003,1.048444e-002
2.763537e+003,1.053912e-002
2.765466e+003,1.058984e-002
2.767394e+003,1.062746e-002
2.769323e+003,1.061948e-002
2.771251e+003,1.063653e-002
2.773180e+003,1.064970e-002
2.775108e+003,1.069816e-002
2.777037e+003,1.072734e-002
2.778965e+003,1.071216e-002
2.780894e+003,1.074398e-002
2.782822e+003,1.078752e-002
2.784750e+003,1.079071e-002
2.786679e+003,1.076466e-002
2.788608e+003,1.076541e-002
2.790536e+003,1.076599e-002
2.792465e+003,1.082781e-002
2.794393e+003,1.080138e-002
2.796322e+003,1.083858e-002
2.798250e+003,1.089008e-002
2.800178e+003,1.091652e-002
2.802107e+003,1.092433e-002
2.804036e+003,1.093898e-002
2.805964e+003,1.098135e-002
2.807893e+003,1.101754e-002
2.809821e+003,1.106132e-002
2.811750e+003,1.108294e-002
2.813678e+003,1.114059e-002
2.815606e+003,1.118505e-002
2.817535e+003,1.121926e-002
2.819464e+003,1.119498e-002
2.821392e+003,1.123242e-002
2.823321e+003,1.129917e-002
2.825249e+003,1.134841e-002
2.827177e+003,1.141614e-002
2.829106e+003,1.145311e-002
2.831034e+003,1.152174e-002
2.832963e+003,1.157230e-002
2.834892e+003,1.158104e-002
2.836820e+003,1.168022e-002
2.838749e+003,1.181278e-002
2.840677e+003,1.190622e-002
2.842605e+003,1.201333e-002
2.844534e+003,1.224346e-002
2.846462e+003,1.247749e-002
2.848391e+003,1.272864e-002
2.850320e+003,1.280013e-002
2.852248e+003,1.277126e-002
2.854177e+003,1.277511e-002
2.856105e+003,1.272843e-002
2.858033e+003,1.271677e-002
2.859962e+003,1.271816e-002
2.861890e+003,1.267252e-002
2.863819e+003,1.275075e-002
2.865748e+003,1.279548e-002
2.867676e+003,1.276586e-002
2.869604e+003,1.281357e-002
2.871533e+003,1.280224e-002
2.873461e+003,1.280371e-002
2.875390e+003,1.285302e-002
2.877319e+003,1.289988e-002
2.879247e+003,1.291439e-002
2.881176e+003,1.290801e-002
2.883104e+003,1.290057e-002
2.885032e+003,1.294614e-002
2.886961e+003,1.298488e-002
2.888889e+003,1.302012e-002
2.890818e+003,1.307256e-002
2.892747e+003,1.315398e-002
2.894675e+003,1.316668e-002
2.896604e+003,1.321775e-002
2.898532e+003,1.323800e-002
2.900460e+003,1.326953e-002
2.902389e+003,1.336619e-002
2.904317e+003,1.346837e-002
2.906246e+003,1.345059e-002
2.908175e+003,1.347500e-002
2.910103e+003,1.351290e-002
2.912031e+003,1.357310e-002
2.913960e+003,1.373575e-002
2.915888e+003,1.386436e-002
2.917817e+003,1.392748e-002
2.919745e+003,1.388919e-002
2.921674e+003,1.379882e-002
2.923603e+003,1.376198e-002
2.925531e+003,1.370795e-002
2.927459e+003,1.359498e-002
2.929388e+003,1.344513e-002
2.931316e+003,1.335375e-002
2.933245e+003,1.328661e-002
2.935173e+003,1.315860e-002
2.937102e+003,1.299025e-002
2.939031e+003,1.291163e-002
2.940959e+003,1.283965e-002
2.942887e+003,1.265721e-002
2.944816e+003,1.249208e-002
2.946744e+003,1.248082e-002
2.948673e+003,1.250772e-002
2.950601e+003,1.238510e-002
2.952530e+003,1.227843e-002
2.954458e+003,1.221255e-002
2.956387e+003,1.213497e-002
2.958315e+003,1.204689e-002
2.960244e+003,1.197178e-002
2.962172e+003,1.197884e-002
2.964101e+003,1.190047e-002
2.966029e+003,1.177020e-002
2.967958e+003,1.169177e-002
2.969886e+003,1.162287e-002
2.971815e+003,1.155322e-002
2.973743e+003,1.157520e-002
2.975672e+003,1.161933e-002
2.977600e+003,1.152347e-002
2.979529e+003,1.143307e-002
2.981457e+003,1.138592e-002
2.983386e+003,1.136371e-002
2.985314e+003,1.132430e-002
2.987243e+003,1.133539e-002
2.989171e+003,1.128959e-002
2.991100e+003,1.126315e-002
2.993028e+003,1.126318e-002
2.994957e+003,1.126577e-002
2.996885e+003,1.126670e-002
2.998814e+003,1.122940e-002
3.000742e+003,1.123512e-002
3.002671e+003,1.125847e-002
3.004599e+003,1.124053e-002
3.006528e+003,1.123742e-002
3.008456e+003,1.135164e-002
3.010385e+003,1.139506e-002
3.012313e+003,1.136665e-002
3.014242e+003,1.129641e-002
3.016170e+003,1.135380e-002
3.018099e+003,1.139190e-002
3.020027e+003,1.137740e-002
3.021956e+003,1.140217e-002
3.023884e+003,1.148411e-002
3.025813e+003,1.148589e-002
3.027741e+003,1.148121e-002
3.029670e+003,1.147654e-002
3.031598e+003,1.143974e-002
3.033527e+003,1.152184e-002
3.035455e+003,1.154760e-002
3.037384e+003,1.156995e-002
3.039312e+003,1.161594e-002
3.041241e+003,1.165203e-002
3.043169e+003,1.163558e-002
3.045098e+003,1.165244e-002
3.047026e+003,1.168093e-002
3.048955e+003,1.173519e-002
3.050883e+003,1.181845e-002
3.052812e+003,1.180600e-002
3.054740e+003,1.179833e-002
3.056669e+003,1.186869e-002
3.058597e+003,1.186471e-002
3.060526e+003,1.188980e-002
3.062454e+003,1.192599e-002
3.064383e+003,1.194719e-002
3.066311e+003,1.194843e-002
3.068240e+003,1.194747e-002
3.070168e+003,1.201523e-002
3.072097e+003,1.215058e-002
3.074025e+003,1.223996e-002
3.075954e+003,1.224149e-002
3.077882e+003,1.216256e-002
3.079811e+003,1.217776e-002
3.081739e+003,1.221709e-002
3.083668e+003,1.222657e-002
3.085596e+003,1.229942e-002
3.087525e+003,1.237488e-002
3.089453e+003,1.234988e-002
3.091382e+003,1.232495e-002
3.093310e+003,1.233653e-002
3.095239e+003,1.237923e-002
3.097167e+003,1.241313e-002
3.099096e+003,1.247877e-002
3.101024e+003,1.248559e-002
3.102953e+003,1.253268e-002
3.104881e+003,1.256809e-002
3.106810e+003,1.256631e-002
3.108738e+003,1.253780e-002
3.110667e+003,1.258731e-002
3.112595e+003,1.266794e-002
3.114524e+003,1.265287e-002
3.116452e+003,1.270598e-002
3.118381e+003,1.277246e-002
3.120309e+003,1.277199e-002
3.122238e+003,1.285115e-002
3.124166e+003,1.291276e-002
3.126095e+003,1.291579e-002
3.128023e+003,1.294779e-002
3.129952e+003,1.300215e-002
3.131880e+003,1.302353e-002
3.133809e+003,1.310115e-002
3.135737e+003,1.315713e-002
3.137666e+003,1.317308e-002
3.139594e+003,1.320561e-002
3.141523e+003,1.321309e-002
3.143451e+003,1.322797e-002
3.145380e+003,1.328212e-002
3.147308e+003,1.336074e-002
3.149237e+003,1.336019e-002
3.151165e+003,1.337909e-002
3.153094e+003,1.350771e-002
3.155022e+003,1.361467e-002
3.156951e+003,1.358634e-002
3.158879e+003,1.365392e-002
3.160808e+003,1.376950e-002
3.162736e+003,1.380872e-002
3.164665e+003,1.373814e-002
3.166593e+003,1.375144e-002
3.168522e+003,1.382900e-002
3.170450e+003,1.393903e-002
3.172379e+003,1.395852e-002
3.174307e+003,1.396415e-002
3.176236e+003,1.406326e-002
3.178164e+003,1.407878e-002
3.180093e+003,1.413039e-002
3.182021e+003,1.421413e-002
3.183950e+003,1.426478e-002
3.185878e+003,1.437555e-002
3.187807e+003,1.447147e-002
3.189735e+003,1.450362e-002
3.191664e+003,1.457120e-002
3.193592e+003,1.462694e-002
3.195521e+003,1.462635e-002
3.197449e+003,1.467465e-002
3.199378e+003,1.471941e-002
3.201306e+003,1.473842e-002
3.203235e+003,1.476096e-002
3.205163e+003,1.484372e-002
3.207092e+003,1.498888e-002
3.209020e+003,1.505449e-002
3.210948e+003,1.511245e-002
3.212877e+003,1.518966e-002
3.214806e+003,1.523976e-002
3.216734e+003,1.529177e-002
3.218663e+003,1.536116e-002
3.220591e+003,1.543872e-002
3.222520e+003,1.546165e-002
3.224448e+003,1.554089e-002
3.226376e+003,1.565100e-002
3.228305e+003,1.567078e-002
3.230234e+003,1.574319e-002
3.232162e+003,1.578704e-002
3.234091e+003,1.585585e-002
3.236019e+003,1.593571e-002
3.237948e+003,1.601311e-002
3.239876e+003,1.599019e-002
3.241804e+003,1.605973e-002
3.243733e+003,1.609227e-002
3.245662e+003,1.618251e-002
3.247590e+003,1.627777e-002
3.249519e+003,1.632524e-002
3.251447e+003,1.640285e-002
3.253375e+003,1.648291e-002
3.255304e+003,1.656325e-002
3.257232e+003,1.658808e-002
3.259161e+003,1.663108e-002
3.261090e+003,1.662409e-002
3.263018e+003,1.668999e-002
3.264947e+003,1.672374e-002
3.266875e+003,1.683501e-002
3.268803e+003,1.693165e-002
3.270732e+003,1.693977e-002
3.272660e+003,1.703168e-002
3.274589e+003,1.710887e-002
3.276518e+003,1.708684e-002
3.278446e+003,1.715708e-002
3.280375e+003,1.722040e-002
3.282303e+003,1.719120e-002
3.284231e+003,1.723006e-002
3.286160e+003,1.731119e-002
3.288088e+003,1.720986e-002
3.290017e+003,1.715212e-002
3.291946e+003,1.714429e-002
3.293874e+003,1.721394e-002
3.295802e+003,1.731443e-002
3.297731e+003,1.726181e-002
3.299659e+003,1.712319e-002
3.301588e+003,1.719366e-002
3.303516e+003,1.733834e-002
3.305445e+003,1.729537e-002
3.307374e+003,1.724132e-002
3.309302e+003,1.734955e-002
3.311230e+003,1.731307e-002
3.313159e+003,1.731065e-002
3.315087e+003,1.733531e-002
3.317016e+003,1.730508e-002
3.318944e+003,1.728470e-002
3.320873e+003,1.735631e-002
3.322802e+003,1.745407e-002
3.324730e+003,1.748351e-002
3.326658e+003,1.745503e-002
3.328587e+003,1.740189e-002
3.330515e+003,1.735413e-002
3.332444e+003,1.736739e-002
3.334372e+003,1.735302e-002
3.336301e+003,1.731955e-002
3.338229e+003,1.738751e-002
3.340158e+003,1.737313e-002
3.342086e+003,1.722524e-002
3.344015e+003,1.720540e-002
3.345943e+003,1.725888e-002
3.347872e+003,1.718724e-002
3.349800e+003,1.709588e-002
3.351729e+003,1.711357e-002
3.353657e+003,1.708064e-002
3.355586e+003,1.702408e-002
3.357514e+003,1.703805e-002
3.359443e+003,1.700894e-002
3.361371e+003,1.699918e-002
3.363300e+003,1.696681e-002
3.365229e+003,1.686975e-002
3.367157e+003,1.681315e-002
3.369085e+003,1.680780e-002
3.371014e+003,1.676937e-002
3.372942e+003,1.673185e-002
3.374871e+003,1.669485e-002
3.376799e+003,1.668888e-002
3.378728e+003,1.658113e-002
3.380656e+003,1.651033e-002
3.382585e+003,1.655878e-002
3.384513e+003,1.654200e-002
3.386442e+003,1.644705e-002
3.388370e+003,1.645137e-002
3.390299e+003,1.647106e-002
3.392227e+003,1.649487e-002
3.394156e+003,1.638575e-002
3.396084e+003,1.631638e-002
3.398013e+003,1.633714e-002
3.399941e+003,1.628248e-002
3.401870e+003,1.620524e-002
3.403798e+003,1.614020e-002
3.405727e+003,1.605865e-002
3.407655e+003,1.596691e-002
3.409584e+003,1.591076e-002
3.411512e+003,1.593913e-002
3.413441e+003,1.595609e-002
3.415369e+003,1.583876e-002
3.417298e+003,1.566566e-002
3.419226e+003,1.554162e-002
3.421155e+003,1.551751e-002
3.423083e+003,1.550468e-002
3.425012e+003,1.544217e-002
3.426940e+003,1.541064e-002
3.428869e+003,1.535222e-002
3.430797e+003,1.518412e-002
3.432726e+003,1.507126e-002
3.434654e+003,1.497212e-002
3.436583e+003,1.485610e-002
3.438511e+003,1.471531e-002
3.440440e+003,1.464555e-002
3.442368e+003,1.457518e-002
3.444297e+003,1.453115e-002
3.446225e+003,1.443380e-002
3.448154e+003,1.429786e-002
3.450082e+003,1.424572e-002
3.452011e+003,1.419743e-002
3.453939e+003,1.411198e-002
3.455868e+003,1.401383e-002
3.457796e+003,1.391470e-002
3.459725e+003,1.383114e-002
3.461653e+003,1.382222e-002
3.463582e+003,1.379331e-002
3.465510e+003,1.363919e-002
3.467439e+003,1.354023e-002
3.469367e+003,1.346206e-002
3.471296e+003,1.333509e-002
3.473224e+003,1.323604e-002
3.475153e+003,1.306288e-002
3.477081e+003,1.300751e-002
3.479010e+003,1.300430e-002
3.480938e+003,1.291886e-002
3.482867e+003,1.289308e-002
3.484795e+003,1.279828e-002
3.486724e+003,1.268968e-002
3.488652e+003,1.265508e-002
3.490581e+003,1.254138e-002
3.492509e+003,1.238736e-002
3.494438e+003,1.230319e-002
3.496366e+003,1.228162e-002
3.498295e+003,1.220307e-002
3.500223e+003,1.214013e-002
3.502152e+003,1.204563e-002
3.504080e+003,1.190067e-002
3.506009e+003,1.176834e-002
3.507937e+003,1.173108e-002
3.509866e+003,1.169716e-002
3.511794e+003,1.168183e-002
3.513723e+003,1.159607e-002
3.515651e+003,1.155123e-002
3.517580e+003,1.146421e-002
3.519508e+003,1.139311e-002
3.521437e+003,1.131139e-002
3.523365e+003,1.132918e-002
3.525294e+003,1.127772e-002
3.527222e+003,1.113189e-002
3.529151e+003,1.103456e-002
3.531079e+003,1.100909e-002
3.533008e+003,1.105972e-002
3.534936e+003,1.096120e-002
3.536865e+003,1.079772e-002
3.538793e+003,1.074618e-002
3.540722e+003,1.073982e-002
3.542650e+003,1.063105e-002
3.544579e+003,1.059124e-002
3.546507e+003,1.057306e-002
3.548436e+003,1.046569e-002
3.550364e+003,1.038623e-002
3.552293e+003,1.039181e-002
3.554221e+003,1.035009e-002
3.556150e+003,1.034394e-002
3.558078e+003,1.035594e-002
3.560007e+003,1.023030e-002
3.561935e+003,1.007632e-002
3.563864e+003,1.003855e-002
3.565792e+003,9.971647e-003
3.567721e+003,9.939016e-003
3.569649e+003,9.950922e-003
3.571578e+003,9.883873e-003
3.573506e+003,9.852642e-003
3.575435e+003,9.875712e-003
3.577363e+003,9.688608e-003
3.579292e+003,9.600827e-003
3.581220e+003,9.624808e-003
3.583149e+003,9.670421e-003
3.585077e+003,9.634161e-003
3.587006e+003,9.660866e-003
3.588934e+003,9.711940e-003
3.590863e+003,9.640167e-003
3.592791e+003,9.691535e-003
3.594720e+003,9.620317e-003
3.596648e+003,9.446386e-003
3.598577e+003,9.428341e-003
3.600505e+003,9.492898e-003
3.602434e+003,9.477609e-003
3.604362e+003,9.379116e-003
3.606291e+003,9.161998e-003
3.608219e+003,8.929859e-003
3.610148e+003,8.800563e-003
3.612076e+003,8.726363e-003
3.614005e+003,8.882844e-003
3.615933e+003,8.962597e-003
3.617862e+003,9.030846e-003
3.619790e+003,9.124898e-003
3.621719e+003,9.226899e-003
3.623647e+003,9.156234e-003
3.625576e+003,9.069512e-003
3.627504e+003,8.957871e-003
3.629433e+003,8.912388e-003
3.631361e+003,8.811567e-003
3.633290e+003,8.696109e-003
3.635218e+003,8.583829e-003
3.637146e+003,8.559664e-003
3.639075e+003,8.430052e-003
3.641004e+003,8.319375e-003
3.642932e+003,8.272691e-003
3.644861e+003,8.180363e-003
3.646789e+003,8.066673e-003
3.648718e+003,8.015522e-003
3.650646e+003,8.060859e-003
3.652574e+003,8.036828e-003
3.654503e+003,8.041588e-003
3.656432e+003,8.100299e-003
3.658360e+003,8.109141e-003
3.660289e+003,8.001261e-003
3.662217e+003,8.016411e-003
3.664146e+003,8.044479e-003
3.666074e+003,7.941701e-003
3.668002e+003,7.899656e-003
3.669931e+003,8.064845e-003
3.671860e+003,8.087073e-003
3.673788e+003,8.011197e-003
3.675717e+003,8.035084e-003
3.677645e+003,7.976661e-003
3.679573e+003,7.954356e-003
3.681502e+003,8.042461e-003
3.683430e+003,8.201534e-003
3.685359e+003,8.165875e-003
3.687288e+003,8.267906e-003
3.689216e+003,8.392313e-003
3.691145e+003,8.420373e-003
3.693073e+003,8.479399e-003
3.695001e+003,8.584775e-003
3.696930e+003,8.574938e-003
3.698858e+003,8.601771e-003
3.700787e+003,8.581361e-003
3.702716e+003,8.563329e-003
3.704644e+003,8.610817e-003
3.706573e+003,8.557278e-003
3.708501e+003,8.455931e-003
3.710429e+003,8.305147e-003
3.712358e+003,8.133006e-003
3.714286e+003,7.980543e-003
3.716215e+003,8.048907e-003
3.718144e+003,8.182449e-003
3.720072e+003,8.393630e-003
3.722000e+003,8.703910e-003
3.723929e+003,8.798190e-003
3.725857e+003,8.857068e-003
3.727786e+003,8.880099e-003
3.729714e+003,8.871142e-003
3.731643e+003,8.712667e-003
3.733572e+003,8.583193e-003
3.735500e+003,8.415080e-003
3.737428e+003,8.234032e-003
3.739357e+003,8.190059e-003
3.741285e+003,8.151234e-003
3.743214e+003,8.023395e-003
3.745142e+003,7.909432e-003
3.747071e+003,7.827603e-003
3.749000e+003,7.858357e-003
3.750928e+003,7.835882e-003
3.752856e+003,7.854539e-003
3.754785e+003,7.790432e-003
3.756713e+003,7.809617e-003
3.758642e+003,7.771606e-003
3.760570e+003,7.782347e-003
3.762499e+003,7.737294e-003
3.764427e+003,7.824023e-003
3.766356e+003,7.946859e-003
3.768284e+003,7.934493e-003
3.770213e+003,7.819463e-003
3.772141e+003,7.818640e-003
3.774070e+003,7.932160e-003
3.775998e+003,7.868322e-003
3.777927e+003,7.832024e-003
3.779855e+003,7.861809e-003
3.781784e+003,7.849004e-003
3.783712e+003,7.861292e-003
3.785641e+003,7.971790e-003
3.787569e+003,8.028384e-003
3.789498e+003,7.988387e-003
3.791426e+003,7.972634e-003
3.793355e+003,7.942030e-003
3.795283e+003,7.940692e-003
3.797212e+003,7.971000e-003
3.799140e+003,7.929699e-003
3.801069e+003,7.987458e-003
3.802997e+003,8.013436e-003
3.804926e+003,8.070980e-003
3.806854e+003,8.052911e-003
3.808783e+003,7.915143e-003
3.810711e+003,7.995130e-003
3.812640e+003,8.070275e-003
3.814568e+003,8.143019e-003
3.816497e+003,8.069221e-003
3.818425e+003,8.074219e-003
3.820354e+003,8.093797e-003
3.822282e+003,8.079777e-003
3.824211e+003,8.079705e-003
3.826139e+003,8.068756e-003
3.828068e+003,8.084201e-003
3.829996e+003,8.111476e-003
3.831925e+003,8.061326e-003
3.833853e+003,8.063702e-003
3.835782e+003,8.082351e-003
3.837710e+003,8.068563e-003
3.839639e+003,8.083675e-003
3.841567e+003,8.128997e-003
3.843496e+003,8.103805e-003
3.845424e+003,8.152461e-003
3.847353e+003,8.126399e-003
3.849281e+003,8.138868e-003
3.851210e+003,8.148503e-003
3.853138e+003,8.210887e-003
3.855067e+003,8.274280e-003
3.856995e+003,8.272511e-003
3.858924e+003,8.266951e-003
3.860852e+003,8.148688e-003
3.862781e+003,8.054132e-003
3.864709e+003,8.146263e-003
3.866638e+003,8.229794e-003
3.868566e+003,8.219773e-003
3.870495e+003,8.314950e-003
3.872423e+003,8.289508e-003
3.874352e+003,8.236672e-003
3.876280e+003,8.195753e-003
3.878209e+003,8.121062e-003
3.880137e+003,8.112069e-003
3.882066e+003,8.203218e-003
3.883994e+003,8.224718e-003
3.885923e+003,8.208532e-003
3.887851e+003,8.136647e-003
3.889780e+003,8.192170e-003
3.891708e+003,8.187342e-003
3.893637e+003,8.187505e-003
3.895565e+003,8.202924e-003
3.897494e+003,8.214378e-003
3.899422e+003,8.183026e-003
3.901351e+003,8.208784e-003
3.903279e+003,8.201723e-003
3.905208e+003,8.182844e-003
3.907136e+003,8.218986e-003
3.909065e+003,8.270589e-003
3.910993e+003,8.253092e-003
3.912922e+003,8.199595e-003
3.914850e+003,8.211198e-003
3.916779e+003,8.231861e-003
3.918707e+003,8.167009e-003
3.920636e+003,8.145625e-003
3.922564e+003,8.185457e-003
3.924493e+003,8.269168e-003
3.926421e+003,8.319878e-003
3.928350e+003,8.320375e-003
3.930278e+003,8.228180e-003
3.932207e+003,8.193551e-003
3.934135e+003,8.214233e-003
3.936064e+003,8.263180e-003
3.937992e+003,8.277694e-003
3.939921e+003,8.277346e-003
3.941849e+003,8.284916e-003
3.943778e+003,8.337877e-003
3.945706e+003,8.306844e-003
3.947635e+003,8.279833e-003
3.949563e+003,8.225902e-003
3.951492e+003,8.193453e-003
3.953420e+003,8.248450e-003
3.955349e+003,8.365510e-003
3.957277e+003,8.309710e-003
3.959206e+003,8.371929e-003
3.961134e+003,8.412070e-003
3.963063e+003,8.320624e-003
3.964991e+003,8.332788e-003
3.966920e+003,8.389847e-003
3.968848e+003,8.404377e-003
3.970777e+003,8.359841e-003
3.972705e+003,8.309851e-003
3.974634e+003,8.362685e-003
3.976562e+003,8.355825e-003
3.978491e+003,8.346320e-003
3.980419e+003,8.464400e-003
3.982348e+003,8.408831e-003
3.984276e+003,8.380877e-003
3.986205e+003,8.419905e-003
3.988133e+003,8.340870e-003
3.990062e+003,8.224737e-003
3.991990e+003,8.241803e-003
3.993919e+003,8.369266e-003
3.995847e+003,8.421982e-003
3.997776e+003,8.469473e-003
3.999704e+003,8.469502e-003
4.001633e+003,0.000000e+000
