3.991989e+002,2.729089e-002
4.011274e+002,2.899289e-002
4.030559e+002,2.899289e-002
4.049844e+002,2.767561e-002
4.069129e+002,2.717857e-002
4.088414e+002,2.773668e-002
4.107699e+002,2.858031e-002
4.126984e+002,2.894169e-002
4.146269e+002,2.832237e-002
4.165554e+002,2.945356e-002
4.184839e+002,2.952181e-002
4.204124e+002,2.912026e-002
4.223409e+002,2.911881e-002
4.242694e+002,2.949576e-002
4.261979e+002,3.035188e-002
4.281264e+002,2.991724e-002
4.300549e+002,2.951198e-002
4.319834e+002,3.039981e-002
4.339119e+002,3.034715e-002
4.358404e+002,3.081333e-002
4.377689e+002,3.082949e-002
4.396974e+002,3.060682e-002
4.416259e+002,3.121355e-002
4.435544e+002,3.136401e-002
4.454829e+002,3.163873e-002
4.474114e+002,3.147268e-002
4.493399e+002,3.123426e-002
4.512684e+002,3.110554e-002
4.531969e+002,3.042402e-002
4.551254e+002,3.040425e-002
4.570539e+002,3.062925e-002
4.589824e+002,3.076988e-002
4.609109e+002,3.106492e-002
4.628394e+002,3.088269e-002
4.647679e+002,3.163850e-002
4.666964e+002,3.200503e-002
4.686249e+002,3.126039e-002
4.705533e+002,3.029676e-002
4.724819e+002,3.011039e-002
4.744103e+002,3.062981e-002
4.763389e+002,3.078227e-002
4.782673e+002,3.018348e-002
4.801959e+002,2.999419e-002
4.821243e+002,2.984520e-002
4.840529e+002,3.015468e-002
4.859813e+002,2.984654e-002
4.879099e+002,2.996696e-002
4.898383e+002,3.015323e-002
4.917668e+002,3.017382e-002
4.936953e+002,2.975240e-002
4.956238e+002,2.971009e-002
4.975523e+002,2.978447e-002
4.994808e+002,2.941949e-002
5.014093e+002,2.946995e-002
5.033378e+002,2.951129e-002
5.052663e+002,2.959442e-002
5.071948e+002,2.986002e-002
5.091233e+002,3.017172e-002
5.110518e+002,3.008009e-002
5.129803e+002,3.046933e-002
5.149088e+002,3.058100e-002
5.168373e+002,3.079275e-002
5.187658e+002,3.047267e-002
5.206943e+002,3.112017e-002
5.226228e+002,3.138234e-002
5.245513e+002,3.141437e-002
5.264798e+002,3.150572e-002
5.284083e+002,3.154381e-002
5.303368e+002,3.127244e-002
5.322653e+002,3.100805e-002
5.341938e+002,3.086767e-002
5.361223e+002,3.103612e-002
5.380508e+002,3.117675e-002
5.399792e+002,3.143822e-002
5.419078e+002,3.142760e-002
5.438363e+002,3.092822e-002
5.457648e+002,3.081546e-002
5.476932e+002,3.135293e-002
5.496218e+002,3.140492e-002
5.515503e+002,3.122246e-002
5.534788e+002,3.134641e-002
5.554072e+002,3.188054e-002
5.573358e+002,3.219673e-002
5.592643e+002,3.245048e-002
5.611927e+002,3.237038e-002
5.631212e+002,3.235858e-002
5.650497e+002,3.188609e-002
5.669783e+002,3.147324e-002
5.689067e+002,3.111343e-002
5.708352e+002,3.086212e-002
5.727637e+002,3.083251e-002
5.746923e+002,3.093155e-002
5.766207e+002,3.091572e-002
5.785492e+002,3.043429e-002
5.804777e+002,3.014132e-002
5.824063e+002,3.009842e-002
5.843347e+002,2.956455e-002
5.862632e+002,2.933676e-002
5.881917e+002,2.919248e-002
5.901202e+002,2.920685e-002
5.920487e+002,2.931722e-002
5.939772e+002,2.942983e-002
5.959057e+002,2.904218e-002
5.978342e+002,2.885401e-002
5.997627e+002,2.892004e-002
6.016912e+002,2.911426e-002
6.036197e+002,2.912178e-002
6.055482e+002,2.901205e-002
6.074767e+002,2.891183e-002
6.094052e+002,2.857916e-002
6.113337e+002,2.832891e-002
6.132622e+002,2.815288e-002
6.151907e+002,2.773712e-002
6.171192e+002,2.757504e-002
6.190477e+002,2.717690e-002
6.209762e+002,2.673162e-002
6.229047e+002,2.623579e-002
6.248332e+002,2.614071e-002
6.267617e+002,2.599068e-002
6.286902e+002,2.559429e-002
6.306187e+002,2.513003e-002
6.325472e+002,2.491326e-002
6.344756e+002,2.468185e-002
6.364042e+002,2.433615e-002
6.383326e+002,2.401173e-002
6.402612e+002,2.412941e-002
6.421896e+002,2.407577e-002
6.441182e+002,2.395089e-002
6.460466e+002,2.397570e-002
6.479752e+002,2.373124e-002
6.499036e+002,2.339121e-002
6.518322e+002,2.332511e-002
6.537606e+002,2.321085e-002
6.556891e+002,2.308230e-002
6.576177e+002,2.292874e-002
6.595461e+002,2.294248e-002
6.614746e+002,2.290096e-002
6.634031e+002,2.305712e-002
6.653317e+002,2.314852e-002
6.672601e+002,2.291644e-002
6.691886e+002,2.281903e-002
6.711171e+002,2.260339e-002
6.730457e+002,2.225483e-002
6.749741e+002,2.189366e-002
6.769026e+002,2.170865e-002
6.788311e+002,2.166413e-002
6.807596e+002,2.129560e-002
6.826881e+002,2.083118e-002
6.846166e+002,2.064244e-002
6.865451e+002,2.062156e-002
6.884736e+002,2.046227e-002
6.904021e+002,2.024273e-002
6.923306e+002,2.021432e-002
6.942591e+002,2.018129e-002
6.961876e+002,1.996541e-002
6.981161e+002,1.992494e-002
7.000446e+002,1.982207e-002
7.019731e+002,1.969145e-002
7.039016e+002,1.945492e-002
7.058301e+002,1.930876e-002
7.077585e+002,1.913066e-002
7.096871e+002,1.905425e-002
7.116156e+002,1.892950e-002
7.135441e+002,1.883367e-002
7.154725e+002,1.861789e-002
7.174011e+002,1.837416e-002
7.193296e+002,1.813795e-002
7.212581e+002,1.807425e-002
7.231865e+002,1.800090e-002
7.251151e+002,1.795973e-002
7.270436e+002,1.779815e-002
7.289720e+002,1.758446e-002
7.309005e+002,1.732809e-002
7.328290e+002,1.725321e-002
7.347576e+002,1.706590e-002
7.366860e+002,1.696860e-002
7.386145e+002,1.678788e-002
7.405430e+002,1.671436e-002
7.424716e+002,1.655923e-002
7.444000e+002,1.655328e-002
7.463285e+002,1.650070e-002
7.482570e+002,1.640105e-002
7.501855e+002,1.626567e-002
7.521140e+002,1.615461e-002
7.540425e+002,1.598008e-002
7.559710e+002,1.593503e-002
7.578995e+002,1.578889e-002
7.598280e+002,1.564979e-002
7.617565e+002,1.556351e-002
7.636850e+002,1.550915e-002
7.656135e+002,1.545634e-002
7.675420e+002,1.546949e-002
7.694705e+002,1.536344e-002
7.713990e+002,1.535431e-002
7.733275e+002,1.526655e-002
7.752560e+002,1.514288e-002
7.771844e+002,1.514326e-002
7.791130e+002,1.515207e-002
7.810415e+002,1.504497e-002
7.829700e+002,1.497754e-002
7.848984e+002,1.493608e-002
7.868270e+002,1.491413e-002
7.887555e+002,1.485364e-002
7.906840e+002,1.479227e-002
7.926124e+002,1.474737e-002
7.945410e+002,1.465900e-002
7.964695e+002,1.453307e-002
7.983979e+002,1.464403e-002
8.003264e+002,1.473345e-002
8.022549e+002,1.471388e-002
8.041835e+002,1.451444e-002
8.061119e+002,1.445370e-002
8.080404e+002,1.445113e-002
8.099689e+002,1.453544e-002
8.118975e+002,1.444746e-002
8.138259e+002,1.440102e-002
8.157545e+002,1.437502e-002
8.176830e+002,1.432526e-002
8.196115e+002,1.424013e-002
8.215399e+002,1.413873e-002
8.234684e+002,1.412963e-002
8.253970e+002,1.417741e-002
8.273254e+002,1.410375e-002
8.292539e+002,1.410248e-002
8.311824e+002,1.407301e-002
8.331110e+002,1.405053e-002
8.350394e+002,1.402623e-002
8.369679e+002,1.398411e-002
8.388964e+002,1.388352e-002
8.408250e+002,1.391414e-002
8.427534e+002,1.386025e-002
8.446819e+002,1.379352e-002
8.466104e+002,1.371941e-002
8.485389e+002,1.371544e-002
8.504674e+002,1.368405e-002
8.523959e+002,1.367054e-002
8.543244e+002,1.363877e-002
8.562529e+002,1.364797e-002
8.581814e+002,1.372002e-002
8.601099e+002,1.385844e-002
8.620384e+002,1.378763e-002
8.639669e+002,1.371882e-002
8.658954e+002,1.380179e-002
8.678239e+002,1.394623e-002
8.697524e+002,1.399153e-002
8.716809e+002,1.403171e-002
8.736094e+002,1.405265e-002
8.755378e+002,1.408263e-002
8.774664e+002,1.405446e-002
8.793949e+002,1.403503e-002
8.813234e+002,1.409242e-002
8.832518e+002,1.424144e-002
8.851804e+002,1.438208e-002
8.871089e+002,1.453445e-002
8.890374e+002,1.476869e-002
8.909658e+002,1.505814e-002
8.928943e+002,1.523975e-002
8.948229e+002,1.537625e-002
8.967513e+002,1.540035e-002
8.986798e+002,1.543087e-002
9.006083e+002,1.530283e-002
9.025369e+002,1.516741e-002
9.044653e+002,1.513410e-002
9.063938e+002,1.505025e-002
9.083223e+002,1.488704e-002
9.102509e+002,1.481308e-002
9.121793e+002,1.475597e-002
9.141078e+002,1.479152e-002
9.160364e+002,1.485765e-002
9.179648e+002,1.489150e-002
9.198933e+002,1.486437e-002
9.218218e+002,1.502514e-002
9.237504e+002,1.510370e-002
9.256788e+002,1.520035e-002
9.276073e+002,1.533869e-002
9.295358e+002,1.550476e-002
9.314644e+002,1.567116e-002
9.333928e+002,1.586072e-002
9.353213e+002,1.597613e-002
9.372498e+002,1.620902e-002
9.391783e+002,1.646410e-002
9.411068e+002,1.680149e-002
9.430353e+002,1.716541e-002
9.449637e+002,1.757320e-002
9.468923e+002,1.794837e-002
9.488208e+002,1.823453e-002
9.507493e+002,1.847714e-002
9.526777e+002,1.879783e-002
9.546063e+002,1.918960e-002
9.565348e+002,1.970778e-002
9.584633e+002,2.018132e-002
9.603917e+002,2.055193e-002
9.623203e+002,2.096832e-002
9.642488e+002,2.139662e-002
9.661772e+002,2.179799e-002
9.681057e+002,2.225428e-002
9.700343e+002,2.271562e-002
9.719628e+002,2.320451e-002
9.738912e+002,2.374091e-002
9.758197e+002,2.433936e-002
9.777483e+002,2.499483e-002
9.796768e+002,2.574237e-002
9.816052e+002,2.647384e-002
9.835337e+002,2.729950e-002
9.854623e+002,2.809496e-002
9.873907e+002,2.878473e-002
9.893192e+002,2.939663e-002
9.912477e+002,2.989658e-002
9.931763e+002,3.029122e-002
9.951047e+002,3.060746e-002
9.970332e+002,3.085135e-002
9.989617e+002,3.125619e-002
1.000890e+003,3.183066e-002
1.002819e+003,3.240845e-002
1.004747e+003,3.285177e-002
1.006676e+003,3.332830e-002
1.008604e+003,3.386189e-002
1.010533e+003,3.447467e-002
1.012461e+003,3.506430e-002
1.014390e+003,3.572444e-002
1.016318e+003,3.652176e-002
1.018247e+003,3.726321e-002
1.020175e+003,3.794942e-002
1.022104e+003,3.869034e-002
1.024032e+003,3.944934e-002
1.025961e+003,4.029894e-002
1.027889e+003,4.120708e-002
1.029818e+003,4.202811e-002
1.031746e+003,4.281286e-002
1.033675e+003,4.344384e-002
1.035603e+003,4.375654e-002
1.037532e+003,4.372517e-002
1.039460e+003,4.338298e-002
1.041389e+003,4.297386e-002
1.043317e+003,4.258332e-002
1.045246e+003,4.226470e-002
1.047174e+003,4.200129e-002
1.049103e+003,4.185652e-002
1.051031e+003,4.180015e-002
1.052960e+003,4.160652e-002
1.054888e+003,4.132991e-002
1.056817e+003,4.103136e-002
1.058745e+003,4.065618e-002
1.060674e+003,4.015968e-002
1.062602e+003,3.946229e-002
1.064531e+003,3.871625e-002
1.066459e+003,3.795744e-002
1.068388e+003,3.721040e-002
1.070316e+003,3.650388e-002
1.072245e+003,3.587513e-002
1.074173e+003,3.526007e-002
1.076102e+003,3.455859e-002
1.078030e+003,3.380955e-002
1.079959e+003,3.312549e-002
1.081887e+003,3.240970e-002
1.083816e+003,3.173772e-002
1.085744e+003,3.121457e-002
1.087673e+003,3.074966e-002
1.089601e+003,3.030259e-002
1.091530e+003,2.989388e-002
1.093458e+003,2.953479e-002
1.095387e+003,2.920742e-002
1.097315e+003,2.894316e-002
1.099244e+003,2.875903e-002
1.101172e+003,2.859550e-002
1.103101e+003,2.842814e-002
1.105029e+003,2.818500e-002
1.106958e+003,2.786240e-002
1.108886e+003,2.744373e-002
1.110815e+003,2.691998e-002
1.112743e+003,2.631082e-002
1.114672e+003,2.559860e-002
1.116600e+003,2.488759e-002
1.118529e+003,2.430698e-002
1.120457e+003,2.374528e-002
1.122386e+003,2.313765e-002
1.124314e+003,2.250770e-002
1.126243e+003,2.189113e-002
1.128171e+003,2.126983e-002
1.130100e+003,2.065648e-002
1.132028e+003,2.014376e-002
1.133957e+003,1.962960e-002
1.135885e+003,1.917288e-002
1.137814e+003,1.888208e-002
1.139742e+003,1.865751e-002
1.141671e+003,1.855141e-002
1.143599e+003,1.850310e-002
1.145528e+003,1.853187e-002
1.147456e+003,1.862870e-002
1.149385e+003,1.872842e-002
1.151313e+003,1.882769e-002
1.153242e+003,1.894421e-002
1.155170e+003,1.911789e-002
1.157099e+003,1.920744e-002
1.159027e+003,1.922652e-002
1.160956e+003,1.914026e-002
1.162884e+003,1.890603e-002
1.164813e+003,1.851645e-002
1.166741e+003,1.791481e-002
1.168670e+003,1.721997e-002
1.170598e+003,1.649655e-002
1.172526e+003,1.577093e-002
1.174455e+003,1.507296e-002
1.176384e+003,1.445952e-002
1.178312e+003,1.389402e-002
1.180240e+003,1.344219e-002
1.182169e+003,1.305624e-002
1.184098e+003,1.273584e-002
1.186026e+003,1.249319e-002
1.187954e+003,1.236518e-002
1.189883e+003,1.231097e-002
1.191812e+003,1.231139e-002
1.193740e+003,1.238170e-002
1.195668e+003,1.252217e-002
1.197597e+003,1.264348e-002
1.199526e+003,1.281678e-002
1.201454e+003,1.292896e-002
1.203382e+003,1.300977e-002
1.205311e+003,1.299234e-002
1.207240e+003,1.299060e-002
1.209168e+003,1.299469e-002
1.211096e+003,1.304769e-002
1.213025e+003,1.314023e-002
1.214953e+003,1.323959e-002
1.216882e+003,1.331460e-002
1.218810e+003,1.338038e-002
1.220739e+003,1.350163e-002
1.222667e+003,1.364567e-002
1.224596e+003,1.374446e-002
1.226524e+003,1.386284e-002
1.228453e+003,1.400088e-002
1.230381e+003,1.410164e-002
1.232310e+003,1.418632e-002
1.234238e+003,1.424999e-002
1.236167e+003,1.429148e-002
1.238095e+003,1.432715e-002
1.240024e+003,1.433907e-002
1.241952e+003,1.433841e-002
1.243881e+003,1.429690e-002
1.245809e+003,1.424389e-002
1.247738e+003,1.417659e-002
1.249666e+003,1.411511e-002
1.251595e+003,1.401535e-002
1.253523e+003,1.390780e-002
1.255452e+003,1.385008e-002
1.257380e+003,1.375807e-002
1.259309e+003,1.358649e-002
1.261237e+003,1.344313e-002
1.263166e+003,1.333543e-002
1.265094e+003,1.316625e-002
1.267023e+003,1.297040e-002
1.268951e+003,1.284751e-002
1.270880e+003,1.269033e-002
1.272808e+003,1.255222e-002
1.274737e+003,1.242621e-002
1.276665e+003,1.229415e-002
1.278594e+003,1.219284e-002
1.280522e+003,1.210544e-002
1.282451e+003,1.194552e-002
1.284379e+003,1.184805e-002
1.286308e+003,1.173753e-002
1.288236e+003,1.162107e-002
1.290165e+003,1.155260e-002
1.292093e+003,1.153184e-002
1.294022e+003,1.154392e-002
1.295950e+003,1.155221e-002
1.297879e+003,1.157616e-002
1.299807e+003,1.165518e-002
1.301736e+003,1.174755e-002
1.303664e+003,1.183235e-002
1.305593e+003,1.196291e-002
1.307521e+003,1.207434e-002
1.309450e+003,1.218714e-002
1.311378e+003,1.232546e-002
1.313307e+003,1.244991e-002
1.315235e+003,1.251858e-002
1.317164e+003,1.253204e-002
1.319092e+003,1.247991e-002
1.321021e+003,1.238982e-002
1.322949e+003,1.232516e-002
1.324878e+003,1.227010e-002
1.326806e+003,1.223829e-002
1.328735e+003,1.222473e-002
1.330663e+003,1.224380e-002
1.332592e+003,1.224799e-002
1.334520e+003,1.223482e-002
1.336449e+003,1.220542e-002
1.338377e+003,1.214350e-002
1.340306e+003,1.203409e-002
1.342234e+003,1.195617e-002
1.344163e+003,1.193632e-002
1.346091e+003,1.192640e-002
1.348020e+003,1.191482e-002
1.349948e+003,1.194089e-002
1.351877e+003,1.198119e-002
1.353805e+003,1.205190e-002
1.355734e+003,1.211581e-002
1.357662e+003,1.215381e-002
1.359591e+003,1.224740e-002
1.361519e+003,1.232304e-002
1.363448e+003,1.241692e-002
1.365376e+003,1.256365e-002
1.367305e+003,1.261779e-002
1.369233e+003,1.263219e-002
1.371162e+003,1.261286e-002
1.373090e+003,1.259782e-002
1.375019e+003,1.255854e-002
1.376947e+003,1.242789e-002
1.378876e+003,1.228086e-002
1.380804e+003,1.214012e-002
1.382733e+003,1.198778e-002
1.384661e+003,1.182818e-002
1.386590e+003,1.163421e-002
1.388518e+003,1.154591e-002
1.390447e+003,1.148191e-002
1.392375e+003,1.142678e-002
1.394304e+003,1.137959e-002
1.396232e+003,1.135673e-002
1.398161e+003,1.133490e-002
1.400089e+003,1.130917e-002
1.402018e+003,1.129972e-002
1.403946e+003,1.133049e-002
1.405875e+003,1.137553e-002
1.407803e+003,1.140813e-002
1.409732e+003,1.145379e-002
1.411660e+003,1.149876e-002
1.413589e+003,1.150578e-002
1.415517e+003,1.153301e-002
1.417446e+003,1.160755e-002
1.419374e+003,1.167540e-002
1.421303e+003,1.169386e-002
1.423231e+003,1.167420e-002
1.425160e+003,1.166822e-002
1.427088e+003,1.161824e-002
1.429017e+003,1.155428e-002
1.430945e+003,1.150086e-002
1.432874e+003,1.141218e-002
1.434802e+003,1.127553e-002
1.436731e+003,1.120295e-002
1.438659e+003,1.116965e-002
1.440588e+003,1.108661e-002
1.442516e+003,1.103216e-002
1.444445e+003,1.101872e-002
1.446373e+003,1.103464e-002
1.448302e+003,1.102658e-002
1.450230e+003,1.102551e-002
1.452159e+003,1.096945e-002
1.454087e+003,1.084912e-002
1.456016e+003,1.077065e-002
1.457944e+003,1.070635e-002
1.459873e+003,1.063049e-002
1.461801e+003,1.058600e-002
1.463730e+003,1.052521e-002
1.465658e+003,1.040371e-002
1.467587e+003,1.021273e-002
1.469515e+003,9.947483e-003
1.471444e+003,9.693394e-003
1.473372e+003,9.486458e-003
1.475301e+003,9.308527e-003
1.477229e+003,9.147599e-003
1.479158e+003,9.072561e-003
1.481086e+003,9.020228e-003
1.483015e+003,8.968039e-003
1.484943e+003,8.973325e-003
1.486872e+003,9.007573e-003
1.488800e+003,9.037942e-003
1.490729e+003,9.147375e-003
1.492657e+003,9.297814e-003
1.494586e+003,9.397220e-003
1.496514e+003,9.500692e-003
1.498443e+003,9.693515e-003
1.500371e+003,9.859801e-003
1.502300e+003,9.964362e-003
1.504228e+003,1.013505e-002
1.506157e+003,1.027196e-002
1.508085e+003,1.036513e-002
1.510014e+003,1.040472e-002
1.511942e+003,1.045385e-002
1.513871e+003,1.048008e-002
1.515799e+003,1.046661e-002
1.517728e+003,1.036433e-002
1.519656e+003,1.024049e-002
1.521585e+003,1.015829e-002
1.523513e+003,1.009418e-002
1.525442e+003,1.005398e-002
1.527370e+003,1.008929e-002
1.529299e+003,1.011659e-002
1.531227e+003,1.012168e-002
1.533156e+003,1.009872e-002
1.535084e+003,1.011004e-002
1.537013e+003,1.011893e-002
1.538941e+003,1.012084e-002
1.540870e+003,1.011596e-002
1.542798e+003,1.008075e-002
1.544727e+003,1.001964e-002
1.546655e+003,9.964030e-003
1.548584e+003,9.918303e-003
1.550512e+003,9.875961e-003
1.552441e+003,9.839227e-003
1.554369e+003,9.802006e-003
1.556298e+003,9.740146e-003
1.558226e+003,9.663327e-003
1.560155e+003,9.626376e-003
1.562083e+003,9.594048e-003
1.564012e+003,9.614524e-003
1.565940e+003,9.605759e-003
1.567869e+003,9.580080e-003
1.569797e+003,9.611393e-003
1.571726e+003,9.644797e-003
1.573654e+003,9.671697e-003
1.575583e+003,9.800990e-003
1.577511e+003,9.901454e-003
1.579440e+003,9.969504e-003
1.581368e+003,1.009877e-002
1.583297e+003,1.017544e-002
1.585225e+003,1.028820e-002
1.587154e+003,1.040209e-002
1.589082e+003,1.053388e-002
1.591010e+003,1.063826e-002
1.592939e+003,1.079194e-002
1.594868e+003,1.091837e-002
1.596796e+003,1.102239e-002
1.598724e+003,1.111832e-002
1.600653e+003,1.118687e-002
1.602582e+003,1.123412e-002
1.604510e+003,1.124815e-002
1.606438e+003,1.124673e-002
1.608367e+003,1.126599e-002
1.610296e+003,1.133216e-002
1.612224e+003,1.144462e-002
1.614152e+003,1.152094e-002
1.616081e+003,1.162712e-002
1.618010e+003,1.177389e-002
1.619938e+003,1.188304e-002
1.621866e+003,1.201894e-002
1.623795e+003,1.222215e-002
1.625724e+003,1.237991e-002
1.627652e+003,1.250853e-002
1.629580e+003,1.256029e-002
1.631509e+003,1.258403e-002
1.633438e+003,1.257151e-002
1.635366e+003,1.252892e-002
1.637294e+003,1.247140e-002
1.639223e+003,1.240657e-002
1.641151e+003,1.237147e-002
1.643080e+003,1.230899e-002
1.645008e+003,1.225497e-002
1.646937e+003,1.220441e-002
1.648865e+003,1.216267e-002
1.650794e+003,1.214023e-002
1.652722e+003,1.208320e-002
1.654651e+003,1.197181e-002
1.656579e+003,1.186947e-002
1.658508e+003,1.174725e-002
1.660436e+003,1.156267e-002
1.662365e+003,1.136519e-002
1.664293e+003,1.121038e-002
1.666222e+003,1.101091e-002
1.668150e+003,1.082677e-002
1.670079e+003,1.063785e-002
1.672007e+003,1.043205e-002
1.673936e+003,1.021841e-002
1.675864e+003,1.002741e-002
1.677793e+003,9.824875e-003
1.679721e+003,9.680818e-003
1.681650e+003,9.480682e-003
1.683578e+003,9.296292e-003
1.685507e+003,9.166779e-003
1.687435e+003,8.992386e-003
1.689364e+003,8.840193e-003
1.691292e+003,8.696579e-003
1.693221e+003,8.554892e-003
1.695149e+003,8.444631e-003
1.697078e+003,8.338678e-003
1.699006e+003,8.177808e-003
1.700935e+003,8.070108e-003
1.702863e+003,7.932138e-003
1.704792e+003,7.840794e-003
1.706720e+003,7.781626e-003
1.708649e+003,7.726895e-003
1.710577e+003,7.672163e-003
1.712506e+003,7.681687e-003
1.714434e+003,7.670735e-003
1.716363e+003,7.654086e-003
1.718291e+003,7.611765e-003
1.720220e+003,7.562894e-003
1.722148e+003,7.600147e-003
1.724077e+003,7.634351e-003
1.726005e+003,7.598209e-003
1.727934e+003,7.517184e-003
1.729862e+003,7.473638e-003
1.731791e+003,7.459490e-003
1.733719e+003,7.399495e-003
1.735648e+003,7.323589e-003
1.737576e+003,7.236186e-003
1.739505e+003,7.197028e-003
1.741433e+003,7.111406e-003
1.743362e+003,6.996485e-003
1.745290e+003,6.871619e-003
1.747219e+003,6.791641e-003
1.749147e+003,6.737793e-003
1.751076e+003,6.630302e-003
1.753004e+003,6.474414e-003
1.754933e+003,6.411809e-003
1.756861e+003,6.383048e-003
1.758790e+003,6.280562e-003
1.760718e+003,6.228450e-003
1.762647e+003,6.177300e-003
1.764575e+003,6.121045e-003
1.766504e+003,6.096648e-003
1.768432e+003,6.108735e-003
1.770361e+003,6.072427e-003
1.772289e+003,6.018133e-003
1.774218e+003,5.964929e-003
1.776146e+003,5.931523e-003
1.778075e+003,5.947942e-003
1.780003e+003,5.998318e-003
1.781932e+003,5.992624e-003
1.783860e+003,5.915107e-003
1.785789e+003,5.942799e-003
1.787717e+003,5.936115e-003
1.789646e+003,5.897711e-003
1.791574e+003,5.904411e-003
1.793503e+003,5.895113e-003
1.795431e+003,5.893114e-003
1.797360e+003,5.920105e-003
1.799288e+003,5.966186e-003
1.801217e+003,5.923906e-003
1.803145e+003,5.932610e-003
1.805074e+003,5.958553e-003
1.807002e+003,5.921958e-003
1.808931e+003,5.868468e-003
1.810859e+003,5.885702e-003
1.812788e+003,5.885269e-003
1.814716e+003,5.867415e-003
1.816645e+003,5.892824e-003
1.818573e+003,5.903975e-003
1.820502e+003,5.919199e-003
1.822430e+003,5.921441e-003
1.824359e+003,5.908331e-003
1.826287e+003,5.867881e-003
1.828216e+003,5.882654e-003
1.830144e+003,5.878009e-003
1.832073e+003,5.848049e-003
1.834001e+003,5.920229e-003
1.835930e+003,5.961814e-003
1.837858e+003,5.917553e-003
1.839787e+003,5.884263e-003
1.841715e+003,5.824738e-003
1.843644e+003,5.851745e-003
1.845572e+003,5.868783e-003
1.847501e+003,5.891542e-003
1.849429e+003,5.925731e-003
1.851358e+003,5.940496e-003
1.853286e+003,5.960340e-003
1.855215e+003,5.991821e-003
1.857143e+003,5.917158e-003
1.859072e+003,5.859324e-003
1.861000e+003,5.901205e-003
1.862929e+003,5.761313e-003
1.864857e+003,5.690955e-003
1.866786e+003,5.784250e-003
1.868714e+003,5.773017e-003
1.870643e+003,5.880362e-003
1.872571e+003,6.024784e-003
1.874500e+003,5.832427e-003
1.876428e+003,5.716624e-003
1.878357e+003,5.722967e-003
1.880285e+003,5.911934e-003
1.882214e+003,5.915429e-003
1.884142e+003,5.914668e-003
1.886071e+003,5.861910e-003
1.887999e+003,5.757875e-003
1.889928e+003,5.610267e-003
1.891856e+003,5.551544e-003
1.893785e+003,5.492150e-003
1.895713e+003,5.533761e-003
1.897642e+003,5.847480e-003
1.899570e+003,5.754218e-003
1.901499e+003,5.677097e-003
1.903427e+003,5.776560e-003
1.905356e+003,5.558822e-003
1.907284e+003,5.580304e-003
1.909213e+003,5.708098e-003
1.911141e+003,5.707897e-003
1.913070e+003,5.598197e-003
1.914998e+003,5.478865e-003
1.916927e+003,5.671220e-003
1.918855e+003,5.629322e-003
1.920784e+003,5.459009e-003
1.922712e+003,5.444377e-003
1.924641e+003,5.620612e-003
1.926569e+003,5.555007e-003
1.928498e+003,5.258502e-003
1.930426e+003,5.057076e-003
1.932355e+003,5.131264e-003
1.934283e+003,4.994329e-003
1.936212e+003,4.785839e-003
1.938140e+003,5.106124e-003
1.940069e+003,5.205366e-003
1.941997e+003,4.620735e-003
1.943926e+003,4.680861e-003
1.945854e+003,4.927567e-003
1.947783e+003,5.194374e-003
1.949711e+003,4.966399e-003
1.951640e+003,4.493612e-003
1.953568e+003,4.589978e-003
1.955497e+003,4.681013e-003
1.957425e+003,4.160215e-003
1.959354e+003,3.730476e-003
1.961282e+003,3.947906e-003
1.963211e+003,3.519746e-003
1.965139e+003,2.731929e-003
1.967068e+003,2.618361e-003
1.968996e+003,2.529366e-003
1.970925e+003,2.251484e-003
1.972853e+003,2.003457e-003
1.974782e+003,2.453464e-003
1.976710e+003,2.536043e-003
1.978639e+003,1.828904e-003
1.980567e+003,2.066450e-003
1.982496e+003,1.822280e-003
1.984424e+003,2.201226e-003
1.986353e+003,2.957409e-003
1.988281e+003,3.299174e-003
1.990210e+003,2.730598e-003
1.992138e+003,2.769936e-003
1.994067e+003,3.506828e-003
1.995995e+003,3.569796e-003
1.997924e+003,2.632065e-003
1.999852e+003,2.684193e-003
2.001781e+003,2.606110e-003
2.003709e+003,2.553509e-003
2.005638e+003,2.254299e-003
2.007566e+003,1.231906e-003
2.009495e+003,1.177954e-003
2.011423e+003,1.200780e-003
2.013352e+003,8.472729e-004
2.015280e+003,9.030693e-004
2.017208e+003,8.915519e-004
2.019137e+003,9.080273e-004
2.021066e+003,6.001376e-004
2.022994e+003,3.858957e-004
2.024922e+003,2.718822e-004
2.026851e+003,-5.005004e-004
2.028780e+003,-4.237843e-004
2.030708e+003,-5.325805e-004
2.032636e+003,3.115855e-004
2.034565e+003,1.182180e-004
2.036494e+003,-7.236641e-005
2.038422e+003,4.050357e-004
2.040350e+003,4.836956e-004
2.042279e+003,1.508853e-003
2.044208e+003,1.714409e-003
2.046136e+003,8.533063e-004
2.048064e+003,1.019119e-003
2.049993e+003,1.715480e-003
2.051921e+003,2.419009e-003
2.053850e+003,2.691992e-003
2.055778e+003,2.542551e-003
2.057707e+003,2.517900e-003
2.059635e+003,2.652663e-003
2.061564e+003,2.821496e-003
2.063492e+003,3.028879e-003
2.065421e+003,3.115333e-003
2.067349e+003,3.152135e-003
2.069278e+003,3.530290e-003
2.071206e+003,3.615778e-003
2.073135e+003,3.662669e-003
2.075063e+003,3.637980e-003
2.076992e+003,3.808904e-003
2.078920e+003,3.944360e-003
2.080849e+003,3.951383e-003
2.082777e+003,4.276355e-003
2.084706e+003,4.559257e-003
2.086634e+003,4.560498e-003
2.088563e+003,4.284373e-003
2.090491e+003,4.129717e-003
2.092420e+003,4.483651e-003
2.094348e+003,4.843620e-003
2.096277e+003,4.553962e-003
2.098205e+003,4.380636e-003
2.100134e+003,4.693090e-003
2.102062e+003,4.746650e-003
2.103991e+003,4.468203e-003
2.105919e+003,4.206895e-003
2.107848e+003,4.116606e-003
2.109776e+003,4.233360e-003
2.111705e+003,4.293255e-003
2.113633e+003,4.474731e-003
2.115562e+003,4.438275e-003
2.117490e+003,4.415982e-003
2.119419e+003,4.199735e-003
2.121347e+003,3.874030e-003
2.123276e+003,3.901210e-003
2.125204e+003,3.978313e-003
2.127133e+003,4.095566e-003
2.129061e+003,4.052253e-003
2.130990e+003,3.826828e-003
2.132918e+003,3.940027e-003
2.134847e+003,3.719205e-003
2.136775e+003,3.330081e-003
2.138704e+003,3.336359e-003
2.140632e+003,3.559258e-003
2.142561e+003,3.156193e-003
2.144489e+003,2.731894e-003
2.146418e+003,2.516184e-003
2.148346e+003,2.498988e-003
2.150275e+003,2.485725e-003
2.152203e+003,1.436381e-003
2.154132e+003,-3.019118e-004
2.156060e+003,1.861869e-004
2.157989e+003,-1.204044e-003
2.159917e+003,-1.457702e-003
2.161846e+003,-2.530041e-004
2.163774e+003,7.578399e-004
2.165703e+003,7.810084e-004
2.167631e+003,1.164133e-003
2.169560e+003,7.498739e-004
2.171488e+003,6.994260e-004
2.173417e+003,8.712715e-004
2.175345e+003,1.809270e-003
2.177274e+003,1.751347e-003
2.179202e+003,1.914590e-003
2.181131e+003,2.356713e-003
2.183059e+003,1.712625e-003
2.184988e+003,1.424048e-003
2.186916e+003,1.624781e-003
2.188845e+003,2.392694e-003
2.190773e+003,2.560278e-003
2.192702e+003,2.622709e-003
2.194630e+003,3.116177e-003
2.196559e+003,2.561877e-003
2.198487e+003,2.908849e-003
2.200416e+003,3.127424e-003
2.202344e+003,3.179656e-003
2.204273e+003,3.561563e-003
2.206201e+003,3.574358e-003
2.208130e+003,3.680441e-003
2.210058e+003,3.998912e-003
2.211987e+003,3.323437e-003
2.213915e+003,2.916721e-003
2.215844e+003,3.683682e-003
2.217772e+003,4.247447e-003
2.219701e+003,3.598880e-003
2.221629e+003,3.634997e-003
2.223558e+003,4.345227e-003
2.225486e+003,4.698182e-003
2.227415e+003,4.574203e-003
2.229343e+003,4.500676e-003
2.231272e+003,4.507736e-003
2.233200e+003,4.649913e-003
2.235129e+003,4.783956e-003
2.237057e+003,4.378784e-003
2.238986e+003,4.137868e-003
2.240914e+003,4.418312e-003
2.242843e+003,4.823796e-003
2.244771e+003,4.847036e-003
2.246700e+003,4.641809e-003
2.248628e+003,4.731512e-003
2.250557e+003,4.640152e-003
2.252485e+003,4.597039e-003
2.254414e+003,4.582245e-003
2.256342e+003,4.571577e-003
2.258271e+003,4.878157e-003
2.260199e+003,5.161406e-003
2.262128e+003,5.504836e-003
2.264056e+003,5.525693e-003
2.265985e+003,5.234156e-003
2.267913e+003,5.065898e-003
2.269842e+003,5.302373e-003
2.271770e+003,5.519182e-003
2.273699e+003,5.474857e-003
2.275627e+003,5.432144e-003
2.277556e+003,5.743987e-003
2.279484e+003,5.775990e-003
2.281413e+003,5.635572e-003
2.283341e+003,5.858579e-003
2.285270e+003,6.085483e-003
2.287198e+003,5.977983e-003
2.289127e+003,5.842605e-003
2.291055e+003,5.954356e-003
2.292984e+003,6.060707e-003
2.294912e+003,5.975984e-003
2.296841e+003,6.050701e-003
2.298769e+003,6.137002e-003
2.300698e+003,6.243845e-003
2.302626e+003,6.311344e-003
2.304555e+003,6.160639e-003
2.306483e+003,6.112188e-003
2.308412e+003,6.036090e-003
2.310340e+003,5.970041e-003
2.312269e+003,6.117641e-003
2.314197e+003,6.157254e-003
2.316125e+003,6.212831e-003
2.318054e+003,6.307025e-003
2.319983e+003,6.297855e-003
2.321911e+003,6.127707e-003
2.323840e+003,6.230291e-003
2.325768e+003,6.409977e-003
2.327697e+003,6.158630e-003
2.329625e+003,6.194920e-003
2.331553e+003,6.411617e-003
2.333482e+003,6.260842e-003
2.335411e+003,6.208892e-003
2.337339e+003,6.078280e-003
2.339268e+003,6.075213e-003
2.341196e+003,6.166804e-003
2.343125e+003,6.380367e-003
2.345053e+003,6.250937e-003
2.346981e+003,6.194322e-003
2.348910e+003,6.242956e-003
2.350839e+003,6.171670e-003
2.352767e+003,6.044548e-003
2.354696e+003,6.303472e-003
2.356624e+003,6.123133e-003
2.358552e+003,6.183137e-003
2.360481e+003,6.222322e-003
2.362409e+003,6.051336e-003
2.364338e+003,6.266172e-003
2.366267e+003,6.455622e-003
2.368195e+003,6.120984e-003
2.370124e+003,6.074141e-003
2.372052e+003,6.228853e-003
2.373980e+003,6.272689e-003
2.375909e+003,6.273069e-003
2.377838e+003,6.218493e-003
2.379766e+003,6.180410e-003
2.381695e+003,6.219087e-003
2.383623e+003,6.213155e-003
2.385552e+003,6.223399e-003
2.387480e+003,6.270611e-003
2.389408e+003,6.335002e-003
2.391337e+003,6.422018e-003
2.393266e+003,6.534975e-003
2.395194e+003,6.397991e-003
2.397123e+003,6.185804e-003
2.399051e+003,6.237167e-003
2.400979e+003,6.285297e-003
2.402908e+003,6.386160e-003
2.404836e+003,6.478975e-003
2.406765e+003,6.443898e-003
2.408694e+003,6.397223e-003
2.410622e+003,6.444604e-003
2.412551e+003,6.491116e-003
2.414479e+003,6.494278e-003
2.416407e+003,6.410774e-003
2.418336e+003,6.379906e-003
2.420264e+003,6.368709e-003
2.422193e+003,6.271918e-003
2.424122e+003,6.260489e-003
2.426050e+003,6.407546e-003
2.427979e+003,6.428900e-003
2.429907e+003,6.439291e-003
2.431835e+003,6.431791e-003
2.433764e+003,6.477697e-003
2.435692e+003,6.494479e-003
2.437621e+003,6.361715e-003
2.439550e+003,6.289836e-003
2.441478e+003,6.350049e-003
2.443406e+003,6.374761e-003
2.445335e+003,6.438080e-003
2.447263e+003,6.448169e-003
2.449192e+003,6.484726e-003
2.451121e+003,6.493874e-003
2.453049e+003,6.498583e-003
2.454978e+003,6.499962e-003
2.456906e+003,6.466598e-003
2.458834e+003,6.399947e-003
2.460763e+003,6.507294e-003
2.462691e+003,6.506285e-003
2.464620e+003,6.395004e-003
2.466549e+003,6.520378e-003
2.468477e+003,6.595761e-003
2.470406e+003,6.542948e-003
2.472334e+003,6.457283e-003
2.474262e+003,6.422409e-003
2.476191e+003,6.345442e-003
2.478119e+003,6.473526e-003
2.480048e+003,6.539046e-003
2.481977e+003,6.461957e-003
2.483905e+003,6.502518e-003
2.485833e+003,6.653056e-003
2.487762e+003,6.531612e-003
2.489690e+003,6.473459e-003
2.491619e+003,6.501946e-003
2.493547e+003,6.499087e-003
2.495476e+003,6.514424e-003
2.497405e+003,6.595458e-003
2.499333e+003,6.528820e-003
2.501261e+003,6.524313e-003
2.503190e+003,6.599327e-003
2.505118e+003,6.533395e-003
2.507047e+003,6.586712e-003
2.508975e+003,6.645452e-003
2.510904e+003,6.601312e-003
2.512833e+003,6.443596e-003
2.514761e+003,6.536792e-003
2.516689e+003,6.477932e-003
2.518618e+003,6.338147e-003
2.520546e+003,6.434381e-003
2.522475e+003,6.582574e-003
2.524403e+003,6.576250e-003
2.526332e+003,6.647773e-003
2.528260e+003,6.688890e-003
2.530189e+003,6.655646e-003
2.532117e+003,6.533058e-003
2.534046e+003,6.458359e-003
2.535974e+003,6.553308e-003
2.537903e+003,6.691245e-003
2.539831e+003,6.640641e-003
2.541760e+003,6.480825e-003
2.543688e+003,6.469659e-003
2.545617e+003,6.534875e-003
2.547545e+003,6.636839e-003
2.549474e+003,6.708473e-003
2.551402e+003,6.710357e-003
2.553331e+003,6.619412e-003
2.555259e+003,6.607300e-003
2.557188e+003,6.641448e-003
2.559116e+003,6.617460e-003
2.561045e+003,6.580488e-003
2.562973e+003,6.453886e-003
2.564902e+003,6.535682e-003
2.566830e+003,6.560238e-003
2.568759e+003,6.615240e-003
2.570687e+003,6.579647e-003
2.572616e+003,6.586174e-003
2.574544e+003,6.505982e-003
2.576473e+003,6.468078e-003
2.578401e+003,6.504939e-003
2.580330e+003,6.496363e-003
2.582258e+003,6.410337e-003
2.584187e+003,6.458527e-003
2.586115e+003,6.432128e-003
2.588044e+003,6.464547e-003
2.589972e+003,6.511599e-003
2.591901e+003,6.473426e-003
2.593829e+003,6.490107e-003
2.595758e+003,6.546009e-003
2.597686e+003,6.511565e-003
2.599615e+003,6.437307e-003
2.601543e+003,6.512574e-003
2.603472e+003,6.617494e-003
2.605400e+003,6.535615e-003
2.607329e+003,6.529459e-003
2.609257e+003,6.567840e-003
2.611186e+003,6.592868e-003
2.613114e+003,6.542645e-003
2.615043e+003,6.575913e-003
2.616971e+003,6.689765e-003
2.618900e+003,6.733274e-003
2.620828e+003,6.751110e-003
2.622757e+003,6.695485e-003
2.624685e+003,6.721832e-003
2.626614e+003,6.758783e-003
2.628542e+003,6.764235e-003
2.630471e+003,6.772951e-003
2.632399e+003,6.747374e-003
2.634328e+003,6.754576e-003
2.636256e+003,6.768071e-003
2.638185e+003,6.753533e-003
2.640113e+003,6.840266e-003
2.642042e+003,6.886046e-003
2.643970e+003,6.925501e-003
2.645899e+003,6.991897e-003
2.647827e+003,6.994692e-003
2.649756e+003,7.023348e-003
2.651684e+003,7.024729e-003
2.653613e+003,7.109663e-003
2.655541e+003,7.115760e-003
2.657470e+003,7.040051e-003
2.659398e+003,7.053117e-003
2.661327e+003,7.138495e-003
2.663255e+003,7.190640e-003
2.665184e+003,7.204520e-003
2.667112e+003,7.198153e-003
2.669041e+003,7.220319e-003
2.670969e+003,7.234571e-003
2.672898e+003,7.231168e-003
2.674826e+003,7.272171e-003
2.676755e+003,7.242185e-003
2.678683e+003,7.286726e-003
2.680612e+003,7.313076e-003
2.682540e+003,7.313279e-003
2.684469e+003,7.286895e-003
2.686397e+003,7.298452e-003
2.688326e+003,7.346977e-003
2.690254e+003,7.350482e-003
2.692183e+003,7.331341e-003
2.694111e+003,7.336496e-003
2.696040e+003,7.359985e-003
2.697968e+003,7.371780e-003
2.699897e+003,7.370904e-003
2.701825e+003,7.384654e-003
2.703754e+003,7.377273e-003
2.705682e+003,7.383542e-003
2.707611e+003,7.435008e-003
2.709539e+003,7.478188e-003
2.711468e+003,7.465446e-003
2.713396e+003,7.427324e-003
2.715325e+003,7.416909e-003
2.717253e+003,7.456952e-003
2.719182e+003,7.475727e-003
2.721110e+003,7.462750e-003
2.723039e+003,7.469221e-003
2.724967e+003,7.491133e-003
2.726896e+003,7.509135e-003
2.728824e+003,7.470705e-003
2.730753e+003,7.495414e-003
2.732681e+003,7.524103e-003
2.734610e+003,7.531082e-003
2.736538e+003,7.485132e-003
2.738467e+003,7.440098e-003
2.740395e+003,7.457120e-003
2.742324e+003,7.510550e-003
2.744252e+003,7.541769e-003
2.746181e+003,7.564999e-003
2.748109e+003,7.570090e-003
2.750038e+003,7.542747e-003
2.751966e+003,7.519720e-003
2.753895e+003,7.510652e-003
2.755823e+003,7.533677e-003
2.757752e+003,7.542106e-003
2.759680e+003,7.587488e-003
2.761609e+003,7.640496e-003
2.763537e+003,7.660662e-003
2.765466e+003,7.664810e-003
2.767394e+003,7.664001e-003
2.769323e+003,7.681133e-003
2.771251e+003,7.702752e-003
2.773180e+003,7.713983e-003
2.775108e+003,7.683427e-003
2.777037e+003,7.644678e-003
2.778965e+003,7.649500e-003
2.780894e+003,7.694118e-003
2.782822e+003,7.732163e-003
2.784750e+003,7.686597e-003
2.786679e+003,7.686664e-003
2.788608e+003,7.720391e-003
2.790536e+003,7.705146e-003
2.792465e+003,7.694792e-003
2.794393e+003,7.715467e-003
2.796322e+003,7.722820e-003
2.798250e+003,7.763026e-003
2.800178e+003,7.759822e-003
2.802107e+003,7.780162e-003
2.804036e+003,7.794904e-003
2.805964e+003,7.839233e-003
2.807893e+003,7.895274e-003
2.809821e+003,7.869091e-003
2.811750e+003,7.866831e-003
2.813678e+003,7.869361e-003
2.815606e+003,7.870238e-003
2.817535e+003,7.905667e-003
2.819464e+003,7.947577e-003
2.821392e+003,7.947240e-003
2.823321e+003,7.959456e-003
2.825249e+003,8.010248e-003
2.827177e+003,8.033874e-003
2.829106e+003,8.078869e-003
2.831034e+003,8.111040e-003
2.832963e+003,8.112019e-003
2.834892e+003,8.185720e-003
2.836820e+003,8.240084e-003
2.838749e+003,8.197909e-003
2.840677e+003,8.203177e-003
2.842605e+003,8.256732e-003
2.844534e+003,8.341403e-003
2.846462e+003,8.428048e-003
2.848391e+003,8.522652e-003
2.850320e+003,8.550902e-003
2.852248e+003,8.596322e-003
2.854177e+003,8.637555e-003
2.856105e+003,8.645465e-003
2.858033e+003,8.580032e-003
2.859962e+003,8.565500e-003
2.861890e+003,8.608285e-003
2.863819e+003,8.683120e-003
2.865748e+003,8.807736e-003
2.867676e+003,8.846352e-003
2.869604e+003,8.808311e-003
2.871533e+003,8.845541e-003
2.873461e+003,8.920685e-003
2.875390e+003,8.922884e-003
2.877319e+003,8.858458e-003
2.879247e+003,8.846352e-003
2.881176e+003,8.893291e-003
2.883104e+003,8.922106e-003
2.885032e+003,8.904621e-003
2.886961e+003,8.945309e-003
2.888889e+003,8.948555e-003
2.890818e+003,8.942941e-003
2.892747e+003,8.949705e-003
2.894675e+003,8.945174e-003
2.896604e+003,8.940709e-003
2.898532e+003,8.975784e-003
2.900460e+003,9.017630e-003
2.902389e+003,8.973214e-003
2.904317e+003,8.942399e-003
2.906246e+003,8.960496e-003
2.908175e+003,8.942975e-003
2.910103e+003,8.937834e-003
2.912031e+003,8.963066e-003
2.913960e+003,8.955658e-003
2.915888e+003,8.947338e-003
2.917817e+003,8.933369e-003
2.919745e+003,8.936143e-003
2.921674e+003,8.886155e-003
2.923603e+003,8.876348e-003
2.925531e+003,8.902625e-003
2.927459e+003,8.833096e-003
2.929388e+003,8.770510e-003
2.931316e+003,8.763376e-003
2.933245e+003,8.768143e-003
2.935173e+003,8.780213e-003
2.937102e+003,8.810779e-003
2.939031e+003,8.721319e-003
2.940959e+003,8.651379e-003
2.942887e+003,8.675209e-003
2.944816e+003,8.645803e-003
2.946744e+003,8.549516e-003
2.948673e+003,8.515961e-003
2.950601e+003,8.521165e-003
2.952530e+003,8.483727e-003
2.954458e+003,8.400989e-003
2.956387e+003,8.337350e-003
2.958315e+003,8.304486e-003
2.960244e+003,8.310228e-003
2.962172e+003,8.287093e-003
2.964101e+003,8.252579e-003
2.966029e+003,8.237991e-003
2.967958e+003,8.171843e-003
2.969886e+003,8.086869e-003
2.971815e+003,8.154287e-003
2.973743e+003,8.159722e-003
2.975672e+003,8.108103e-003
2.977600e+003,8.028407e-003
2.979529e+003,7.975756e-003
2.981457e+003,7.941773e-003
2.983386e+003,7.914980e-003
2.985314e+003,7.988175e-003
2.987243e+003,7.978827e-003
2.989171e+003,7.905768e-003
2.991100e+003,7.891090e-003
2.993028e+003,7.879449e-003
2.994957e+003,7.856742e-003
2.996885e+003,7.848342e-003
2.998814e+003,7.887581e-003
3.000742e+003,7.943393e-003
3.002671e+003,7.900571e-003
3.004599e+003,7.817269e-003
3.006528e+003,7.825940e-003
3.008456e+003,7.836669e-003
3.010385e+003,7.883633e-003
3.012313e+003,7.888998e-003
3.014242e+003,7.824489e-003
3.016170e+003,7.880461e-003
3.018099e+003,7.888087e-003
3.020027e+003,7.861938e-003
3.021956e+003,7.954765e-003
3.023884e+003,7.941335e-003
3.025813e+003,7.918253e-003
3.027741e+003,7.978456e-003
3.029670e+003,8.052101e-003
3.031598e+003,8.017505e-003
3.033527e+003,7.930334e-003
3.035455e+003,7.992428e-003
3.037384e+003,8.020272e-003
3.039312e+003,8.051797e-003
3.041241e+003,8.098921e-003
3.043169e+003,8.095005e-003
3.045098e+003,8.082717e-003
3.047026e+003,8.067595e-003
3.048955e+003,8.122383e-003
3.050883e+003,8.153139e-003
3.052812e+003,8.175659e-003
3.054740e+003,8.183323e-003
3.056669e+003,8.250317e-003
3.058597e+003,8.249675e-003
3.060526e+003,8.274023e-003
3.062454e+003,8.304689e-003
3.064383e+003,8.263318e-003
3.066311e+003,8.265209e-003
3.068240e+003,8.353630e-003
3.070168e+003,8.403285e-003
3.072097e+003,8.368999e-003
3.074025e+003,8.389536e-003
3.075954e+003,8.463015e-003
3.077882e+003,8.473590e-003
3.079811e+003,8.374808e-003
3.081739e+003,8.377748e-003
3.083668e+003,8.506432e-003
3.085596e+003,8.543805e-003
3.087525e+003,8.554214e-003
3.089453e+003,8.614876e-003
3.091382e+003,8.662939e-003
3.093310e+003,8.643133e-003
3.095239e+003,8.662601e-003
3.097167e+003,8.640733e-003
3.099096e+003,8.652562e-003
3.101024e+003,8.673418e-003
3.102953e+003,8.644687e-003
3.104881e+003,8.707120e-003
3.106810e+003,8.721421e-003
3.108738e+003,8.745964e-003
3.110667e+003,8.865763e-003
3.112595e+003,8.812977e-003
3.114524e+003,8.838371e-003
3.116452e+003,8.853420e-003
3.118381e+003,8.767094e-003
3.120309e+003,8.769698e-003
3.122238e+003,8.865932e-003
3.124166e+003,8.975243e-003
3.126095e+003,9.006128e-003
3.128023e+003,9.004978e-003
3.129952e+003,9.011067e-003
3.131880e+003,9.013638e-003
3.133809e+003,9.004639e-003
3.135737e+003,9.009645e-003
3.137666e+003,9.008631e-003
3.139594e+003,9.021283e-003
3.141523e+003,9.081335e-003
3.143451e+003,9.123934e-003
3.145380e+003,9.124001e-003
3.147308e+003,9.146944e-003
3.149237e+003,9.258425e-003
3.151165e+003,9.340717e-003
3.153094e+003,9.403318e-003
3.155022e+003,9.403217e-003
3.156951e+003,9.317053e-003
3.158879e+003,9.323655e-003
3.160808e+003,9.425666e-003
3.162736e+003,9.500607e-003
3.164665e+003,9.532816e-003
3.166593e+003,9.566144e-003
3.168522e+003,9.629354e-003
3.170450e+003,9.685017e-003
3.172379e+003,9.650494e-003
3.174307e+003,9.685119e-003
3.176236e+003,9.759901e-003
3.178164e+003,9.767424e-003
3.180093e+003,9.765120e-003
3.182021e+003,9.757970e-003
3.183950e+003,9.788910e-003
3.185878e+003,9.870896e-003
3.187807e+003,9.946930e-003
3.189735e+003,9.985614e-003
3.191664e+003,9.989954e-003
3.193592e+003,1.002152e-002
3.195521e+003,1.002732e-002
3.197449e+003,1.003407e-002
3.199378e+003,1.007466e-002
3.201306e+003,1.013007e-002
3.203235e+003,1.018237e-002
3.205163e+003,1.022393e-002
3.207092e+003,1.028808e-002
3.209020e+003,1.022372e-002
3.210948e+003,1.029018e-002
3.212877e+003,1.034953e-002
3.214806e+003,1.035435e-002
3.216734e+003,1.041146e-002
3.218663e+003,1.044079e-002
3.220591e+003,1.039626e-002
3.222520e+003,1.045334e-002
3.224448e+003,1.053807e-002
3.226376e+003,1.057507e-002
3.228305e+003,1.062957e-002
3.230234e+003,1.057117e-002
3.232162e+003,1.053888e-002
3.234091e+003,1.067086e-002
3.236019e+003,1.074928e-002
3.237948e+003,1.072513e-002
3.239876e+003,1.073786e-002
3.241804e+003,1.085685e-002
3.243733e+003,1.098002e-002
3.245662e+003,1.099776e-002
3.247590e+003,1.098206e-002
3.249519e+003,1.101710e-002
3.251447e+003,1.105455e-002
3.253375e+003,1.105989e-002
3.255304e+003,1.113766e-002
3.257232e+003,1.123442e-002
3.259161e+003,1.129189e-002
3.261090e+003,1.133532e-002
3.263018e+003,1.130961e-002
3.264947e+003,1.137790e-002
3.266875e+003,1.149050e-002
3.268803e+003,1.151187e-002
3.270732e+003,1.157533e-002
3.272660e+003,1.156730e-002
3.274589e+003,1.152136e-002
3.276518e+003,1.165687e-002
3.278446e+003,1.173890e-002
3.280375e+003,1.160061e-002
3.282303e+003,1.158064e-002
3.284231e+003,1.171613e-002
3.286160e+003,1.179317e-002
3.288088e+003,1.171446e-002
3.290017e+003,1.165721e-002
3.291946e+003,1.169417e-002
3.293874e+003,1.175783e-002
3.295802e+003,1.179991e-002
3.297731e+003,1.182187e-002
3.299659e+003,1.182916e-002
3.301588e+003,1.183998e-002
3.303516e+003,1.189563e-002
3.305445e+003,1.182330e-002
3.307374e+003,1.178258e-002
3.309302e+003,1.176481e-002
3.311230e+003,1.177727e-002
3.313159e+003,1.182391e-002
3.315087e+003,1.187659e-002
3.317016e+003,1.195339e-002
3.318944e+003,1.195574e-002
3.320873e+003,1.192948e-002
3.322802e+003,1.197818e-002
3.324730e+003,1.198751e-002
3.326658e+003,1.194361e-002
3.328587e+003,1.199296e-002
3.330515e+003,1.199794e-002
3.332444e+003,1.201854e-002
3.334372e+003,1.200775e-002
3.336301e+003,1.198039e-002
3.338229e+003,1.195379e-002
3.340158e+003,1.195270e-002
3.342086e+003,1.192713e-002
3.344015e+003,1.186811e-002
3.345943e+003,1.179010e-002
3.347872e+003,1.182997e-002
3.349800e+003,1.192290e-002
3.351729e+003,1.192093e-002
3.353657e+003,1.186692e-002
3.355586e+003,1.178963e-002
3.357514e+003,1.172083e-002
3.359443e+003,1.178391e-002
3.361371e+003,1.184101e-002
3.363300e+003,1.174772e-002
3.365229e+003,1.168434e-002
3.367157e+003,1.161559e-002
3.369085e+003,1.158360e-002
3.371014e+003,1.160143e-002
3.372942e+003,1.161048e-002
3.374871e+003,1.157359e-002
3.376799e+003,1.157206e-002
3.378728e+003,1.157632e-002
3.380656e+003,1.152803e-002
3.382585e+003,1.146539e-002
3.384513e+003,1.146876e-002
3.386442e+003,1.139821e-002
3.388370e+003,1.133988e-002
3.390299e+003,1.133682e-002
3.392227e+003,1.134916e-002
3.394156e+003,1.131209e-002
3.396084e+003,1.128924e-002
3.398013e+003,1.125448e-002
3.399941e+003,1.119672e-002
3.401870e+003,1.115249e-002
3.403798e+003,1.106570e-002
3.405727e+003,1.099657e-002
3.407655e+003,1.099491e-002
3.409584e+003,1.097625e-002
3.411512e+003,1.094875e-002
3.413441e+003,1.095994e-002
3.415369e+003,1.095652e-002
3.417298e+003,1.088420e-002
3.419226e+003,1.082828e-002
3.421155e+003,1.081540e-002
3.423083e+003,1.072529e-002
3.425012e+003,1.070158e-002
3.426940e+003,1.066722e-002
3.428869e+003,1.059328e-002
3.430797e+003,1.052113e-002
3.432726e+003,1.036445e-002
3.434654e+003,1.026396e-002
3.436583e+003,1.029121e-002
3.438511e+003,1.023696e-002
3.440440e+003,1.006870e-002
3.442368e+003,1.007389e-002
3.444297e+003,1.008530e-002
3.446225e+003,9.985825e-003
3.448154e+003,9.977783e-003
3.450082e+003,9.960197e-003
3.452011e+003,9.863976e-003
3.453939e+003,9.800743e-003
3.455868e+003,9.738306e-003
3.457796e+003,9.586862e-003
3.459725e+003,9.536276e-003
3.461653e+003,9.496683e-003
3.463582e+003,9.359139e-003
3.465510e+003,9.326253e-003
3.467439e+003,9.243533e-003
3.469367e+003,9.167978e-003
3.471296e+003,9.194318e-003
3.473224e+003,9.259935e-003
3.475153e+003,9.211690e-003
3.477081e+003,9.090620e-003
3.479010e+003,9.021743e-003
3.480938e+003,9.003839e-003
3.482867e+003,8.900631e-003
3.484795e+003,8.778182e-003
3.486724e+003,8.725465e-003
3.488652e+003,8.743559e-003
3.490581e+003,8.704516e-003
3.492509e+003,8.630876e-003
3.494438e+003,8.556532e-003
3.496366e+003,8.434081e-003
3.498295e+003,8.412750e-003
3.500223e+003,8.407113e-003
3.502152e+003,8.349933e-003
3.504080e+003,8.285685e-003
3.506009e+003,8.287292e-003
3.507937e+003,8.227342e-003
3.509866e+003,8.126647e-003
3.511794e+003,8.059122e-003
3.513723e+003,8.062941e-003
3.515651e+003,8.128930e-003
3.517580e+003,8.042533e-003
3.519508e+003,7.878285e-003
3.521437e+003,7.821511e-003
3.523365e+003,7.755949e-003
3.525294e+003,7.771601e-003
3.527222e+003,7.715867e-003
3.529151e+003,7.578088e-003
3.531079e+003,7.592669e-003
3.533008e+003,7.603862e-003
3.534936e+003,7.570766e-003
3.536865e+003,7.530336e-003
3.538793e+003,7.466159e-003
3.540722e+003,7.498216e-003
3.542650e+003,7.382268e-003
3.544579e+003,7.248078e-003
3.546507e+003,7.163030e-003
3.548436e+003,7.274643e-003
3.550364e+003,7.271797e-003
3.552293e+003,7.172404e-003
3.554221e+003,7.109900e-003
3.556150e+003,6.991386e-003
3.558078e+003,6.914364e-003
3.560007e+003,6.936214e-003
3.561935e+003,6.864098e-003
3.563864e+003,6.826091e-003
3.565792e+003,6.779692e-003
3.567721e+003,6.712589e-003
3.569649e+003,6.674916e-003
3.571578e+003,6.738123e-003
3.573506e+003,6.722918e-003
3.575435e+003,6.658308e-003
3.577363e+003,6.605154e-003
3.579292e+003,6.586330e-003
3.581220e+003,6.559166e-003
3.583149e+003,6.521671e-003
3.585077e+003,6.552564e-003
3.587006e+003,6.495594e-003
3.588934e+003,6.447491e-003
3.590863e+003,6.392007e-003
3.592791e+003,6.398099e-003
3.594720e+003,6.401749e-003
3.596648e+003,6.367166e-003
3.598577e+003,6.360009e-003
3.600505e+003,6.331372e-003
3.602434e+003,6.371084e-003
3.604362e+003,6.198121e-003
3.606291e+003,6.203634e-003
3.608219e+003,6.192374e-003
3.610148e+003,6.023984e-003
3.612076e+003,5.909320e-003
3.614005e+003,5.957928e-003
3.615933e+003,5.982325e-003
3.617862e+003,6.045893e-003
3.619790e+003,6.041972e-003
3.621719e+003,5.988297e-003
3.623647e+003,6.099457e-003
3.625576e+003,6.031201e-003
3.627504e+003,6.061869e-003
3.629433e+003,6.040309e-003
3.631361e+003,5.907089e-003
3.633290e+003,5.872084e-003
3.635218e+003,5.845021e-003
3.637146e+003,5.792474e-003
3.639075e+003,5.797073e-003
3.641004e+003,5.846879e-003
3.642932e+003,5.738250e-003
3.644861e+003,5.724828e-003
3.646789e+003,5.692640e-003
3.648718e+003,5.464518e-003
3.650646e+003,5.568950e-003
3.652574e+003,5.566902e-003
3.654503e+003,5.501340e-003
3.656432e+003,5.450672e-003
3.658360e+003,5.495082e-003
3.660289e+003,5.583888e-003
3.662217e+003,5.616250e-003
3.664146e+003,5.537875e-003
3.666074e+003,5.445028e-003
3.668002e+003,5.454403e-003
3.669931e+003,5.567694e-003
3.671860e+003,5.513599e-003
3.673788e+003,5.396915e-003
3.675717e+003,5.406856e-003
3.677645e+003,5.441732e-003
3.679573e+003,5.504813e-003
3.681502e+003,5.502850e-003
3.683430e+003,5.433088e-003
3.685359e+003,5.446264e-003
3.687288e+003,5.567277e-003
3.689216e+003,5.575723e-003
3.691145e+003,5.559980e-003
3.693073e+003,5.658752e-003
3.695001e+003,5.722992e-003
3.696930e+003,5.575742e-003
3.698858e+003,5.572212e-003
3.700787e+003,5.671583e-003
3.702716e+003,5.744237e-003
3.704644e+003,5.667920e-003
3.706573e+003,5.624699e-003
3.708501e+003,5.613522e-003
3.710429e+003,5.561297e-003
3.712358e+003,5.531670e-003
3.714286e+003,5.513549e-003
3.716215e+003,5.454009e-003
3.718144e+003,5.481501e-003
3.720072e+003,5.567722e-003
3.722000e+003,5.600566e-003
3.723929e+003,5.626129e-003
3.725857e+003,5.810244e-003
3.727786e+003,5.867742e-003
3.729714e+003,5.728145e-003
3.731643e+003,5.618415e-003
3.733572e+003,5.601719e-003
3.735500e+003,5.616438e-003
3.737428e+003,5.721991e-003
3.739357e+003,5.597115e-003
3.741285e+003,5.559334e-003
3.743214e+003,5.551310e-003
3.745142e+003,5.470587e-003
3.747071e+003,5.496422e-003
3.749000e+003,5.544746e-003
3.750928e+003,5.528441e-003
3.752856e+003,5.598371e-003
3.754785e+003,5.557693e-003
3.756713e+003,5.468571e-003
3.758642e+003,5.405304e-003
3.760570e+003,5.460487e-003
3.762499e+003,5.532459e-003
3.764427e+003,5.492195e-003
3.766356e+003,5.445984e-003
3.768284e+003,5.392263e-003
3.770213e+003,5.437785e-003
3.772141e+003,5.479540e-003
3.774070e+003,5.425430e-003
3.775998e+003,5.481995e-003
3.777927e+003,5.541093e-003
3.779855e+003,5.484041e-003
3.781784e+003,5.440843e-003
3.783712e+003,5.424226e-003
3.785641e+003,5.382920e-003
3.787569e+003,5.445426e-003
3.789498e+003,5.488774e-003
3.791426e+003,5.583947e-003
3.793355e+003,5.665286e-003
3.795283e+003,5.629635e-003
3.797212e+003,5.550139e-003
3.799140e+003,5.521425e-003
3.801069e+003,5.541237e-003
3.802997e+003,5.566778e-003
3.804926e+003,5.612579e-003
3.806854e+003,5.548434e-003
3.808783e+003,5.509761e-003
3.810711e+003,5.558548e-003
3.812640e+003,5.560799e-003
3.814568e+003,5.521635e-003
3.816497e+003,5.505458e-003
3.818425e+003,5.496269e-003
3.820354e+003,5.586668e-003
3.822282e+003,5.669257e-003
3.824211e+003,5.639331e-003
3.826139e+003,5.566612e-003
3.828068e+003,5.587030e-003
3.829996e+003,5.552413e-003
3.831925e+003,5.584111e-003
3.833853e+003,5.653564e-003
3.835782e+003,5.678811e-003
3.837710e+003,5.705190e-003
3.839639e+003,5.634884e-003
3.841567e+003,5.549941e-003
3.843496e+003,5.580240e-003
3.845424e+003,5.682901e-003
3.847353e+003,5.683755e-003
3.849281e+003,5.684392e-003
3.851210e+003,5.701465e-003
3.853138e+003,5.690545e-003
3.855067e+003,5.686672e-003
3.856995e+003,5.652876e-003
3.858924e+003,5.624667e-003
3.860852e+003,5.630190e-003
3.862781e+003,5.749549e-003
3.864709e+003,5.811127e-003
3.866638e+003,5.730079e-003
3.868566e+003,5.697090e-003
3.870495e+003,5.747066e-003
3.872423e+003,5.728029e-003
3.874352e+003,5.679871e-003
3.876280e+003,5.728079e-003
3.878209e+003,5.785610e-003
3.880137e+003,5.652159e-003
3.882066e+003,5.694047e-003
3.883994e+003,5.768122e-003
3.885923e+003,5.725747e-003
3.887851e+003,5.654971e-003
3.889780e+003,5.654093e-003
3.891708e+003,5.656313e-003
3.893637e+003,5.669797e-003
3.895565e+003,5.648183e-003
3.897494e+003,5.633576e-003
3.899422e+003,5.743199e-003
3.901351e+003,5.781004e-003
3.903279e+003,5.795539e-003
3.905208e+003,5.785826e-003
3.907136e+003,5.773670e-003
3.909065e+003,5.776640e-003
3.910993e+003,5.811072e-003
3.912922e+003,5.792941e-003
3.914850e+003,5.825258e-003
3.916779e+003,5.730434e-003
3.918707e+003,5.681629e-003
3.920636e+003,5.719671e-003
3.922564e+003,5.758657e-003
3.924493e+003,5.800174e-003
3.926421e+003,5.759221e-003
3.928350e+003,5.754944e-003
3.930278e+003,5.736798e-003
3.932207e+003,5.706446e-003
3.934135e+003,5.724217e-003
3.936064e+003,5.692739e-003
3.937992e+003,5.736278e-003
3.939921e+003,5.753554e-003
3.941849e+003,5.764705e-003
3.943778e+003,5.776281e-003
3.945706e+003,5.820470e-003
3.947635e+003,5.829873e-003
3.949563e+003,5.816761e-003
3.951492e+003,5.849007e-003
3.953420e+003,5.893955e-003
3.955349e+003,5.870244e-003
3.957277e+003,5.812409e-003
3.959206e+003,5.739724e-003
3.961134e+003,5.708973e-003
3.963063e+003,5.775703e-003
3.964991e+003,5.860420e-003
3.966920e+003,5.842835e-003
3.968848e+003,5.833738e-003
3.970777e+003,5.849893e-003
3.972705e+003,5.873971e-003
3.974634e+003,5.877961e-003
3.976562e+003,5.858370e-003
3.978491e+003,5.926277e-003
3.980419e+003,5.938296e-003
3.982348e+003,5.861177e-003
3.984276e+003,5.853690e-003
3.986205e+003,5.935854e-003
3.988133e+003,5.935142e-003
3.990062e+003,5.858230e-003
3.991990e+003,5.794854e-003
3.993919e+003,5.740889e-003
3.995847e+003,5.735657e-003
3.997776e+003,5.719573e-003
3.999704e+003,5.719656e-003
4.001633e+003,0.000000e+000
