3.991989e+002,3.020898e-002
4.011274e+002,2.766809e-002
4.030559e+002,2.766809e-002
4.049844e+002,2.621923e-002
4.069129e+002,2.759299e-002
4.088414e+002,2.777080e-002
4.107699e+002,2.777644e-002
4.126984e+002,2.770844e-002
4.146269e+002,2.852568e-002
4.165554e+002,2.927831e-002
4.184839e+002,3.069171e-002
4.204124e+002,3.095898e-002
4.223409e+002,3.015459e-002
4.242694e+002,3.000629e-002
4.261979e+002,3.010025e-002
4.281264e+002,2.958317e-002
4.300549e+002,2.908365e-002
4.319834e+002,2.926281e-002
4.339119e+002,3.097881e-002
4.358404e+002,3.150324e-002
4.377689e+002,3.054226e-002
4.396974e+002,3.094715e-002
4.416259e+002,3.131616e-002
4.435544e+002,3.119603e-002
4.454829e+002,3.125463e-002
4.474114e+002,3.106896e-002
4.493399e+002,3.135497e-002
4.512684e+002,3.142455e-002
4.531969e+002,3.084922e-002
4.551254e+002,3.016770e-002
4.570539e+002,2.971477e-002
4.589824e+002,2.948765e-002
4.609109e+002,2.950366e-002
4.628394e+002,2.965391e-002
4.647679e+002,2.976105e-002
4.666964e+002,2.980110e-002
4.686249e+002,2.992203e-002
4.705533e+002,2.916992e-002
4.724819e+002,2.924415e-002
4.744103e+002,2.933237e-002
4.763389e+002,2.889802e-002
4.782673e+002,2.877428e-002
4.801959e+002,2.863272e-002
4.821243e+002,2.833484e-002
4.840529e+002,2.831388e-002
4.859813e+002,2.832834e-002
4.879099e+002,2.825999e-002
4.898383e+002,2.831528e-002
4.917668e+002,2.815614e-002
4.936953e+002,2.764520e-002
4.956238e+002,2.776413e-002
4.975523e+002,2.771140e-002
4.994808e+002,2.745077e-002
5.014093e+002,2.747358e-002
5.033378e+002,2.747222e-002
5.052663e+002,2.753950e-002
5.071948e+002,2.776446e-002
5.091233e+002,2.766244e-002
5.110518e+002,2.753493e-002
5.129803e+002,2.770445e-002
5.149088e+002,2.774784e-002
5.168373e+002,2.813225e-002
5.187658e+002,2.817675e-002
5.206943e+002,2.810702e-002
5.226228e+002,2.854403e-002
5.245513e+002,2.837110e-002
5.264798e+002,2.826916e-002
5.284083e+002,2.836318e-002
5.303368e+002,2.834320e-002
5.322653e+002,2.808157e-002
5.341938e+002,2.784215e-002
5.361223e+002,2.783783e-002
5.380508e+002,2.813603e-002
5.399792e+002,2.784017e-002
5.419078e+002,2.716330e-002
5.438363e+002,2.742244e-002
5.457648e+002,2.788209e-002
5.476932e+002,2.810455e-002
5.496218e+002,2.812714e-002
5.515503e+002,2.784004e-002
5.534788e+002,2.828814e-002
5.554072e+002,2.840166e-002
5.573358e+002,2.869253e-002
5.592643e+002,2.916440e-002
5.611927e+002,2.870785e-002
5.631212e+002,2.852484e-002
5.650497e+002,2.841325e-002
5.669783e+002,2.800648e-002
5.689067e+002,2.799646e-002
5.708352e+002,2.765883e-002
5.727637e+002,2.753164e-002
5.746923e+002,2.738030e-002
5.766207e+002,2.736655e-002
5.785492e+002,2.711922e-002
5.804777e+002,2.712059e-002
5.824063e+002,2.723019e-002
5.843347e+002,2.702636e-002
5.862632e+002,2.688818e-002
5.881917e+002,2.689581e-002
5.901202e+002,2.701674e-002
5.920487e+002,2.717824e-002
5.939772e+002,2.712335e-002
5.959057e+002,2.682075e-002
5.978342e+002,2.662607e-002
5.997627e+002,2.662661e-002
6.016912e+002,2.674540e-002
6.036197e+002,2.680897e-002
6.055482e+002,2.684815e-002
6.074767e+002,2.665630e-002
6.094052e+002,2.640318e-002
6.113337e+002,2.610902e-002
6.132622e+002,2.583366e-002
6.151907e+002,2.557715e-002
6.171192e+002,2.551889e-002
6.190477e+002,2.525784e-002
6.209762e+002,2.489416e-002
6.229047e+002,2.449281e-002
6.248332e+002,2.423093e-002
6.267617e+002,2.400560e-002
6.286902e+002,2.390384e-002
6.306187e+002,2.385470e-002
6.325472e+002,2.348212e-002
6.344756e+002,2.337959e-002
6.364042e+002,2.344885e-002
6.383326e+002,2.343429e-002
6.402612e+002,2.336497e-002
6.421896e+002,2.325489e-002
6.441182e+002,2.289851e-002
6.460466e+002,2.282500e-002
6.479752e+002,2.275147e-002
6.499036e+002,2.268904e-002
6.518322e+002,2.251399e-002
6.537606e+002,2.231237e-002
6.556891e+002,2.209724e-002
6.576177e+002,2.219545e-002
6.595461e+002,2.237910e-002
6.614746e+002,2.248245e-002
6.634031e+002,2.254957e-002
6.653317e+002,2.269203e-002
6.672601e+002,2.234854e-002
6.691886e+002,2.211691e-002
6.711171e+002,2.178437e-002
6.730457e+002,2.132405e-002
6.749741e+002,2.096048e-002
6.769026e+002,2.042329e-002
6.788311e+002,2.008999e-002
6.807596e+002,1.982900e-002
6.826881e+002,1.942304e-002
6.846166e+002,1.913597e-002
6.865451e+002,1.905607e-002
6.884736e+002,1.905186e-002
6.904021e+002,1.898245e-002
6.923306e+002,1.903216e-002
6.942591e+002,1.903093e-002
6.961876e+002,1.882316e-002
6.981161e+002,1.878512e-002
7.000446e+002,1.891664e-002
7.019731e+002,1.875559e-002
7.039016e+002,1.857018e-002
7.058301e+002,1.842396e-002
7.077585e+002,1.821204e-002
7.096871e+002,1.808484e-002
7.116156e+002,1.794523e-002
7.135441e+002,1.788456e-002
7.154725e+002,1.788937e-002
7.174011e+002,1.771600e-002
7.193296e+002,1.769620e-002
7.212581e+002,1.749328e-002
7.231865e+002,1.730346e-002
7.251151e+002,1.726733e-002
7.270436e+002,1.716467e-002
7.289720e+002,1.689711e-002
7.309005e+002,1.675474e-002
7.328290e+002,1.680191e-002
7.347576e+002,1.661179e-002
7.366860e+002,1.640792e-002
7.386145e+002,1.631934e-002
7.405430e+002,1.627704e-002
7.424716e+002,1.620169e-002
7.444000e+002,1.619055e-002
7.463285e+002,1.622978e-002
7.482570e+002,1.612902e-002
7.501855e+002,1.588768e-002
7.521140e+002,1.568738e-002
7.540425e+002,1.556125e-002
7.559710e+002,1.541493e-002
7.578995e+002,1.538474e-002
7.598280e+002,1.536183e-002
7.617565e+002,1.520574e-002
7.636850e+002,1.513574e-002
7.656135e+002,1.519620e-002
7.675420e+002,1.504278e-002
7.694705e+002,1.490442e-002
7.713990e+002,1.491310e-002
7.733275e+002,1.490010e-002
7.752560e+002,1.481541e-002
7.771844e+002,1.479268e-002
7.791130e+002,1.477074e-002
7.810415e+002,1.470078e-002
7.829700e+002,1.475779e-002
7.848984e+002,1.475007e-002
7.868270e+002,1.469170e-002
7.887555e+002,1.463875e-002
7.906840e+002,1.460664e-002
7.926124e+002,1.453133e-002
7.945410e+002,1.442212e-002
7.964695e+002,1.449299e-002
7.983979e+002,1.459568e-002
8.003264e+002,1.460188e-002
8.022549e+002,1.461113e-002
8.041835e+002,1.450402e-002
8.061119e+002,1.441551e-002
8.080404e+002,1.440958e-002
8.099689e+002,1.449162e-002
8.118975e+002,1.455062e-002
8.138259e+002,1.445952e-002
8.157545e+002,1.441691e-002
8.176830e+002,1.433409e-002
8.196115e+002,1.434327e-002
8.215399e+002,1.432208e-002
8.234684e+002,1.430934e-002
8.253970e+002,1.441136e-002
8.273254e+002,1.441931e-002
8.292539e+002,1.433560e-002
8.311824e+002,1.439732e-002
8.331110e+002,1.441612e-002
8.350394e+002,1.437869e-002
8.369679e+002,1.443835e-002
8.388964e+002,1.441657e-002
8.408250e+002,1.437519e-002
8.427534e+002,1.434136e-002
8.446819e+002,1.425099e-002
8.466104e+002,1.416646e-002
8.485389e+002,1.418515e-002
8.504674e+002,1.422011e-002
8.523959e+002,1.425835e-002
8.543244e+002,1.427910e-002
8.562529e+002,1.425212e-002
8.581814e+002,1.432855e-002
8.601099e+002,1.443941e-002
8.620384e+002,1.451320e-002
8.639669e+002,1.444072e-002
8.658954e+002,1.439859e-002
8.678239e+002,1.457793e-002
8.697524e+002,1.471371e-002
8.716809e+002,1.476163e-002
8.736094e+002,1.489355e-002
8.755378e+002,1.501434e-002
8.774664e+002,1.504082e-002
8.793949e+002,1.516717e-002
8.813234e+002,1.533976e-002
8.832518e+002,1.556156e-002
8.851804e+002,1.591093e-002
8.871089e+002,1.620304e-002
8.890374e+002,1.645656e-002
8.909658e+002,1.679856e-002
8.928943e+002,1.710860e-002
8.948229e+002,1.739535e-002
8.967513e+002,1.746526e-002
8.986798e+002,1.742159e-002
9.006083e+002,1.719684e-002
9.025369e+002,1.701211e-002
9.044653e+002,1.680466e-002
9.063938e+002,1.657702e-002
9.083223e+002,1.642817e-002
9.102509e+002,1.640590e-002
9.121793e+002,1.634542e-002
9.141078e+002,1.633441e-002
9.160364e+002,1.645188e-002
9.179648e+002,1.655696e-002
9.198933e+002,1.655981e-002
9.218218e+002,1.669790e-002
9.237504e+002,1.685015e-002
9.256788e+002,1.695350e-002
9.276073e+002,1.710185e-002
9.295358e+002,1.726710e-002
9.314644e+002,1.745408e-002
9.333928e+002,1.774592e-002
9.353213e+002,1.795414e-002
9.372498e+002,1.811302e-002
9.391783e+002,1.840118e-002
9.411068e+002,1.876039e-002
9.430353e+002,1.910103e-002
9.449637e+002,1.951661e-002
9.468923e+002,1.998778e-002
9.488208e+002,2.037098e-002
9.507493e+002,2.080564e-002
9.526777e+002,2.126260e-002
9.546063e+002,2.176511e-002
9.565348e+002,2.233067e-002
9.584633e+002,2.296526e-002
9.603917e+002,2.346352e-002
9.623203e+002,2.390129e-002
9.642488e+002,2.429731e-002
9.661772e+002,2.474266e-002
9.681057e+002,2.527514e-002
9.700343e+002,2.574367e-002
9.719628e+002,2.616784e-002
9.738912e+002,2.663714e-002
9.758197e+002,2.718097e-002
9.777483e+002,2.783138e-002
9.796768e+002,2.849356e-002
9.816052e+002,2.924587e-002
9.835337e+002,2.994653e-002
9.854623e+002,3.061798e-002
9.873907e+002,3.120314e-002
9.893192e+002,3.168550e-002
9.912477e+002,3.199198e-002
9.931763e+002,3.215141e-002
9.951047e+002,3.219494e-002
9.970332e+002,3.227117e-002
9.989617e+002,3.255992e-002
1.000890e+003,3.295838e-002
1.002819e+003,3.334208e-002
1.004747e+003,3.372239e-002
1.006676e+003,3.415880e-002
1.008604e+003,3.459723e-002
1.010533e+003,3.500536e-002
1.012461e+003,3.547377e-002
1.014390e+003,3.599657e-002
1.016318e+003,3.658787e-002
1.018247e+003,3.722979e-002
1.020175e+003,3.782031e-002
1.022104e+003,3.837754e-002
1.024032e+003,3.898409e-002
1.025961e+003,3.959501e-002
1.027889e+003,4.026880e-002
1.029818e+003,4.080021e-002
1.031746e+003,4.118059e-002
1.033675e+003,4.139634e-002
1.035603e+003,4.142787e-002
1.037532e+003,4.117050e-002
1.039460e+003,4.071964e-002
1.041389e+003,4.024645e-002
1.043317e+003,3.986997e-002
1.045246e+003,3.955824e-002
1.047174e+003,3.924119e-002
1.049103e+003,3.893799e-002
1.051031e+003,3.866506e-002
1.052960e+003,3.832408e-002
1.054888e+003,3.786470e-002
1.056817e+003,3.723780e-002
1.058745e+003,3.659313e-002
1.060674e+003,3.588923e-002
1.062602e+003,3.518867e-002
1.064531e+003,3.446811e-002
1.066459e+003,3.374462e-002
1.068388e+003,3.303832e-002
1.070316e+003,3.246540e-002
1.072245e+003,3.194651e-002
1.074173e+003,3.141816e-002
1.076102e+003,3.080522e-002
1.078030e+003,3.023999e-002
1.079959e+003,2.972830e-002
1.081887e+003,2.917942e-002
1.083816e+003,2.865085e-002
1.085744e+003,2.824483e-002
1.087673e+003,2.790663e-002
1.089601e+003,2.768660e-002
1.091530e+003,2.745605e-002
1.093458e+003,2.719596e-002
1.095387e+003,2.695926e-002
1.097315e+003,2.681360e-002
1.099244e+003,2.674164e-002
1.101172e+003,2.670112e-002
1.103101e+003,2.663104e-002
1.105029e+003,2.654072e-002
1.106958e+003,2.623580e-002
1.108886e+003,2.587631e-002
1.110815e+003,2.535739e-002
1.112743e+003,2.469110e-002
1.114672e+003,2.399019e-002
1.116600e+003,2.338941e-002
1.118529e+003,2.285621e-002
1.120457e+003,2.236963e-002
1.122386e+003,2.183029e-002
1.124314e+003,2.126778e-002
1.126243e+003,2.068563e-002
1.128171e+003,2.006811e-002
1.130100e+003,1.945298e-002
1.132028e+003,1.889825e-002
1.133957e+003,1.834605e-002
1.135885e+003,1.790220e-002
1.137814e+003,1.759849e-002
1.139742e+003,1.741952e-002
1.141671e+003,1.729758e-002
1.143599e+003,1.730124e-002
1.145528e+003,1.744246e-002
1.147456e+003,1.768383e-002
1.149385e+003,1.792144e-002
1.151313e+003,1.818076e-002
1.153242e+003,1.846441e-002
1.155170e+003,1.876942e-002
1.157099e+003,1.900572e-002
1.159027e+003,1.912544e-002
1.160956e+003,1.905162e-002
1.162884e+003,1.885565e-002
1.164813e+003,1.852578e-002
1.166741e+003,1.802279e-002
1.168670e+003,1.732175e-002
1.170598e+003,1.661723e-002
1.172526e+003,1.590925e-002
1.174455e+003,1.524153e-002
1.176384e+003,1.465095e-002
1.178312e+003,1.413236e-002
1.180240e+003,1.367150e-002
1.182169e+003,1.328730e-002
1.184098e+003,1.303422e-002
1.186026e+003,1.282731e-002
1.187954e+003,1.268532e-002
1.189883e+003,1.260064e-002
1.191812e+003,1.262025e-002
1.193740e+003,1.273501e-002
1.195668e+003,1.290972e-002
1.197597e+003,1.306909e-002
1.199526e+003,1.325948e-002
1.201454e+003,1.338469e-002
1.203382e+003,1.344130e-002
1.205311e+003,1.347427e-002
1.207240e+003,1.353872e-002
1.209168e+003,1.360508e-002
1.211096e+003,1.368611e-002
1.213025e+003,1.382202e-002
1.214953e+003,1.399527e-002
1.216882e+003,1.418932e-002
1.218810e+003,1.442399e-002
1.220739e+003,1.468760e-002
1.222667e+003,1.492431e-002
1.224596e+003,1.517873e-002
1.226524e+003,1.547301e-002
1.228453e+003,1.569621e-002
1.230381e+003,1.585213e-002
1.232310e+003,1.602716e-002
1.234238e+003,1.618508e-002
1.236167e+003,1.623685e-002
1.238095e+003,1.624871e-002
1.240024e+003,1.624421e-002
1.241952e+003,1.620528e-002
1.243881e+003,1.610848e-002
1.245809e+003,1.600221e-002
1.247738e+003,1.586397e-002
1.249666e+003,1.562981e-002
1.251595e+003,1.543150e-002
1.253523e+003,1.525817e-002
1.255452e+003,1.503973e-002
1.257380e+003,1.480056e-002
1.259309e+003,1.458528e-002
1.261237e+003,1.430940e-002
1.263166e+003,1.403562e-002
1.265094e+003,1.376380e-002
1.267023e+003,1.349260e-002
1.268951e+003,1.324563e-002
1.270880e+003,1.301729e-002
1.272808e+003,1.279809e-002
1.274737e+003,1.256539e-002
1.276665e+003,1.238953e-002
1.278594e+003,1.222589e-002
1.280522e+003,1.210429e-002
1.282451e+003,1.197112e-002
1.284379e+003,1.187393e-002
1.286308e+003,1.176199e-002
1.288236e+003,1.165650e-002
1.290165e+003,1.158140e-002
1.292093e+003,1.158784e-002
1.294022e+003,1.164049e-002
1.295950e+003,1.169329e-002
1.297879e+003,1.180524e-002
1.299807e+003,1.196247e-002
1.301736e+003,1.209362e-002
1.303664e+003,1.220760e-002
1.305593e+003,1.236106e-002
1.307521e+003,1.251697e-002
1.309450e+003,1.267808e-002
1.311378e+003,1.280963e-002
1.313307e+003,1.293320e-002
1.315235e+003,1.299694e-002
1.317164e+003,1.304021e-002
1.319092e+003,1.299937e-002
1.321021e+003,1.290918e-002
1.322949e+003,1.280664e-002
1.324878e+003,1.274934e-002
1.326806e+003,1.271260e-002
1.328735e+003,1.266222e-002
1.330663e+003,1.263983e-002
1.332592e+003,1.261591e-002
1.334520e+003,1.256840e-002
1.336449e+003,1.250065e-002
1.338377e+003,1.240633e-002
1.340306e+003,1.233260e-002
1.342234e+003,1.228192e-002
1.344163e+003,1.224229e-002
1.346091e+003,1.220979e-002
1.348020e+003,1.221405e-002
1.349948e+003,1.228123e-002
1.351877e+003,1.237745e-002
1.353805e+003,1.248526e-002
1.355734e+003,1.261136e-002
1.357662e+003,1.273716e-002
1.359591e+003,1.289257e-002
1.361519e+003,1.303193e-002
1.363448e+003,1.315479e-002
1.365376e+003,1.328069e-002
1.367305e+003,1.334491e-002
1.369233e+003,1.337566e-002
1.371162e+003,1.332017e-002
1.373090e+003,1.321416e-002
1.375019e+003,1.313654e-002
1.376947e+003,1.296456e-002
1.378876e+003,1.275016e-002
1.380804e+003,1.248512e-002
1.382733e+003,1.224048e-002
1.384661e+003,1.203929e-002
1.386590e+003,1.182504e-002
1.388518e+003,1.162791e-002
1.390447e+003,1.149445e-002
1.392375e+003,1.139016e-002
1.394304e+003,1.130247e-002
1.396232e+003,1.125160e-002
1.398161e+003,1.125064e-002
1.400089e+003,1.124792e-002
1.402018e+003,1.126953e-002
1.403946e+003,1.126512e-002
1.405875e+003,1.130471e-002
1.407803e+003,1.134950e-002
1.409732e+003,1.143255e-002
1.411660e+003,1.154360e-002
1.413589e+003,1.163424e-002
1.415517e+003,1.169082e-002
1.417446e+003,1.177171e-002
1.419374e+003,1.187545e-002
1.421303e+003,1.193488e-002
1.423231e+003,1.190907e-002
1.425160e+003,1.195131e-002
1.427088e+003,1.190540e-002
1.429017e+003,1.180352e-002
1.430945e+003,1.172255e-002
1.432874e+003,1.162617e-002
1.434802e+003,1.146281e-002
1.436731e+003,1.133846e-002
1.438659e+003,1.129622e-002
1.440588e+003,1.125012e-002
1.442516e+003,1.115176e-002
1.444445e+003,1.110838e-002
1.446373e+003,1.112272e-002
1.448302e+003,1.112740e-002
1.450230e+003,1.112461e-002
1.452159e+003,1.110053e-002
1.454087e+003,1.107157e-002
1.456016e+003,1.103001e-002
1.457944e+003,1.094970e-002
1.459873e+003,1.089510e-002
1.461801e+003,1.085308e-002
1.463730e+003,1.075383e-002
1.465658e+003,1.056820e-002
1.467587e+003,1.032144e-002
1.469515e+003,1.001776e-002
1.471444e+003,9.637888e-003
1.473372e+003,9.360719e-003
1.475301e+003,9.134517e-003
1.477229e+003,8.950148e-003
1.479158e+003,8.841309e-003
1.481086e+003,8.773904e-003
1.483015e+003,8.766997e-003
1.484943e+003,8.814371e-003
1.486872e+003,8.851732e-003
1.488800e+003,8.888838e-003
1.490729e+003,9.049573e-003
1.492657e+003,9.234492e-003
1.494586e+003,9.370761e-003
1.496514e+003,9.527709e-003
1.498443e+003,9.652926e-003
1.500371e+003,9.785093e-003
1.502300e+003,9.887677e-003
1.504228e+003,9.982303e-003
1.506157e+003,1.003787e-002
1.508085e+003,1.014585e-002
1.510014e+003,1.019858e-002
1.511942e+003,1.021832e-002
1.513871e+003,1.023175e-002
1.515799e+003,1.015756e-002
1.517728e+003,1.000933e-002
1.519656e+003,9.931501e-003
1.521585e+003,9.800411e-003
1.523513e+003,9.619532e-003
1.525442e+003,9.534556e-003
1.527370e+003,9.531920e-003
1.529299e+003,9.522453e-003
1.531227e+003,9.483599e-003
1.533156e+003,9.417722e-003
1.535084e+003,9.425275e-003
1.537013e+003,9.449518e-003
1.538941e+003,9.459872e-003
1.540870e+003,9.433822e-003
1.542798e+003,9.400165e-003
1.544727e+003,9.418138e-003
1.546655e+003,9.401155e-003
1.548584e+003,9.329581e-003
1.550512e+003,9.304775e-003
1.552441e+003,9.282269e-003
1.554369e+003,9.263362e-003
1.556298e+003,9.240821e-003
1.558226e+003,9.216079e-003
1.560155e+003,9.258153e-003
1.562083e+003,9.217751e-003
1.564012e+003,9.215228e-003
1.565940e+003,9.233532e-003
1.567869e+003,9.224622e-003
1.569797e+003,9.247822e-003
1.571726e+003,9.313048e-003
1.573654e+003,9.391781e-003
1.575583e+003,9.568353e-003
1.577511e+003,9.687836e-003
1.579440e+003,9.753537e-003
1.581368e+003,9.893412e-003
1.583297e+003,1.005415e-002
1.585225e+003,1.022170e-002
1.587154e+003,1.037699e-002
1.589082e+003,1.052970e-002
1.591010e+003,1.067006e-002
1.592939e+003,1.077933e-002
1.594868e+003,1.087596e-002
1.596796e+003,1.093294e-002
1.598724e+003,1.095707e-002
1.600653e+003,1.099229e-002
1.602582e+003,1.103766e-002
1.604510e+003,1.108732e-002
1.606438e+003,1.109941e-002
1.608367e+003,1.110822e-002
1.610296e+003,1.118172e-002
1.612224e+003,1.129268e-002
1.614152e+003,1.138031e-002
1.616081e+003,1.151755e-002
1.618010e+003,1.166867e-002
1.619938e+003,1.175121e-002
1.621866e+003,1.182941e-002
1.623795e+003,1.191001e-002
1.625724e+003,1.198170e-002
1.627652e+003,1.202779e-002
1.629580e+003,1.204189e-002
1.631509e+003,1.198903e-002
1.633438e+003,1.192698e-002
1.635366e+003,1.185002e-002
1.637294e+003,1.176565e-002
1.639223e+003,1.165940e-002
1.641151e+003,1.158228e-002
1.643080e+003,1.154257e-002
1.645008e+003,1.152901e-002
1.646937e+003,1.147002e-002
1.648865e+003,1.145950e-002
1.650794e+003,1.147184e-002
1.652722e+003,1.141226e-002
1.654651e+003,1.135221e-002
1.656579e+003,1.119856e-002
1.658508e+003,1.106238e-002
1.660436e+003,1.091466e-002
1.662365e+003,1.070685e-002
1.664293e+003,1.058950e-002
1.666222e+003,1.043936e-002
1.668150e+003,1.023314e-002
1.670079e+003,1.004654e-002
1.672007e+003,9.933913e-003
1.673936e+003,9.776818e-003
1.675864e+003,9.663801e-003
1.677793e+003,9.539916e-003
1.679721e+003,9.429647e-003
1.681650e+003,9.268500e-003
1.683578e+003,9.172733e-003
1.685507e+003,9.196355e-003
1.687435e+003,9.037841e-003
1.689364e+003,8.933530e-003
1.691292e+003,8.874847e-003
1.693221e+003,8.883444e-003
1.695149e+003,8.893083e-003
1.697078e+003,8.870481e-003
1.699006e+003,8.737105e-003
1.700935e+003,8.661056e-003
1.702863e+003,8.636213e-003
1.704792e+003,8.616631e-003
1.706720e+003,8.643241e-003
1.708649e+003,8.694013e-003
1.710577e+003,8.747041e-003
1.712506e+003,8.855747e-003
1.714434e+003,8.910134e-003
1.716363e+003,9.012321e-003
1.718291e+003,9.092667e-003
1.720220e+003,9.176895e-003
1.722148e+003,9.302312e-003
1.724077e+003,9.409660e-003
1.726005e+003,9.463969e-003
1.727934e+003,9.484347e-003
1.729862e+003,9.501734e-003
1.731791e+003,9.533035e-003
1.733719e+003,9.440263e-003
1.735648e+003,9.322671e-003
1.737576e+003,9.177244e-003
1.739505e+003,9.060277e-003
1.741433e+003,8.811937e-003
1.743362e+003,8.509848e-003
1.745290e+003,8.217702e-003
1.747219e+003,7.965872e-003
1.749147e+003,7.794291e-003
1.751076e+003,7.637924e-003
1.753004e+003,7.413043e-003
1.754933e+003,7.184385e-003
1.756861e+003,7.037627e-003
1.758790e+003,6.895881e-003
1.760718e+003,6.720852e-003
1.762647e+003,6.600055e-003
1.764575e+003,6.525524e-003
1.766504e+003,6.456314e-003
1.768432e+003,6.414561e-003
1.770361e+003,6.347117e-003
1.772289e+003,6.307920e-003
1.774218e+003,6.313436e-003
1.776146e+003,6.250616e-003
1.778075e+003,6.220430e-003
1.780003e+003,6.199108e-003
1.781932e+003,6.222503e-003
1.783860e+003,6.205843e-003
1.785789e+003,6.175669e-003
1.787717e+003,6.169615e-003
1.789646e+003,6.169005e-003
1.791574e+003,6.136524e-003
1.793503e+003,6.143400e-003
1.795431e+003,6.168375e-003
1.797360e+003,6.198407e-003
1.799288e+003,6.202841e-003
1.801217e+003,6.152833e-003
1.803145e+003,6.140507e-003
1.805074e+003,6.156267e-003
1.807002e+003,6.114030e-003
1.808931e+003,6.109689e-003
1.810859e+003,6.077712e-003
1.812788e+003,6.092296e-003
1.814716e+003,6.110030e-003
1.816645e+003,6.093683e-003
1.818573e+003,6.114267e-003
1.820502e+003,6.083814e-003
1.822430e+003,6.041121e-003
1.824359e+003,6.040028e-003
1.826287e+003,6.068246e-003
1.828216e+003,6.066239e-003
1.830144e+003,6.065786e-003
1.832073e+003,6.109150e-003
1.834001e+003,5.992805e-003
1.835930e+003,5.929605e-003
1.837858e+003,5.839413e-003
1.839787e+003,5.898396e-003
1.841715e+003,5.865340e-003
1.843644e+003,5.818295e-003
1.845572e+003,5.874764e-003
1.847501e+003,5.852652e-003
1.849429e+003,5.799572e-003
1.851358e+003,5.791008e-003
1.853286e+003,5.862649e-003
1.855215e+003,5.965053e-003
1.857143e+003,5.936925e-003
1.859072e+003,5.795870e-003
1.861000e+003,5.742178e-003
1.862929e+003,5.788458e-003
1.864857e+003,5.751185e-003
1.866786e+003,5.802813e-003
1.868714e+003,5.773604e-003
1.870643e+003,5.696238e-003
1.872571e+003,5.767738e-003
1.874500e+003,5.891180e-003
1.876428e+003,5.888212e-003
1.878357e+003,5.831171e-003
1.880285e+003,5.822080e-003
1.882214e+003,5.892510e-003
1.884142e+003,5.853039e-003
1.886071e+003,5.760259e-003
1.887999e+003,5.690504e-003
1.889928e+003,5.680540e-003
1.891856e+003,5.562104e-003
1.893785e+003,5.550943e-003
1.895713e+003,5.727727e-003
1.897642e+003,5.843821e-003
1.899570e+003,5.671482e-003
1.901499e+003,5.478232e-003
1.903427e+003,5.464479e-003
1.905356e+003,5.452051e-003
1.907284e+003,5.735761e-003
1.909213e+003,5.675159e-003
1.911141e+003,5.363682e-003
1.913070e+003,5.245225e-003
1.914998e+003,5.236741e-003
1.916927e+003,5.300501e-003
1.918855e+003,5.136373e-003
1.920784e+003,5.076252e-003
1.922712e+003,5.189551e-003
1.924641e+003,5.209336e-003
1.926569e+003,5.138295e-003
1.928498e+003,5.081811e-003
1.930426e+003,5.206008e-003
1.932355e+003,4.947343e-003
1.934283e+003,4.655342e-003
1.936212e+003,4.825546e-003
1.938140e+003,4.715364e-003
1.940069e+003,4.648126e-003
1.941997e+003,4.273952e-003
1.943926e+003,4.167558e-003
1.945854e+003,4.102272e-003
1.947783e+003,4.126519e-003
1.949711e+003,3.832039e-003
1.951640e+003,3.620777e-003
1.953568e+003,3.630140e-003
1.955497e+003,3.527168e-003
1.957425e+003,3.181258e-003
1.959354e+003,3.378471e-003
1.961282e+003,3.659717e-003
1.963211e+003,3.067235e-003
1.965139e+003,2.530268e-003
1.967068e+003,2.183927e-003
1.968996e+003,8.306674e-004
1.970925e+003,-7.502551e-005
1.972853e+003,-3.131252e-005
1.974782e+003,-3.040909e-005
1.976710e+003,-5.996903e-004
1.978639e+003,-5.816647e-004
1.980567e+003,2.532394e-004
1.982496e+003,1.035219e-003
1.984424e+003,2.004569e-003
1.986353e+003,2.563898e-003
1.988281e+003,2.258753e-003
1.990210e+003,1.910639e-003
1.992138e+003,2.138937e-003
1.994067e+003,2.494737e-003
1.995995e+003,2.024435e-003
1.997924e+003,1.449008e-003
1.999852e+003,2.089154e-003
2.001781e+003,2.079425e-003
2.003709e+003,1.361370e-003
2.005638e+003,7.614115e-004
2.007566e+003,5.433985e-004
2.009495e+003,1.231653e-003
2.011423e+003,1.302777e-003
2.013352e+003,8.526146e-004
2.015280e+003,4.916504e-004
2.017208e+003,8.689722e-004
2.019137e+003,6.480226e-004
2.021066e+003,-4.075237e-004
2.022994e+003,-1.262714e-004
2.024922e+003,-3.578807e-004
2.026851e+003,-1.627261e-004
2.028780e+003,1.285518e-004
2.030708e+003,-5.185545e-004
2.032636e+003,-4.792497e-004
2.034565e+003,-1.575520e-005
2.036494e+003,-4.509310e-005
2.038422e+003,5.503824e-004
2.040350e+003,5.846050e-004
2.042279e+003,7.975076e-004
2.044208e+003,1.440565e-003
2.046136e+003,1.529392e-003
2.048064e+003,1.332724e-003
2.049993e+003,1.874684e-003
2.051921e+003,2.962066e-003
2.053850e+003,3.626286e-003
2.055778e+003,3.069144e-003
2.057707e+003,2.799150e-003
2.059635e+003,2.827077e-003
2.061564e+003,2.522795e-003
2.063492e+003,2.440304e-003
2.065421e+003,2.790596e-003
2.067349e+003,3.111652e-003
2.069278e+003,3.267687e-003
2.071206e+003,3.320203e-003
2.073135e+003,3.453046e-003
2.075063e+003,3.649141e-003
2.076992e+003,3.656625e-003
2.078920e+003,4.009497e-003
2.080849e+003,4.304752e-003
2.082777e+003,4.604574e-003
2.084706e+003,4.771984e-003
2.086634e+003,4.711351e-003
2.088563e+003,4.632465e-003
2.090491e+003,4.373527e-003
2.092420e+003,4.217031e-003
2.094348e+003,4.350830e-003
2.096277e+003,4.440342e-003
2.098205e+003,4.963840e-003
2.100134e+003,5.169402e-003
2.102062e+003,4.803970e-003
2.103991e+003,4.335321e-003
2.105919e+003,4.543029e-003
2.107848e+003,4.667669e-003
2.109776e+003,4.885657e-003
2.111705e+003,5.081829e-003
2.113633e+003,5.193646e-003
2.115562e+003,5.031780e-003
2.117490e+003,5.023567e-003
2.119419e+003,4.998228e-003
2.121347e+003,4.738142e-003
2.123276e+003,4.569213e-003
2.125204e+003,4.441723e-003
2.127133e+003,4.825111e-003
2.129061e+003,4.741157e-003
2.130990e+003,4.328058e-003
2.132918e+003,4.522706e-003
2.134847e+003,4.440217e-003
2.136775e+003,4.290746e-003
2.138704e+003,4.306005e-003
2.140632e+003,4.281476e-003
2.142561e+003,4.232658e-003
2.144489e+003,3.993929e-003
2.146418e+003,3.308012e-003
2.148346e+003,3.036157e-003
2.150275e+003,2.586043e-003
2.152203e+003,2.138459e-003
2.154132e+003,1.530371e-003
2.156060e+003,2.068107e-003
2.157989e+003,2.067774e-003
2.159917e+003,1.785714e-003
2.161846e+003,1.474380e-003
2.163774e+003,-9.008211e-005
2.165703e+003,1.848919e-005
2.167631e+003,9.592951e-004
2.169560e+003,5.403878e-004
2.171488e+003,8.082282e-004
2.173417e+003,1.308245e-003
2.175345e+003,1.656411e-003
2.177274e+003,1.281060e-003
2.179202e+003,1.797958e-003
2.181131e+003,1.925373e-003
2.183059e+003,9.203779e-004
2.184988e+003,1.615968e-003
2.186916e+003,2.604042e-003
2.188845e+003,3.098490e-003
2.190773e+003,2.612509e-003
2.192702e+003,2.584876e-003
2.194630e+003,2.873492e-003
2.196559e+003,2.792550e-003
2.198487e+003,2.616542e-003
2.200416e+003,2.893939e-003
2.202344e+003,3.499664e-003
2.204273e+003,4.139352e-003
2.206201e+003,4.262303e-003
2.208130e+003,4.148082e-003
2.210058e+003,4.045832e-003
2.211987e+003,4.162501e-003
2.213915e+003,4.304399e-003
2.215844e+003,4.650086e-003
2.217772e+003,4.559135e-003
2.219701e+003,4.121021e-003
2.221629e+003,4.701430e-003
2.223558e+003,5.729862e-003
2.225486e+003,5.676952e-003
2.227415e+003,5.032450e-003
2.229343e+003,4.912130e-003
2.231272e+003,5.166788e-003
2.233200e+003,5.081163e-003
2.235129e+003,5.026254e-003
2.237057e+003,5.276355e-003
2.238986e+003,5.647359e-003
2.240914e+003,5.665748e-003
2.242843e+003,5.728900e-003
2.244771e+003,5.800776e-003
2.246700e+003,5.611742e-003
2.248628e+003,5.527308e-003
2.250557e+003,5.535961e-003
2.252485e+003,5.458150e-003
2.254414e+003,5.572414e-003
2.256342e+003,5.664034e-003
2.258271e+003,5.945912e-003
2.260199e+003,5.845425e-003
2.262128e+003,5.954926e-003
2.264056e+003,6.083351e-003
2.265985e+003,5.813003e-003
2.267913e+003,5.512942e-003
2.269842e+003,5.585949e-003
2.271770e+003,5.852259e-003
2.273699e+003,5.821289e-003
2.275627e+003,5.805185e-003
2.277556e+003,5.945855e-003
2.279484e+003,6.015739e-003
2.281413e+003,5.985777e-003
2.283341e+003,6.073738e-003
2.285270e+003,6.150683e-003
2.287198e+003,6.151651e-003
2.289127e+003,6.202135e-003
2.291055e+003,6.263078e-003
2.292984e+003,6.272707e-003
2.294912e+003,6.413322e-003
2.296841e+003,6.505362e-003
2.298769e+003,6.556517e-003
2.300698e+003,6.697974e-003
2.302626e+003,6.792136e-003
2.304555e+003,6.599222e-003
2.306483e+003,6.850059e-003
2.308412e+003,6.869620e-003
2.310340e+003,6.819612e-003
2.312269e+003,6.896577e-003
2.314197e+003,6.889086e-003
2.316125e+003,6.953786e-003
2.318054e+003,6.950204e-003
2.319983e+003,6.821617e-003
2.321911e+003,6.943696e-003
2.323840e+003,7.135813e-003
2.325768e+003,7.220630e-003
2.327697e+003,6.982522e-003
2.329625e+003,7.091795e-003
2.331553e+003,7.173918e-003
2.333482e+003,7.250832e-003
2.335411e+003,7.322387e-003
2.337339e+003,7.319394e-003
2.339268e+003,7.270026e-003
2.341196e+003,6.930604e-003
2.343125e+003,7.198957e-003
2.345053e+003,6.886851e-003
2.346981e+003,6.626456e-003
2.348910e+003,6.555099e-003
2.350839e+003,6.440275e-003
2.352767e+003,6.312139e-003
2.354696e+003,6.293107e-003
2.356624e+003,6.447341e-003
2.358552e+003,6.286516e-003
2.360481e+003,6.217110e-003
2.362409e+003,6.060775e-003
2.364338e+003,6.009075e-003
2.366267e+003,5.979331e-003
2.368195e+003,6.063558e-003
2.370124e+003,6.146358e-003
2.372052e+003,6.424266e-003
2.373980e+003,6.457611e-003
2.375909e+003,6.613732e-003
2.377838e+003,6.611241e-003
2.379766e+003,6.492897e-003
2.381695e+003,6.506702e-003
2.383623e+003,6.494061e-003
2.385552e+003,6.334099e-003
2.387480e+003,6.392070e-003
2.389408e+003,6.397447e-003
2.391337e+003,6.436992e-003
2.393266e+003,6.587441e-003
2.395194e+003,6.665619e-003
2.397123e+003,6.642801e-003
2.399051e+003,6.791094e-003
2.400979e+003,6.953042e-003
2.402908e+003,7.044967e-003
2.404836e+003,7.176829e-003
2.406765e+003,7.226182e-003
2.408694e+003,7.225205e-003
2.410622e+003,7.139034e-003
2.412551e+003,7.054060e-003
2.414479e+003,7.172719e-003
2.416407e+003,7.270621e-003
2.418336e+003,7.313312e-003
2.420264e+003,7.307348e-003
2.422193e+003,7.150824e-003
2.424122e+003,7.029679e-003
2.426050e+003,7.081911e-003
2.427979e+003,7.048907e-003
2.429907e+003,6.991628e-003
2.431835e+003,6.914863e-003
2.433764e+003,6.986510e-003
2.435692e+003,7.030891e-003
2.437621e+003,7.033417e-003
2.439550e+003,6.835587e-003
2.441478e+003,6.647100e-003
2.443406e+003,6.704772e-003
2.445335e+003,6.766490e-003
2.447263e+003,6.608141e-003
2.449192e+003,6.611539e-003
2.451121e+003,6.724525e-003
2.453049e+003,6.763797e-003
2.454978e+003,6.770797e-003
2.456906e+003,6.781432e-003
2.458834e+003,6.641684e-003
2.460763e+003,6.603397e-003
2.462691e+003,6.655680e-003
2.464620e+003,6.673311e-003
2.466549e+003,6.723582e-003
2.468477e+003,6.735865e-003
2.470406e+003,6.696629e-003
2.472334e+003,6.652719e-003
2.474262e+003,6.648345e-003
2.476191e+003,6.641616e-003
2.478119e+003,6.793515e-003
2.480048e+003,6.914392e-003
2.481977e+003,6.792909e-003
2.483905e+003,6.768677e-003
2.485833e+003,6.809098e-003
2.487762e+003,6.803242e-003
2.489690e+003,6.950786e-003
2.491619e+003,6.976981e-003
2.493547e+003,6.988362e-003
2.495476e+003,7.051298e-003
2.497405e+003,7.033147e-003
2.499333e+003,7.035639e-003
2.501261e+003,7.113705e-003
2.503190e+003,7.042374e-003
2.505118e+003,7.001898e-003
2.507047e+003,6.977991e-003
2.508975e+003,6.926714e-003
2.510904e+003,6.941089e-003
2.512833e+003,6.923414e-003
2.514761e+003,7.016647e-003
2.516689e+003,7.035033e-003
2.518618e+003,6.924256e-003
2.520546e+003,7.005400e-003
2.522475e+003,7.137047e-003
2.524403e+003,7.259873e-003
2.526332e+003,7.281672e-003
2.528260e+003,7.241241e-003
2.530189e+003,7.258256e-003
2.532117e+003,7.148702e-003
2.534046e+003,7.013886e-003
2.535974e+003,7.118016e-003
2.537903e+003,7.297408e-003
2.539831e+003,7.299733e-003
2.541760e+003,7.157661e-003
2.543688e+003,7.124315e-003
2.545617e+003,7.146849e-003
2.547545e+003,7.230090e-003
2.549474e+003,7.309976e-003
2.551402e+003,7.311088e-003
2.553331e+003,7.276854e-003
2.555259e+003,7.266847e-003
2.557188e+003,7.238917e-003
2.559116e+003,7.197007e-003
2.561045e+003,7.284166e-003
2.562973e+003,7.282717e-003
2.564902e+003,7.282043e-003
2.566830e+003,7.321703e-003
2.568759e+003,7.325342e-003
2.570687e+003,7.344045e-003
2.572616e+003,7.402820e-003
2.574544e+003,7.353346e-003
2.576473e+003,7.370904e-003
2.578401e+003,7.430020e-003
2.580330e+003,7.458671e-003
2.582258e+003,7.362715e-003
2.584187e+003,7.317760e-003
2.586115e+003,7.352369e-003
2.588044e+003,7.419538e-003
2.589972e+003,7.417246e-003
2.591901e+003,7.430458e-003
2.593829e+003,7.491369e-003
2.595758e+003,7.551715e-003
2.597686e+003,7.490088e-003
2.599615e+003,7.435177e-003
2.601543e+003,7.422773e-003
2.603472e+003,7.455233e-003
2.605400e+003,7.441413e-003
2.607329e+003,7.429177e-003
2.609257e+003,7.459547e-003
2.611186e+003,7.474447e-003
2.613114e+003,7.457828e-003
2.615043e+003,7.476098e-003
2.616971e+003,7.502594e-003
2.618900e+003,7.565774e-003
2.620828e+003,7.525587e-003
2.622757e+003,7.413875e-003
2.624685e+003,7.409595e-003
2.626614e+003,7.433559e-003
2.628542e+003,7.439053e-003
2.630471e+003,7.444446e-003
2.632399e+003,7.435076e-003
2.634328e+003,7.471547e-003
2.636256e+003,7.438345e-003
2.638185e+003,7.462750e-003
2.640113e+003,7.505123e-003
2.642042e+003,7.501111e-003
2.643970e+003,7.477885e-003
2.645899e+003,7.552895e-003
2.647827e+003,7.611597e-003
2.649756e+003,7.627682e-003
2.651684e+003,7.593962e-003
2.653613e+003,7.642081e-003
2.655541e+003,7.693848e-003
2.657470e+003,7.668318e-003
2.659398e+003,7.703966e-003
2.661327e+003,7.746397e-003
2.663255e+003,7.755166e-003
2.665184e+003,7.798783e-003
2.667112e+003,7.839300e-003
2.669041e+003,7.859003e-003
2.670969e+003,7.887008e-003
2.672898e+003,7.909581e-003
2.674826e+003,7.912449e-003
2.676755e+003,7.932797e-003
2.678683e+003,7.980312e-003
2.680612e+003,7.996748e-003
2.682540e+003,8.020947e-003
2.684469e+003,8.005320e-003
2.686397e+003,8.010113e-003
2.688326e+003,8.021420e-003
2.690254e+003,7.982337e-003
2.692183e+003,8.000764e-003
2.694111e+003,8.030972e-003
2.696040e+003,8.063138e-003
2.697968e+003,8.079173e-003
2.699897e+003,8.046127e-003
2.701825e+003,8.051291e-003
2.703754e+003,8.045722e-003
2.705682e+003,8.038093e-003
2.707611e+003,8.042042e-003
2.709539e+003,8.087275e-003
2.711468e+003,8.046194e-003
2.713396e+003,7.976836e-003
2.715325e+003,7.983653e-003
2.717253e+003,8.013961e-003
2.719182e+003,7.976161e-003
2.721110e+003,8.006637e-003
2.723039e+003,8.061282e-003
2.724967e+003,8.049907e-003
2.726896e+003,8.012138e-003
2.728824e+003,7.984598e-003
2.730753e+003,7.961683e-003
2.732681e+003,7.946700e-003
2.734610e+003,7.998503e-003
2.736538e+003,8.050953e-003
2.738467e+003,8.036068e-003
2.740395e+003,8.004274e-003
2.742324e+003,8.029216e-003
2.744252e+003,8.022331e-003
2.746181e+003,8.038566e-003
2.748109e+003,8.048557e-003
2.750038e+003,8.033571e-003
2.751966e+003,8.035022e-003
2.753895e+003,8.053080e-003
2.755823e+003,8.029858e-003
2.757752e+003,8.033571e-003
2.759680e+003,8.088861e-003
2.761609e+003,8.166475e-003
2.763537e+003,8.121775e-003
2.765466e+003,8.115699e-003
2.767394e+003,8.176773e-003
2.769323e+003,8.151755e-003
2.771251e+003,8.119040e-003
2.773180e+003,8.138520e-003
2.775108e+003,8.162254e-003
2.777037e+003,8.175794e-003
2.778965e+003,8.164550e-003
2.780894e+003,8.168636e-003
2.782822e+003,8.195715e-003
2.784750e+003,8.194432e-003
2.786679e+003,8.163773e-003
2.788608e+003,8.241841e-003
2.790536e+003,8.273247e-003
2.792465e+003,8.238329e-003
2.794393e+003,8.229751e-003
2.796322e+003,8.232318e-003
2.798250e+003,8.243698e-003
2.800178e+003,8.284729e-003
2.802107e+003,8.341233e-003
2.804036e+003,8.362412e-003
2.805964e+003,8.318334e-003
2.807893e+003,8.313301e-003
2.809821e+003,8.412745e-003
2.811750e+003,8.460954e-003
2.813678e+003,8.469908e-003
2.815606e+003,8.415109e-003
2.817535e+003,8.453386e-003
2.819464e+003,8.501905e-003
2.821392e+003,8.543872e-003
2.823321e+003,8.596795e-003
2.825249e+003,8.635493e-003
2.827177e+003,8.624103e-003
2.829106e+003,8.641847e-003
2.831034e+003,8.734233e-003
2.832963e+003,8.789714e-003
2.834892e+003,8.859675e-003
2.836820e+003,8.913177e-003
2.838749e+003,8.865695e-003
2.840677e+003,8.953934e-003
2.842605e+003,9.022602e-003
2.844534e+003,9.092466e-003
2.846462e+003,9.268308e-003
2.848391e+003,9.414526e-003
2.850320e+003,9.454144e-003
2.852248e+003,9.518895e-003
2.854177e+003,9.544975e-003
2.856105e+003,9.589788e-003
2.858033e+003,9.512426e-003
2.859962e+003,9.476833e-003
2.861890e+003,9.554527e-003
2.863819e+003,9.628439e-003
2.865748e+003,9.662691e-003
2.867676e+003,9.610045e-003
2.869604e+003,9.567431e-003
2.871533e+003,9.598459e-003
2.873461e+003,9.623900e-003
2.875390e+003,9.630742e-003
2.877319e+003,9.588331e-003
2.879247e+003,9.548632e-003
2.881176e+003,9.568515e-003
2.883104e+003,9.611094e-003
2.885032e+003,9.581083e-003
2.886961e+003,9.701755e-003
2.888889e+003,9.776371e-003
2.890818e+003,9.762918e-003
2.892747e+003,9.730861e-003
2.894675e+003,9.705821e-003
2.896604e+003,9.731675e-003
2.898532e+003,9.782878e-003
2.900460e+003,9.826765e-003
2.902389e+003,9.786470e-003
2.904317e+003,9.793315e-003
2.906246e+003,9.807549e-003
2.908175e+003,9.786063e-003
2.910103e+003,9.776371e-003
2.912031e+003,9.811650e-003
2.913960e+003,9.829206e-003
2.915888e+003,9.806261e-003
2.917817e+003,9.853135e-003
2.919745e+003,9.963746e-003
2.921674e+003,9.962221e-003
2.923603e+003,9.923878e-003
2.925531e+003,9.891301e-003
2.927459e+003,9.830324e-003
2.929388e+003,9.753496e-003
2.931316e+003,9.700975e-003
2.933245e+003,9.623392e-003
2.935173e+003,9.551015e-003
2.937102e+003,9.524333e-003
2.939031e+003,9.426171e-003
2.940959e+003,9.362224e-003
2.942887e+003,9.329260e-003
2.944816e+003,9.225530e-003
2.946744e+003,9.149273e-003
2.948673e+003,9.092377e-003
2.950601e+003,8.986644e-003
2.952530e+003,8.877599e-003
2.954458e+003,8.774933e-003
2.956387e+003,8.801452e-003
2.958315e+003,8.832489e-003
2.960244e+003,8.796657e-003
2.962172e+003,8.704145e-003
2.964101e+003,8.608310e-003
2.966029e+003,8.584370e-003
2.967958e+003,8.570020e-003
2.969886e+003,8.502704e-003
2.971815e+003,8.470364e-003
2.973743e+003,8.415382e-003
2.975672e+003,8.373967e-003
2.977600e+003,8.333166e-003
2.979529e+003,8.278103e-003
2.981457e+003,8.209257e-003
2.983386e+003,8.183952e-003
2.985314e+003,8.175010e-003
2.987243e+003,8.117156e-003
2.989171e+003,8.088952e-003
2.991100e+003,8.101580e-003
2.993028e+003,8.134294e-003
2.994957e+003,8.113681e-003
2.996885e+003,8.056904e-003
2.998814e+003,8.087830e-003
3.000742e+003,8.162974e-003
3.002671e+003,8.103346e-003
3.004599e+003,8.071948e-003
3.006528e+003,8.078666e-003
3.008456e+003,8.066131e-003
3.010385e+003,8.075284e-003
3.012313e+003,8.072536e-003
3.014242e+003,8.053820e-003
3.016170e+003,8.085704e-003
3.018099e+003,8.116062e-003
3.020027e+003,8.154580e-003
3.021956e+003,8.225792e-003
3.023884e+003,8.137503e-003
3.025813e+003,8.173442e-003
3.027741e+003,8.210177e-003
3.029670e+003,8.198551e-003
3.031598e+003,8.190707e-003
3.033527e+003,8.211193e-003
3.035455e+003,8.258341e-003
3.037384e+003,8.276952e-003
3.039312e+003,8.336592e-003
3.041241e+003,8.405006e-003
3.043169e+003,8.383399e-003
3.045098e+003,8.312097e-003
3.047026e+003,8.284278e-003
3.048955e+003,8.366687e-003
3.050883e+003,8.379214e-003
3.052812e+003,8.290898e-003
3.054740e+003,8.298443e-003
3.056669e+003,8.384505e-003
3.058597e+003,8.435315e-003
3.060526e+003,8.439600e-003
3.062454e+003,8.477508e-003
3.064383e+003,8.490439e-003
3.066311e+003,8.446215e-003
3.068240e+003,8.563465e-003
3.070168e+003,8.598618e-003
3.072097e+003,8.556965e-003
3.074025e+003,8.568828e-003
3.075954e+003,8.618335e-003
3.077882e+003,8.663280e-003
3.079811e+003,8.607112e-003
3.081739e+003,8.652842e-003
3.083668e+003,8.752240e-003
3.085596e+003,8.723915e-003
3.087525e+003,8.770982e-003
3.089453e+003,8.821905e-003
3.091382e+003,8.813766e-003
3.093310e+003,8.758427e-003
3.095239e+003,8.778146e-003
3.097167e+003,8.866067e-003
3.099096e+003,8.879966e-003
3.101024e+003,8.837406e-003
3.102953e+003,8.889185e-003
3.104881e+003,8.971665e-003
3.106810e+003,8.948236e-003
3.108738e+003,8.952856e-003
3.110667e+003,9.042960e-003
3.112595e+003,9.044009e-003
3.114524e+003,9.085629e-003
3.116452e+003,9.053162e-003
3.118381e+003,9.002632e-003
3.120309e+003,9.075794e-003
3.122238e+003,9.180008e-003
3.124166e+003,9.204444e-003
3.126095e+003,9.144691e-003
3.128023e+003,9.173260e-003
3.129952e+003,9.240958e-003
3.131880e+003,9.301074e-003
3.133809e+003,9.390579e-003
3.135737e+003,9.394576e-003
3.137666e+003,9.364969e-003
3.139594e+003,9.370017e-003
3.141523e+003,9.378572e-003
3.143451e+003,9.427209e-003
3.145380e+003,9.460972e-003
3.147308e+003,9.553847e-003
3.149237e+003,9.652851e-003
3.151165e+003,9.690689e-003
3.153094e+003,9.664753e-003
3.155022e+003,9.662795e-003
3.156951e+003,9.628162e-003
3.158879e+003,9.696883e-003
3.160808e+003,9.762407e-003
3.162736e+003,9.750599e-003
3.164665e+003,9.816402e-003
3.166593e+003,9.905986e-003
3.168522e+003,9.900718e-003
3.170450e+003,9.942846e-003
3.172379e+003,9.986282e-003
3.174307e+003,1.004386e-002
3.176236e+003,1.006492e-002
3.178164e+003,1.015333e-002
3.180093e+003,1.010196e-002
3.182021e+003,1.006548e-002
3.183950e+003,1.013806e-002
3.185878e+003,1.012499e-002
3.187807e+003,1.018211e-002
3.189735e+003,1.023609e-002
3.191664e+003,1.027184e-002
3.193592e+003,1.029710e-002
3.195521e+003,1.040282e-002
3.197449e+003,1.045747e-002
3.199378e+003,1.038281e-002
3.201306e+003,1.046006e-002
3.203235e+003,1.051967e-002
3.205163e+003,1.053119e-002
3.207092e+003,1.059732e-002
3.209020e+003,1.060672e-002
3.210948e+003,1.064395e-002
3.212877e+003,1.065113e-002
3.214806e+003,1.064116e-002
3.216734e+003,1.073044e-002
3.218663e+003,1.090330e-002
3.220591e+003,1.092909e-002
3.222520e+003,1.095689e-002
3.224448e+003,1.100445e-002
3.226376e+003,1.101674e-002
3.228305e+003,1.099680e-002
3.230234e+003,1.110218e-002
3.232162e+003,1.111916e-002
3.234091e+003,1.116195e-002
3.236019e+003,1.125499e-002
3.237948e+003,1.129854e-002
3.239876e+003,1.120258e-002
3.241804e+003,1.124774e-002
3.243733e+003,1.134550e-002
3.245662e+003,1.143451e-002
3.247590e+003,1.150690e-002
3.249519e+003,1.154636e-002
3.251447e+003,1.157708e-002
3.253375e+003,1.167220e-002
3.255304e+003,1.172958e-002
3.257232e+003,1.177430e-002
3.259161e+003,1.173359e-002
3.261090e+003,1.174193e-002
3.263018e+003,1.177095e-002
3.264947e+003,1.186888e-002
3.266875e+003,1.198915e-002
3.268803e+003,1.193958e-002
3.270732e+003,1.189784e-002
3.272660e+003,1.194173e-002
3.274589e+003,1.195182e-002
3.276518e+003,1.203305e-002
3.278446e+003,1.208710e-002
3.280375e+003,1.201584e-002
3.282303e+003,1.199915e-002
3.284231e+003,1.214626e-002
3.286160e+003,1.224162e-002
3.288088e+003,1.221085e-002
3.290017e+003,1.213292e-002
3.291946e+003,1.212915e-002
3.293874e+003,1.215295e-002
3.295802e+003,1.210846e-002
3.297731e+003,1.211987e-002
3.299659e+003,1.218972e-002
3.301588e+003,1.222073e-002
3.303516e+003,1.220067e-002
3.305445e+003,1.215197e-002
3.307374e+003,1.213663e-002
3.309302e+003,1.215043e-002
3.311230e+003,1.209361e-002
3.313159e+003,1.209265e-002
3.315087e+003,1.216851e-002
3.317016e+003,1.228862e-002
3.318944e+003,1.235209e-002
3.320873e+003,1.225384e-002
3.322802e+003,1.223192e-002
3.324730e+003,1.223261e-002
3.326658e+003,1.217375e-002
3.328587e+003,1.218888e-002
3.330515e+003,1.221368e-002
3.332444e+003,1.224946e-002
3.334372e+003,1.223389e-002
3.336301e+003,1.223386e-002
3.338229e+003,1.220947e-002
3.340158e+003,1.218837e-002
3.342086e+003,1.215616e-002
3.344015e+003,1.203741e-002
3.345943e+003,1.201126e-002
3.347872e+003,1.205745e-002
3.349800e+003,1.207187e-002
3.351729e+003,1.209211e-002
3.353657e+003,1.207479e-002
3.355586e+003,1.201777e-002
3.357514e+003,1.190823e-002
3.359443e+003,1.185121e-002
3.361371e+003,1.189571e-002
3.363300e+003,1.187805e-002
3.365229e+003,1.182466e-002
3.367157e+003,1.181169e-002
3.369085e+003,1.179306e-002
3.371014e+003,1.171141e-002
3.372942e+003,1.172412e-002
3.374871e+003,1.174524e-002
3.376799e+003,1.169432e-002
3.378728e+003,1.158463e-002
3.380656e+003,1.158977e-002
3.382585e+003,1.162935e-002
3.384513e+003,1.159613e-002
3.386442e+003,1.147508e-002
3.388370e+003,1.143550e-002
3.390299e+003,1.142609e-002
3.392227e+003,1.131662e-002
3.394156e+003,1.135274e-002
3.396084e+003,1.137883e-002
3.398013e+003,1.126042e-002
3.399941e+003,1.112349e-002
3.401870e+003,1.122159e-002
3.403798e+003,1.126388e-002
3.405727e+003,1.121537e-002
3.407655e+003,1.114559e-002
3.409584e+003,1.104718e-002
3.411512e+003,1.094370e-002
3.413441e+003,1.090462e-002
3.415369e+003,1.087843e-002
3.417298e+003,1.092573e-002
3.419226e+003,1.089264e-002
3.421155e+003,1.079181e-002
3.423083e+003,1.076042e-002
3.425012e+003,1.071965e-002
3.426940e+003,1.063881e-002
3.428869e+003,1.056781e-002
3.430797e+003,1.049546e-002
3.432726e+003,1.041927e-002
3.434654e+003,1.032921e-002
3.436583e+003,1.030147e-002
3.438511e+003,1.026915e-002
3.440440e+003,1.015275e-002
3.442368e+003,1.014731e-002
3.444297e+003,1.015988e-002
3.446225e+003,1.000893e-002
3.448154e+003,9.892341e-003
3.450082e+003,9.807196e-003
3.452011e+003,9.777719e-003
3.453939e+003,9.707071e-003
3.455868e+003,9.625391e-003
3.457796e+003,9.562833e-003
3.459725e+003,9.468445e-003
3.461653e+003,9.410552e-003
3.463582e+003,9.255384e-003
3.465510e+003,9.115867e-003
3.467439e+003,9.070362e-003
3.469367e+003,9.086403e-003
3.471296e+003,9.076755e-003
3.473224e+003,9.044915e-003
3.475153e+003,9.023848e-003
3.477081e+003,9.023909e-003
3.479010e+003,8.960801e-003
3.480938e+003,8.886348e-003
3.482867e+003,8.856872e-003
3.484795e+003,8.776992e-003
3.486724e+003,8.660952e-003
3.488652e+003,8.593225e-003
3.490581e+003,8.530062e-003
3.492509e+003,8.518818e-003
3.494438e+003,8.373058e-003
3.496366e+003,8.283350e-003
3.498295e+003,8.346319e-003
3.500223e+003,8.341408e-003
3.502152e+003,8.288485e-003
3.504080e+003,8.182122e-003
3.506009e+003,8.051827e-003
3.507937e+003,8.004828e-003
3.509866e+003,7.912016e-003
3.511794e+003,7.882857e-003
3.513723e+003,7.893941e-003
3.515651e+003,7.945305e-003
3.517580e+003,7.881769e-003
3.519508e+003,7.711254e-003
3.521437e+003,7.657833e-003
3.523365e+003,7.643268e-003
3.525294e+003,7.609033e-003
3.527222e+003,7.631581e-003
3.529151e+003,7.562943e-003
3.531079e+003,7.430355e-003
3.533008e+003,7.447296e-003
3.534936e+003,7.354585e-003
3.536865e+003,7.235344e-003
3.538793e+003,7.280446e-003
3.540722e+003,7.290207e-003
3.542650e+003,7.157944e-003
3.544579e+003,7.046333e-003
3.546507e+003,6.981251e-003
3.548436e+003,6.977865e-003
3.550364e+003,6.836229e-003
3.552293e+003,6.690798e-003
3.554221e+003,6.743737e-003
3.556150e+003,6.803921e-003
3.558078e+003,6.802949e-003
3.560007e+003,6.679221e-003
3.561935e+003,6.533567e-003
3.563864e+003,6.416391e-003
3.565792e+003,6.346859e-003
3.567721e+003,6.258595e-003
3.569649e+003,6.218215e-003
3.571578e+003,6.199428e-003
3.573506e+003,6.106759e-003
3.575435e+003,6.034832e-003
3.577363e+003,6.041911e-003
3.579292e+003,5.975847e-003
3.581220e+003,5.912296e-003
3.583149e+003,5.689844e-003
3.585077e+003,5.404849e-003
3.587006e+003,5.156181e-003
3.588934e+003,5.021624e-003
3.590863e+003,4.897008e-003
3.592791e+003,4.686048e-003
3.594720e+003,4.467302e-003
3.596648e+003,4.353401e-003
3.598577e+003,4.299288e-003
3.600505e+003,4.246655e-003
3.602434e+003,4.212975e-003
3.604362e+003,4.310321e-003
3.606291e+003,4.583212e-003
3.608219e+003,4.816088e-003
3.610148e+003,5.154435e-003
3.612076e+003,5.443131e-003
3.614005e+003,5.245856e-003
3.615933e+003,4.801555e-003
3.617862e+003,4.359739e-003
3.619790e+003,3.949224e-003
3.621719e+003,3.724697e-003
3.623647e+003,3.523742e-003
3.625576e+003,3.377946e-003
3.627504e+003,3.452949e-003
3.629433e+003,3.537592e-003
3.631361e+003,3.676228e-003
3.633290e+003,3.858576e-003
3.635218e+003,4.182974e-003
3.637146e+003,4.477480e-003
3.639075e+003,4.767444e-003
3.641004e+003,4.943782e-003
3.642932e+003,5.144063e-003
3.644861e+003,5.380136e-003
3.646789e+003,5.365981e-003
3.648718e+003,5.320878e-003
3.650646e+003,5.403813e-003
3.652574e+003,5.433941e-003
3.654503e+003,5.453596e-003
3.656432e+003,5.345479e-003
3.658360e+003,5.356220e-003
3.660289e+003,5.396742e-003
3.662217e+003,5.458766e-003
3.664146e+003,5.514386e-003
3.666074e+003,5.507043e-003
3.668002e+003,5.487149e-003
3.669931e+003,5.527851e-003
3.671860e+003,5.445700e-003
3.673788e+003,5.393479e-003
3.675717e+003,5.263312e-003
3.677645e+003,5.137704e-003
3.679573e+003,4.892163e-003
3.681502e+003,4.764451e-003
3.683430e+003,4.677929e-003
3.685359e+003,4.577134e-003
3.687288e+003,4.456946e-003
3.689216e+003,4.192417e-003
3.691145e+003,3.839307e-003
3.693073e+003,3.556067e-003
3.695001e+003,3.341812e-003
3.696930e+003,3.150946e-003
3.698858e+003,2.969730e-003
3.700787e+003,2.947122e-003
3.702716e+003,3.026378e-003
3.704644e+003,3.069933e-003
3.706573e+003,3.110493e-003
3.708501e+003,3.369281e-003
3.710429e+003,3.749542e-003
3.712358e+003,4.371186e-003
3.714286e+003,4.839966e-003
3.716215e+003,4.505817e-003
3.718144e+003,3.783865e-003
3.720072e+003,3.135273e-003
3.722000e+003,2.577747e-003
3.723929e+003,2.262425e-003
3.725857e+003,2.067272e-003
3.727786e+003,1.904833e-003
3.729714e+003,1.937113e-003
3.731643e+003,2.173709e-003
3.733572e+003,2.486125e-003
3.735500e+003,2.821805e-003
3.737428e+003,3.364294e-003
3.739357e+003,3.834963e-003
3.741285e+003,4.318558e-003
3.743214e+003,4.873529e-003
3.745142e+003,5.094163e-003
3.747071e+003,5.281675e-003
3.749000e+003,5.386688e-003
3.750928e+003,5.417851e-003
3.752856e+003,5.453192e-003
3.754785e+003,5.408929e-003
3.756713e+003,5.504701e-003
3.758642e+003,5.467573e-003
3.760570e+003,5.471017e-003
3.762499e+003,5.411406e-003
3.764427e+003,5.440978e-003
3.766356e+003,5.438556e-003
3.768284e+003,5.504784e-003
3.770213e+003,5.525913e-003
3.772141e+003,5.544580e-003
3.774070e+003,5.558138e-003
3.775998e+003,5.654591e-003
3.777927e+003,5.681787e-003
3.779855e+003,5.578127e-003
3.781784e+003,5.551647e-003
3.783712e+003,5.560463e-003
3.785641e+003,5.565130e-003
3.787569e+003,5.555735e-003
3.789498e+003,5.517994e-003
3.791426e+003,5.549746e-003
3.793355e+003,5.581795e-003
3.795283e+003,5.558174e-003
3.797212e+003,5.438944e-003
3.799140e+003,5.523564e-003
3.801069e+003,5.628610e-003
3.802997e+003,5.618376e-003
3.804926e+003,5.640727e-003
3.806854e+003,5.582258e-003
3.808783e+003,5.573979e-003
3.810711e+003,5.638344e-003
3.812640e+003,5.649984e-003
3.814568e+003,5.754164e-003
3.816497e+003,5.686284e-003
3.818425e+003,5.595655e-003
3.820354e+003,5.584836e-003
3.822282e+003,5.538751e-003
3.824211e+003,5.584103e-003
3.826139e+003,5.554857e-003
3.828068e+003,5.549974e-003
3.829996e+003,5.580205e-003
3.831925e+003,5.549106e-003
3.833853e+003,5.595337e-003
3.835782e+003,5.706386e-003
3.837710e+003,5.706822e-003
3.839639e+003,5.613185e-003
3.841567e+003,5.595619e-003
3.843496e+003,5.506864e-003
3.845424e+003,5.566740e-003
3.847353e+003,5.688567e-003
3.849281e+003,5.689213e-003
3.851210e+003,5.747420e-003
3.853138e+003,5.688891e-003
3.855067e+003,5.672041e-003
3.856995e+003,5.694401e-003
3.858924e+003,5.646931e-003
3.860852e+003,5.661372e-003
3.862781e+003,5.725484e-003
3.864709e+003,5.728701e-003
3.866638e+003,5.710212e-003
3.868566e+003,5.749721e-003
3.870495e+003,5.638829e-003
3.872423e+003,5.600050e-003
3.874352e+003,5.617365e-003
3.876280e+003,5.592040e-003
3.878209e+003,5.732367e-003
3.880137e+003,5.668503e-003
3.882066e+003,5.677621e-003
3.883994e+003,5.745565e-003
3.885923e+003,5.669555e-003
3.887851e+003,5.657936e-003
3.889780e+003,5.674571e-003
3.891708e+003,5.644247e-003
3.893637e+003,5.691580e-003
3.895565e+003,5.683214e-003
3.897494e+003,5.649729e-003
3.899422e+003,5.660890e-003
3.901351e+003,5.635109e-003
3.903279e+003,5.640871e-003
3.905208e+003,5.586355e-003
3.907136e+003,5.641535e-003
3.909065e+003,5.755190e-003
3.910993e+003,5.763107e-003
3.912922e+003,5.664969e-003
3.914850e+003,5.641032e-003
3.916779e+003,5.671473e-003
3.918707e+003,5.645064e-003
3.920636e+003,5.642280e-003
3.922564e+003,5.653270e-003
3.924493e+003,5.693370e-003
3.926421e+003,5.676133e-003
3.928350e+003,5.571957e-003
3.930278e+003,5.546200e-003
3.932207e+003,5.591574e-003
3.934135e+003,5.600217e-003
3.936064e+003,5.658626e-003
3.937992e+003,5.697528e-003
3.939921e+003,5.616429e-003
3.941849e+003,5.673776e-003
3.943778e+003,5.730323e-003
3.945706e+003,5.734818e-003
3.947635e+003,5.637088e-003
3.949563e+003,5.584752e-003
3.951492e+003,5.636655e-003
3.953420e+003,5.707028e-003
3.955349e+003,5.793533e-003
3.957277e+003,5.722053e-003
3.959206e+003,5.557353e-003
3.961134e+003,5.557579e-003
3.963063e+003,5.560493e-003
3.964991e+003,5.597947e-003
3.966920e+003,5.624663e-003
3.968848e+003,5.677748e-003
3.970777e+003,5.682837e-003
3.972705e+003,5.676100e-003
3.974634e+003,5.707921e-003
3.976562e+003,5.738647e-003
3.978491e+003,5.721124e-003
3.980419e+003,5.599622e-003
3.982348e+003,5.611844e-003
3.984276e+003,5.684538e-003
3.986205e+003,5.682056e-003
3.988133e+003,5.658502e-003
3.990062e+003,5.666498e-003
3.991990e+003,5.699906e-003
3.993919e+003,5.688093e-003
3.995847e+003,5.665514e-003
3.997776e+003,5.673301e-003
3.999704e+003,5.674233e-003
4.001633e+003,0.000000e+000
