3.991989e+002,4.274697e-002
4.011274e+002,4.209024e-002
4.030559e+002,4.209024e-002
4.049844e+002,4.240043e-002
4.069129e+002,4.216286e-002
4.088414e+002,4.139142e-002
4.107699e+002,4.150855e-002
4.126984e+002,4.200258e-002
4.146269e+002,4.321852e-002
4.165554e+002,4.463924e-002
4.184839e+002,4.602201e-002
4.204124e+002,4.563717e-002
4.223409e+002,4.499932e-002
4.242694e+002,4.566822e-002
4.261979e+002,4.617099e-002
4.281264e+002,4.647728e-002
4.300549e+002,4.609273e-002
4.319834e+002,4.661496e-002
4.339119e+002,4.780810e-002
4.358404e+002,4.825699e-002
4.377689e+002,4.806219e-002
4.396974e+002,4.826026e-002
4.416259e+002,4.849211e-002
4.435544e+002,4.823564e-002
4.454829e+002,4.794909e-002
4.474114e+002,4.735938e-002
4.493399e+002,4.743324e-002
4.512684e+002,4.747099e-002
4.531969e+002,4.746398e-002
4.551254e+002,4.705797e-002
4.570539e+002,4.704477e-002
4.589824e+002,4.722135e-002
4.609109e+002,4.716123e-002
4.628394e+002,4.670979e-002
4.647679e+002,4.682489e-002
4.666964e+002,4.705112e-002
4.686249e+002,4.666504e-002
4.705533e+002,4.521641e-002
4.724819e+002,4.533753e-002
4.744103e+002,4.595005e-002
4.763389e+002,4.540540e-002
4.782673e+002,4.504699e-002
4.801959e+002,4.524083e-002
4.821243e+002,4.539448e-002
4.840529e+002,4.552869e-002
4.859813e+002,4.518669e-002
4.879099e+002,4.482046e-002
4.898383e+002,4.461740e-002
4.917668e+002,4.473915e-002
4.936953e+002,4.453775e-002
4.956238e+002,4.453360e-002
4.975523e+002,4.433542e-002
4.994808e+002,4.409247e-002
5.014093e+002,4.430104e-002
5.033378e+002,4.425899e-002
5.052663e+002,4.426352e-002
5.071948e+002,4.430592e-002
5.091233e+002,4.470703e-002
5.110518e+002,4.436780e-002
5.129803e+002,4.454368e-002
5.149088e+002,4.503936e-002
5.168373e+002,4.523344e-002
5.187658e+002,4.523671e-002
5.206943e+002,4.526209e-002
5.226228e+002,4.556457e-002
5.245513e+002,4.563624e-002
5.264798e+002,4.567871e-002
5.284083e+002,4.553145e-002
5.303368e+002,4.526736e-002
5.322653e+002,4.509397e-002
5.341938e+002,4.495116e-002
5.361223e+002,4.483537e-002
5.380508e+002,4.474381e-002
5.399792e+002,4.429134e-002
5.419078e+002,4.431841e-002
5.438363e+002,4.425943e-002
5.457648e+002,4.450849e-002
5.476932e+002,4.482859e-002
5.496218e+002,4.493423e-002
5.515503e+002,4.497357e-002
5.534788e+002,4.530789e-002
5.554072e+002,4.526440e-002
5.573358e+002,4.552846e-002
5.592643e+002,4.593664e-002
5.611927e+002,4.565518e-002
5.631212e+002,4.521459e-002
5.650497e+002,4.448479e-002
5.669783e+002,4.397744e-002
5.689067e+002,4.412579e-002
5.708352e+002,4.404599e-002
5.727637e+002,4.386314e-002
5.746923e+002,4.380439e-002
5.766207e+002,4.383151e-002
5.785492e+002,4.351953e-002
5.804777e+002,4.344340e-002
5.824063e+002,4.319198e-002
5.843347e+002,4.313274e-002
5.862632e+002,4.317531e-002
5.881917e+002,4.330024e-002
5.901202e+002,4.335645e-002
5.920487e+002,4.318567e-002
5.939772e+002,4.314660e-002
5.959057e+002,4.291336e-002
5.978342e+002,4.254379e-002
5.997627e+002,4.235391e-002
6.016912e+002,4.223182e-002
6.036197e+002,4.215880e-002
6.055482e+002,4.219860e-002
6.074767e+002,4.196871e-002
6.094052e+002,4.156129e-002
6.113337e+002,4.134935e-002
6.132622e+002,4.117776e-002
6.151907e+002,4.056899e-002
6.171192e+002,4.055263e-002
6.190477e+002,4.023878e-002
6.209762e+002,3.950308e-002
6.229047e+002,3.878361e-002
6.248332e+002,3.853974e-002
6.267617e+002,3.834054e-002
6.286902e+002,3.793491e-002
6.306187e+002,3.768524e-002
6.325472e+002,3.735119e-002
6.344756e+002,3.709666e-002
6.364042e+002,3.713150e-002
6.383326e+002,3.698565e-002
6.402612e+002,3.668918e-002
6.421896e+002,3.639984e-002
6.441182e+002,3.629278e-002
6.460466e+002,3.617513e-002
6.479752e+002,3.587675e-002
6.499036e+002,3.576032e-002
6.518322e+002,3.557923e-002
6.537606e+002,3.541752e-002
6.556891e+002,3.528363e-002
6.576177e+002,3.533983e-002
6.595461e+002,3.541581e-002
6.614746e+002,3.546104e-002
6.634031e+002,3.556507e-002
6.653317e+002,3.577939e-002
6.672601e+002,3.534312e-002
6.691886e+002,3.501980e-002
6.711171e+002,3.462012e-002
6.730457e+002,3.385782e-002
6.749741e+002,3.306771e-002
6.769026e+002,3.230730e-002
6.788311e+002,3.159765e-002
6.807596e+002,3.101191e-002
6.826881e+002,3.068700e-002
6.846166e+002,3.042320e-002
6.865451e+002,3.013292e-002
6.884736e+002,2.986257e-002
6.904021e+002,2.982039e-002
6.923306e+002,2.979878e-002
6.942591e+002,2.972706e-002
6.961876e+002,2.964725e-002
6.981161e+002,2.965911e-002
7.000446e+002,2.959989e-002
7.019731e+002,2.941571e-002
7.039016e+002,2.907472e-002
7.058301e+002,2.868530e-002
7.077585e+002,2.837729e-002
7.096871e+002,2.818376e-002
7.116156e+002,2.806168e-002
7.135441e+002,2.790560e-002
7.154725e+002,2.771042e-002
7.174011e+002,2.747842e-002
7.193296e+002,2.745264e-002
7.212581e+002,2.734200e-002
7.231865e+002,2.705063e-002
7.251151e+002,2.691351e-002
7.270436e+002,2.663835e-002
7.289720e+002,2.635060e-002
7.309005e+002,2.604856e-002
7.328290e+002,2.583928e-002
7.347576e+002,2.563846e-002
7.366860e+002,2.544057e-002
7.386145e+002,2.529309e-002
7.405430e+002,2.521686e-002
7.424716e+002,2.505916e-002
7.444000e+002,2.494616e-002
7.463285e+002,2.488611e-002
7.482570e+002,2.475035e-002
7.501855e+002,2.447356e-002
7.521140e+002,2.428320e-002
7.540425e+002,2.408771e-002
7.559710e+002,2.381540e-002
7.578995e+002,2.372459e-002
7.598280e+002,2.363978e-002
7.617565e+002,2.350055e-002
7.636850e+002,2.328778e-002
7.656135e+002,2.318113e-002
7.675420e+002,2.303282e-002
7.694705e+002,2.292156e-002
7.713990e+002,2.284172e-002
7.733275e+002,2.272875e-002
7.752560e+002,2.269827e-002
7.771844e+002,2.267789e-002
7.791130e+002,2.265422e-002
7.810415e+002,2.265062e-002
7.829700e+002,2.262849e-002
7.848984e+002,2.254263e-002
7.868270e+002,2.249273e-002
7.887555e+002,2.240483e-002
7.906840e+002,2.224560e-002
7.926124e+002,2.224309e-002
7.945410e+002,2.216626e-002
7.964695e+002,2.212195e-002
7.983979e+002,2.227685e-002
8.003264e+002,2.225645e-002
8.022549e+002,2.215521e-002
8.041835e+002,2.212707e-002
8.061119e+002,2.211354e-002
8.080404e+002,2.199582e-002
8.099689e+002,2.203451e-002
8.118975e+002,2.209312e-002
8.138259e+002,2.201534e-002
8.157545e+002,2.195776e-002
8.176830e+002,2.191427e-002
8.196115e+002,2.192364e-002
8.215399e+002,2.196668e-002
8.234684e+002,2.194508e-002
8.253970e+002,2.191448e-002
8.273254e+002,2.190747e-002
8.292539e+002,2.190709e-002
8.311824e+002,2.194755e-002
8.331110e+002,2.199669e-002
8.350394e+002,2.196369e-002
8.369679e+002,2.186618e-002
8.388964e+002,2.176598e-002
8.408250e+002,2.163915e-002
8.427534e+002,2.165726e-002
8.446819e+002,2.172243e-002
8.466104e+002,2.164177e-002
8.485389e+002,2.162676e-002
8.504674e+002,2.166716e-002
8.523959e+002,2.164427e-002
8.543244e+002,2.172957e-002
8.562529e+002,2.172633e-002
8.581814e+002,2.175894e-002
8.601099e+002,2.186646e-002
8.620384e+002,2.189758e-002
8.639669e+002,2.192598e-002
8.658954e+002,2.205498e-002
8.678239e+002,2.218516e-002
8.697524e+002,2.236468e-002
8.716809e+002,2.254783e-002
8.736094e+002,2.265739e-002
8.755378e+002,2.279321e-002
8.774664e+002,2.293916e-002
8.793949e+002,2.318246e-002
8.813234e+002,2.346764e-002
8.832518e+002,2.379043e-002
8.851804e+002,2.425768e-002
8.871089e+002,2.478223e-002
8.890374e+002,2.531493e-002
8.909658e+002,2.596694e-002
8.928943e+002,2.641398e-002
8.948229e+002,2.678238e-002
8.967513e+002,2.689799e-002
8.986798e+002,2.675077e-002
9.006083e+002,2.650286e-002
9.025369e+002,2.617946e-002
9.044653e+002,2.585292e-002
9.063938e+002,2.553021e-002
9.083223e+002,2.530218e-002
9.102509e+002,2.515501e-002
9.121793e+002,2.505404e-002
9.141078e+002,2.499476e-002
9.160364e+002,2.513886e-002
9.179648e+002,2.529965e-002
9.198933e+002,2.548323e-002
9.218218e+002,2.570159e-002
9.237504e+002,2.588408e-002
9.256788e+002,2.612963e-002
9.276073e+002,2.642922e-002
9.295358e+002,2.672909e-002
9.314644e+002,2.706899e-002
9.333928e+002,2.741024e-002
9.353213e+002,2.781700e-002
9.372498e+002,2.833982e-002
9.391783e+002,2.882644e-002
9.411068e+002,2.944468e-002
9.430353e+002,3.011085e-002
9.449637e+002,3.083897e-002
9.468923e+002,3.163015e-002
9.488208e+002,3.235940e-002
9.507493e+002,3.313458e-002
9.526777e+002,3.387431e-002
9.546063e+002,3.467732e-002
9.565348e+002,3.561642e-002
9.584633e+002,3.643477e-002
9.603917e+002,3.725347e-002
9.623203e+002,3.810012e-002
9.642488e+002,3.882540e-002
9.661772e+002,3.955650e-002
9.681057e+002,4.032839e-002
9.700343e+002,4.110566e-002
9.719628e+002,4.185342e-002
9.738912e+002,4.260941e-002
9.758197e+002,4.349203e-002
9.777483e+002,4.451189e-002
9.796768e+002,4.558939e-002
9.816052e+002,4.675874e-002
9.835337e+002,4.788496e-002
9.854623e+002,4.895748e-002
9.873907e+002,4.985073e-002
9.893192e+002,5.054165e-002
9.912477e+002,5.102556e-002
9.931763e+002,5.132747e-002
9.951047e+002,5.147513e-002
9.970332e+002,5.172446e-002
9.989617e+002,5.219498e-002
1.000890e+003,5.281505e-002
1.002819e+003,5.354447e-002
1.004747e+003,5.425848e-002
1.006676e+003,5.493324e-002
1.008604e+003,5.560767e-002
1.010533e+003,5.627533e-002
1.012461e+003,5.699234e-002
1.014390e+003,5.782991e-002
1.016318e+003,5.874912e-002
1.018247e+003,5.970743e-002
1.020175e+003,6.068059e-002
1.022104e+003,6.157525e-002
1.024032e+003,6.252535e-002
1.025961e+003,6.341546e-002
1.027889e+003,6.433207e-002
1.029818e+003,6.516571e-002
1.031746e+003,6.586193e-002
1.033675e+003,6.628086e-002
1.035603e+003,6.631976e-002
1.037532e+003,6.599510e-002
1.039460e+003,6.543621e-002
1.041389e+003,6.468622e-002
1.043317e+003,6.396719e-002
1.045246e+003,6.332678e-002
1.047174e+003,6.278766e-002
1.049103e+003,6.226863e-002
1.051031e+003,6.177650e-002
1.052960e+003,6.113802e-002
1.054888e+003,6.034956e-002
1.056817e+003,5.942228e-002
1.058745e+003,5.848928e-002
1.060674e+003,5.748932e-002
1.062602e+003,5.644188e-002
1.064531e+003,5.539783e-002
1.066459e+003,5.428724e-002
1.068388e+003,5.319082e-002
1.070316e+003,5.223817e-002
1.072245e+003,5.139770e-002
1.074173e+003,5.061223e-002
1.076102e+003,4.967636e-002
1.078030e+003,4.869302e-002
1.079959e+003,4.777846e-002
1.081887e+003,4.678417e-002
1.083816e+003,4.593844e-002
1.085744e+003,4.528879e-002
1.087673e+003,4.480038e-002
1.089601e+003,4.434776e-002
1.091530e+003,4.388240e-002
1.093458e+003,4.347134e-002
1.095387e+003,4.305540e-002
1.097315e+003,4.279048e-002
1.099244e+003,4.256607e-002
1.101172e+003,4.238053e-002
1.103101e+003,4.214194e-002
1.105029e+003,4.178815e-002
1.106958e+003,4.118955e-002
1.108886e+003,4.047658e-002
1.110815e+003,3.958434e-002
1.112743e+003,3.856536e-002
1.114672e+003,3.742315e-002
1.116600e+003,3.634451e-002
1.118529e+003,3.540611e-002
1.120457e+003,3.452156e-002
1.122386e+003,3.364974e-002
1.124314e+003,3.278147e-002
1.126243e+003,3.181465e-002
1.128171e+003,3.084858e-002
1.130100e+003,2.994056e-002
1.132028e+003,2.902916e-002
1.133957e+003,2.820806e-002
1.135885e+003,2.758903e-002
1.137814e+003,2.708013e-002
1.139742e+003,2.672871e-002
1.141671e+003,2.662435e-002
1.143599e+003,2.660709e-002
1.145528e+003,2.676324e-002
1.147456e+003,2.713670e-002
1.149385e+003,2.749982e-002
1.151313e+003,2.785197e-002
1.153242e+003,2.822301e-002
1.155170e+003,2.865655e-002
1.157099e+003,2.898017e-002
1.159027e+003,2.911426e-002
1.160956e+003,2.905013e-002
1.162884e+003,2.883118e-002
1.164813e+003,2.832228e-002
1.166741e+003,2.752347e-002
1.168670e+003,2.654583e-002
1.170598e+003,2.549690e-002
1.172526e+003,2.441153e-002
1.174455e+003,2.335232e-002
1.176384e+003,2.233527e-002
1.178312e+003,2.147637e-002
1.180240e+003,2.077745e-002
1.182169e+003,2.016042e-002
1.184098e+003,1.967807e-002
1.186026e+003,1.933776e-002
1.187954e+003,1.911014e-002
1.189883e+003,1.900506e-002
1.191812e+003,1.906261e-002
1.193740e+003,1.923188e-002
1.195668e+003,1.948844e-002
1.197597e+003,1.977847e-002
1.199526e+003,2.005221e-002
1.201454e+003,2.020650e-002
1.203382e+003,2.031940e-002
1.205311e+003,2.042384e-002
1.207240e+003,2.043976e-002
1.209168e+003,2.046175e-002
1.211096e+003,2.057432e-002
1.213025e+003,2.077563e-002
1.214953e+003,2.103229e-002
1.216882e+003,2.132968e-002
1.218810e+003,2.171275e-002
1.220739e+003,2.206805e-002
1.222667e+003,2.245164e-002
1.224596e+003,2.287956e-002
1.226524e+003,2.335716e-002
1.228453e+003,2.377592e-002
1.230381e+003,2.411599e-002
1.232310e+003,2.440525e-002
1.234238e+003,2.463943e-002
1.236167e+003,2.480407e-002
1.238095e+003,2.486213e-002
1.240024e+003,2.486847e-002
1.241952e+003,2.486640e-002
1.243881e+003,2.477031e-002
1.245809e+003,2.459710e-002
1.247738e+003,2.438376e-002
1.249666e+003,2.411639e-002
1.251595e+003,2.384669e-002
1.253523e+003,2.355060e-002
1.255452e+003,2.317845e-002
1.257380e+003,2.282749e-002
1.259309e+003,2.244853e-002
1.261237e+003,2.199569e-002
1.263166e+003,2.158406e-002
1.265094e+003,2.118133e-002
1.267023e+003,2.074064e-002
1.268951e+003,2.033416e-002
1.270880e+003,1.995421e-002
1.272808e+003,1.959497e-002
1.274737e+003,1.926729e-002
1.276665e+003,1.899629e-002
1.278594e+003,1.873843e-002
1.280522e+003,1.854330e-002
1.282451e+003,1.836298e-002
1.284379e+003,1.818912e-002
1.286308e+003,1.801051e-002
1.288236e+003,1.784972e-002
1.290165e+003,1.774439e-002
1.292093e+003,1.776234e-002
1.294022e+003,1.785823e-002
1.295950e+003,1.796017e-002
1.297879e+003,1.808860e-002
1.299807e+003,1.826306e-002
1.301736e+003,1.849593e-002
1.303664e+003,1.874646e-002
1.305593e+003,1.900130e-002
1.307521e+003,1.923750e-002
1.309450e+003,1.947241e-002
1.311378e+003,1.969111e-002
1.313307e+003,1.986486e-002
1.315235e+003,1.999670e-002
1.317164e+003,2.002983e-002
1.319092e+003,1.995752e-002
1.321021e+003,1.983320e-002
1.322949e+003,1.966722e-002
1.324878e+003,1.952738e-002
1.326806e+003,1.944805e-002
1.328735e+003,1.935016e-002
1.330663e+003,1.930995e-002
1.332592e+003,1.930230e-002
1.334520e+003,1.926023e-002
1.336449e+003,1.918663e-002
1.338377e+003,1.904713e-002
1.340306e+003,1.892217e-002
1.342234e+003,1.882657e-002
1.344163e+003,1.877714e-002
1.346091e+003,1.873924e-002
1.348020e+003,1.882253e-002
1.349948e+003,1.893310e-002
1.351877e+003,1.907919e-002
1.353805e+003,1.929487e-002
1.355734e+003,1.949319e-002
1.357662e+003,1.965810e-002
1.359591e+003,1.986498e-002
1.361519e+003,2.006536e-002
1.363448e+003,2.028897e-002
1.365376e+003,2.051432e-002
1.367305e+003,2.062029e-002
1.369233e+003,2.063176e-002
1.371162e+003,2.058748e-002
1.373090e+003,2.044960e-002
1.375019e+003,2.032099e-002
1.376947e+003,2.007251e-002
1.378876e+003,1.975205e-002
1.380804e+003,1.940864e-002
1.382733e+003,1.902622e-002
1.384661e+003,1.865432e-002
1.386590e+003,1.829418e-002
1.388518e+003,1.802653e-002
1.390447e+003,1.781690e-002
1.392375e+003,1.765246e-002
1.394304e+003,1.751331e-002
1.396232e+003,1.748847e-002
1.398161e+003,1.747228e-002
1.400089e+003,1.745722e-002
1.402018e+003,1.746770e-002
1.403946e+003,1.748437e-002
1.405875e+003,1.753671e-002
1.407803e+003,1.760391e-002
1.409732e+003,1.768296e-002
1.411660e+003,1.781960e-002
1.413589e+003,1.794667e-002
1.415517e+003,1.804039e-002
1.417446e+003,1.814587e-002
1.419374e+003,1.824398e-002
1.421303e+003,1.829772e-002
1.423231e+003,1.825305e-002
1.425160e+003,1.827721e-002
1.427088e+003,1.823545e-002
1.429017e+003,1.811285e-002
1.430945e+003,1.801368e-002
1.432874e+003,1.786818e-002
1.434802e+003,1.766732e-002
1.436731e+003,1.751857e-002
1.438659e+003,1.742880e-002
1.440588e+003,1.728656e-002
1.442516e+003,1.715686e-002
1.444445e+003,1.709862e-002
1.446373e+003,1.707363e-002
1.448302e+003,1.706704e-002
1.450230e+003,1.703533e-002
1.452159e+003,1.696599e-002
1.454087e+003,1.685120e-002
1.456016e+003,1.676742e-002
1.457944e+003,1.666197e-002
1.459873e+003,1.650300e-002
1.461801e+003,1.638824e-002
1.463730e+003,1.620443e-002
1.465658e+003,1.594696e-002
1.467587e+003,1.561381e-002
1.469515e+003,1.511845e-002
1.471444e+003,1.454890e-002
1.473372e+003,1.410180e-002
1.475301e+003,1.368377e-002
1.477229e+003,1.336127e-002
1.479158e+003,1.316146e-002
1.481086e+003,1.307420e-002
1.483015e+003,1.304796e-002
1.484943e+003,1.309809e-002
1.486872e+003,1.314711e-002
1.488800e+003,1.325652e-002
1.490729e+003,1.354258e-002
1.492657e+003,1.381698e-002
1.494586e+003,1.401131e-002
1.496514e+003,1.424465e-002
1.498443e+003,1.448075e-002
1.500371e+003,1.473739e-002
1.502300e+003,1.492651e-002
1.504228e+003,1.513173e-002
1.506157e+003,1.531203e-002
1.508085e+003,1.552184e-002
1.510014e+003,1.568274e-002
1.511942e+003,1.580802e-002
1.513871e+003,1.593775e-002
1.515799e+003,1.589683e-002
1.517728e+003,1.574160e-002
1.519656e+003,1.556754e-002
1.521585e+003,1.535002e-002
1.523513e+003,1.512097e-002
1.525442e+003,1.500899e-002
1.527370e+003,1.498834e-002
1.529299e+003,1.496954e-002
1.531227e+003,1.492622e-002
1.533156e+003,1.481316e-002
1.535084e+003,1.479729e-002
1.537013e+003,1.481220e-002
1.538941e+003,1.479828e-002
1.540870e+003,1.476203e-002
1.542798e+003,1.468160e-002
1.544727e+003,1.462449e-002
1.546655e+003,1.457510e-002
1.548584e+003,1.451013e-002
1.550512e+003,1.443547e-002
1.552441e+003,1.435426e-002
1.554369e+003,1.427820e-002
1.556298e+003,1.417857e-002
1.558226e+003,1.406845e-002
1.560155e+003,1.409759e-002
1.562083e+003,1.403526e-002
1.564012e+003,1.400558e-002
1.565940e+003,1.401353e-002
1.567869e+003,1.400129e-002
1.569797e+003,1.406872e-002
1.571726e+003,1.418458e-002
1.573654e+003,1.425680e-002
1.575583e+003,1.446661e-002
1.577511e+003,1.462467e-002
1.579440e+003,1.477180e-002
1.581368e+003,1.498737e-002
1.583297e+003,1.522306e-002
1.585225e+003,1.549150e-002
1.587154e+003,1.572476e-002
1.589082e+003,1.599849e-002
1.591010e+003,1.626505e-002
1.592939e+003,1.650797e-002
1.594868e+003,1.669142e-002
1.596796e+003,1.685531e-002
1.598724e+003,1.700953e-002
1.600653e+003,1.717376e-002
1.602582e+003,1.730063e-002
1.604510e+003,1.738723e-002
1.606438e+003,1.748829e-002
1.608367e+003,1.762737e-002
1.610296e+003,1.779642e-002
1.612224e+003,1.799334e-002
1.614152e+003,1.822823e-002
1.616081e+003,1.853835e-002
1.618010e+003,1.883960e-002
1.619938e+003,1.905921e-002
1.621866e+003,1.928418e-002
1.623795e+003,1.949172e-002
1.625724e+003,1.964792e-002
1.627652e+003,1.970847e-002
1.629580e+003,1.962596e-002
1.631509e+003,1.951468e-002
1.633438e+003,1.939381e-002
1.635366e+003,1.923676e-002
1.637294e+003,1.909164e-002
1.639223e+003,1.890620e-002
1.641151e+003,1.878514e-002
1.643080e+003,1.868418e-002
1.645008e+003,1.863864e-002
1.646937e+003,1.852256e-002
1.648865e+003,1.846830e-002
1.650794e+003,1.846003e-002
1.652722e+003,1.834848e-002
1.654651e+003,1.817224e-002
1.656579e+003,1.798397e-002
1.658508e+003,1.777013e-002
1.660436e+003,1.746122e-002
1.662365e+003,1.709078e-002
1.664293e+003,1.678474e-002
1.666222e+003,1.648044e-002
1.668150e+003,1.614479e-002
1.670079e+003,1.584986e-002
1.672007e+003,1.559334e-002
1.673936e+003,1.530923e-002
1.675864e+003,1.507917e-002
1.677793e+003,1.485103e-002
1.679721e+003,1.459783e-002
1.681650e+003,1.428916e-002
1.683578e+003,1.410514e-002
1.685507e+003,1.402306e-002
1.687435e+003,1.379453e-002
1.689364e+003,1.367023e-002
1.691292e+003,1.356735e-002
1.693221e+003,1.349806e-002
1.695149e+003,1.342946e-002
1.697078e+003,1.331606e-002
1.699006e+003,1.305969e-002
1.700935e+003,1.291579e-002
1.702863e+003,1.281650e-002
1.704792e+003,1.281182e-002
1.706720e+003,1.285764e-002
1.708649e+003,1.290847e-002
1.710577e+003,1.297311e-002
1.712506e+003,1.311644e-002
1.714434e+003,1.326723e-002
1.716363e+003,1.345048e-002
1.718291e+003,1.357527e-002
1.720220e+003,1.368793e-002
1.722148e+003,1.386608e-002
1.724077e+003,1.402581e-002
1.726005e+003,1.414804e-002
1.727934e+003,1.424888e-002
1.729862e+003,1.424611e-002
1.731791e+003,1.421730e-002
1.733719e+003,1.406835e-002
1.735648e+003,1.385546e-002
1.737576e+003,1.351944e-002
1.739505e+003,1.313807e-002
1.741433e+003,1.268428e-002
1.743362e+003,1.225491e-002
1.745290e+003,1.186850e-002
1.747219e+003,1.151306e-002
1.749147e+003,1.116966e-002
1.751076e+003,1.081940e-002
1.753004e+003,1.046350e-002
1.754933e+003,1.013844e-002
1.756861e+003,9.870198e-003
1.758790e+003,9.649828e-003
1.760718e+003,9.394867e-003
1.762647e+003,9.178661e-003
1.764575e+003,8.999631e-003
1.766504e+003,8.842990e-003
1.768432e+003,8.738820e-003
1.770361e+003,8.683440e-003
1.772289e+003,8.661874e-003
1.774218e+003,8.634516e-003
1.776146e+003,8.583362e-003
1.778075e+003,8.549613e-003
1.780003e+003,8.516329e-003
1.781932e+003,8.514819e-003
1.783860e+003,8.500356e-003
1.785789e+003,8.484711e-003
1.787717e+003,8.417335e-003
1.789646e+003,8.432960e-003
1.791574e+003,8.392358e-003
1.793503e+003,8.327921e-003
1.795431e+003,8.372673e-003
1.797360e+003,8.450876e-003
1.799288e+003,8.428723e-003
1.801217e+003,8.422040e-003
1.803145e+003,8.438849e-003
1.805074e+003,8.412427e-003
1.807002e+003,8.354265e-003
1.808931e+003,8.366970e-003
1.810859e+003,8.425361e-003
1.812788e+003,8.432365e-003
1.814716e+003,8.390646e-003
1.816645e+003,8.374845e-003
1.818573e+003,8.383967e-003
1.820502e+003,8.414983e-003
1.822430e+003,8.374337e-003
1.824359e+003,8.376779e-003
1.826287e+003,8.368467e-003
1.828216e+003,8.326111e-003
1.830144e+003,8.325761e-003
1.832073e+003,8.366453e-003
1.834001e+003,8.389195e-003
1.835930e+003,8.435519e-003
1.837858e+003,8.415014e-003
1.839787e+003,8.290378e-003
1.841715e+003,8.166911e-003
1.843644e+003,8.109626e-003
1.845572e+003,8.219311e-003
1.847501e+003,8.253432e-003
1.849429e+003,8.275355e-003
1.851358e+003,8.166564e-003
1.853286e+003,8.053716e-003
1.855215e+003,8.159686e-003
1.857143e+003,8.155269e-003
1.859072e+003,8.050909e-003
1.861000e+003,8.030414e-003
1.862929e+003,8.055362e-003
1.864857e+003,8.063876e-003
1.866786e+003,7.945574e-003
1.868714e+003,7.938188e-003
1.870643e+003,8.032787e-003
1.872571e+003,8.096388e-003
1.874500e+003,8.034043e-003
1.876428e+003,8.059757e-003
1.878357e+003,8.039515e-003
1.880285e+003,8.095806e-003
1.882214e+003,8.112592e-003
1.884142e+003,8.006998e-003
1.886071e+003,8.067719e-003
1.887999e+003,8.086561e-003
1.889928e+003,7.894844e-003
1.891856e+003,7.781575e-003
1.893785e+003,7.882643e-003
1.895713e+003,7.869164e-003
1.897642e+003,7.891702e-003
1.899570e+003,7.807011e-003
1.901499e+003,7.864155e-003
1.903427e+003,7.828831e-003
1.905356e+003,7.563606e-003
1.907284e+003,7.603150e-003
1.909213e+003,7.806972e-003
1.911141e+003,7.574619e-003
1.913070e+003,7.261636e-003
1.914998e+003,7.272942e-003
1.916927e+003,7.405384e-003
1.918855e+003,7.405523e-003
1.920784e+003,7.286525e-003
1.922712e+003,7.195279e-003
1.924641e+003,7.256876e-003
1.926569e+003,7.366026e-003
1.928498e+003,7.335565e-003
1.930426e+003,7.341089e-003
1.932355e+003,7.233736e-003
1.934283e+003,7.080052e-003
1.936212e+003,6.708399e-003
1.938140e+003,6.618681e-003
1.940069e+003,6.890885e-003
1.941997e+003,6.816391e-003
1.943926e+003,6.875569e-003
1.945854e+003,6.549089e-003
1.947783e+003,6.236269e-003
1.949711e+003,5.975678e-003
1.951640e+003,5.475454e-003
1.953568e+003,5.674276e-003
1.955497e+003,5.550965e-003
1.957425e+003,4.539028e-003
1.959354e+003,3.918803e-003
1.961282e+003,4.185876e-003
1.963211e+003,4.273002e-003
1.965139e+003,3.972492e-003
1.967068e+003,3.524627e-003
1.968996e+003,2.556301e-003
1.970925e+003,1.956509e-003
1.972853e+003,1.731792e-003
1.974782e+003,1.398616e-003
1.976710e+003,8.780389e-004
1.978639e+003,1.468338e-003
1.980567e+003,1.902997e-003
1.982496e+003,2.023517e-003
1.984424e+003,2.711478e-003
1.986353e+003,3.167287e-003
1.988281e+003,3.452218e-003
1.990210e+003,3.037924e-003
1.992138e+003,3.047425e-003
1.994067e+003,3.487685e-003
1.995995e+003,3.624824e-003
1.997924e+003,3.044400e-003
1.999852e+003,3.090961e-003
2.001781e+003,2.703075e-003
2.003709e+003,2.752750e-003
2.005638e+003,2.631751e-003
2.007566e+003,1.984623e-003
2.009495e+003,1.296358e-003
2.011423e+003,1.262262e-003
2.013352e+003,1.497036e-003
2.015280e+003,1.344415e-003
2.017208e+003,1.319633e-003
2.019137e+003,7.727809e-004
2.021066e+003,5.322401e-004
2.022994e+003,3.668272e-004
2.024922e+003,8.274189e-005
2.026851e+003,4.591689e-004
2.028780e+003,1.205964e-003
2.030708e+003,2.085802e-004
2.032636e+003,-6.683354e-004
2.034565e+003,-4.754433e-004
2.036494e+003,3.899573e-004
2.038422e+003,1.675512e-003
2.040350e+003,1.520672e-003
2.042279e+003,1.134041e-003
2.044208e+003,1.235951e-003
2.046136e+003,1.813948e-003
2.048064e+003,2.069605e-003
2.049993e+003,2.478452e-003
2.051921e+003,3.623565e-003
2.053850e+003,4.156287e-003
2.055778e+003,3.805727e-003
2.057707e+003,3.480055e-003
2.059635e+003,3.763122e-003
2.061564e+003,4.083256e-003
2.063492e+003,4.247837e-003
2.065421e+003,4.667179e-003
2.067349e+003,4.722831e-003
2.069278e+003,4.876419e-003
2.071206e+003,5.044889e-003
2.073135e+003,5.250505e-003
2.075063e+003,4.963532e-003
2.076992e+003,4.783744e-003
2.078920e+003,5.051126e-003
2.080849e+003,5.505951e-003
2.082777e+003,5.706430e-003
2.084706e+003,5.792240e-003
2.086634e+003,5.902365e-003
2.088563e+003,5.988393e-003
2.090491e+003,6.033917e-003
2.092420e+003,5.974347e-003
2.094348e+003,6.084015e-003
2.096277e+003,6.066343e-003
2.098205e+003,6.148565e-003
2.100134e+003,6.230371e-003
2.102062e+003,6.290239e-003
2.103991e+003,6.299652e-003
2.105919e+003,6.367734e-003
2.107848e+003,6.459872e-003
2.109776e+003,6.758379e-003
2.111705e+003,6.740374e-003
2.113633e+003,6.621093e-003
2.115562e+003,6.440131e-003
2.117490e+003,6.458830e-003
2.119419e+003,6.527509e-003
2.121347e+003,6.652786e-003
2.123276e+003,6.621093e-003
2.125204e+003,6.462832e-003
2.127133e+003,6.834073e-003
2.129061e+003,6.719409e-003
2.130990e+003,6.015101e-003
2.132918e+003,6.304594e-003
2.134847e+003,6.308863e-003
2.136775e+003,5.782711e-003
2.138704e+003,5.797016e-003
2.140632e+003,5.885270e-003
2.142561e+003,5.184491e-003
2.144489e+003,4.882675e-003
2.146418e+003,4.489996e-003
2.148346e+003,4.185718e-003
2.150275e+003,3.722380e-003
2.152203e+003,1.893657e-003
2.154132e+003,2.036233e-004
2.156060e+003,4.475400e-004
2.157989e+003,8.854318e-005
2.159917e+003,-1.178105e-003
2.161846e+003,-4.764413e-005
2.163774e+003,5.857408e-004
2.165703e+003,9.558084e-004
2.167631e+003,2.462632e-003
2.169560e+003,2.365508e-003
2.171488e+003,2.431943e-003
2.173417e+003,2.483359e-003
2.175345e+003,2.824832e-003
2.177274e+003,2.816761e-003
2.179202e+003,2.284960e-003
2.181131e+003,2.323366e-003
2.183059e+003,1.955227e-003
2.184988e+003,2.071070e-003
2.186916e+003,2.730260e-003
2.188845e+003,2.947544e-003
2.190773e+003,3.318262e-003
2.192702e+003,3.629952e-003
2.194630e+003,4.040581e-003
2.196559e+003,4.229178e-003
2.198487e+003,4.533755e-003
2.200416e+003,4.341880e-003
2.202344e+003,4.100751e-003
2.204273e+003,4.504895e-003
2.206201e+003,4.808292e-003
2.208130e+003,4.889008e-003
2.210058e+003,5.162662e-003
2.211987e+003,4.950803e-003
2.213915e+003,4.437405e-003
2.215844e+003,5.032383e-003
2.217772e+003,5.549976e-003
2.219701e+003,5.385629e-003
2.221629e+003,5.494202e-003
2.223558e+003,6.064523e-003
2.225486e+003,6.468213e-003
2.227415e+003,6.502484e-003
2.229343e+003,6.587822e-003
2.231272e+003,6.580025e-003
2.233200e+003,6.803293e-003
2.235129e+003,7.248539e-003
2.237057e+003,7.340073e-003
2.238986e+003,7.601210e-003
2.240914e+003,7.794595e-003
2.242843e+003,7.710600e-003
2.244771e+003,7.477453e-003
2.246700e+003,7.203643e-003
2.248628e+003,7.197360e-003
2.250557e+003,7.080636e-003
2.252485e+003,7.215839e-003
2.254414e+003,7.194839e-003
2.256342e+003,6.972817e-003
2.258271e+003,7.318892e-003
2.260199e+003,7.492426e-003
2.262128e+003,7.465873e-003
2.264056e+003,7.740296e-003
2.265985e+003,7.849916e-003
2.267913e+003,7.715643e-003
2.269842e+003,7.681284e-003
2.271770e+003,8.060038e-003
2.273699e+003,8.066851e-003
2.275627e+003,7.914335e-003
2.277556e+003,8.093204e-003
2.279484e+003,8.170147e-003
2.281413e+003,8.390046e-003
2.283341e+003,8.449096e-003
2.285270e+003,8.243465e-003
2.287198e+003,8.228602e-003
2.289127e+003,8.329815e-003
2.291055e+003,8.616400e-003
2.292984e+003,8.871480e-003
2.294912e+003,8.882641e-003
2.296841e+003,8.862524e-003
2.298769e+003,8.810601e-003
2.300698e+003,8.781753e-003
2.302626e+003,9.046638e-003
2.304555e+003,9.121958e-003
2.306483e+003,9.111797e-003
2.308412e+003,9.101143e-003
2.310340e+003,9.154476e-003
2.312269e+003,9.231691e-003
2.314197e+003,9.252978e-003
2.316125e+003,9.499973e-003
2.318054e+003,9.588188e-003
2.319983e+003,9.630014e-003
2.321911e+003,9.561931e-003
2.323840e+003,9.630091e-003
2.325768e+003,9.971853e-003
2.327697e+003,9.904770e-003
2.329625e+003,9.848828e-003
2.331553e+003,1.003784e-002
2.333482e+003,9.940241e-003
2.335411e+003,9.941440e-003
2.337339e+003,9.835221e-003
2.339268e+003,9.916290e-003
2.341196e+003,9.680153e-003
2.343125e+003,9.823213e-003
2.345053e+003,9.555364e-003
2.346981e+003,9.400032e-003
2.348910e+003,9.166808e-003
2.350839e+003,9.153332e-003
2.352767e+003,9.057176e-003
2.354696e+003,8.770250e-003
2.356624e+003,8.785025e-003
2.358552e+003,8.768088e-003
2.360481e+003,8.668571e-003
2.362409e+003,8.533197e-003
2.364338e+003,8.789228e-003
2.366267e+003,8.795365e-003
2.368195e+003,8.503228e-003
2.370124e+003,8.265140e-003
2.372052e+003,8.611659e-003
2.373980e+003,8.759367e-003
2.375909e+003,8.979567e-003
2.377838e+003,8.970648e-003
2.379766e+003,8.897533e-003
2.381695e+003,8.951798e-003
2.383623e+003,8.955766e-003
2.385552e+003,8.837179e-003
2.387480e+003,8.853161e-003
2.389408e+003,8.985331e-003
2.391337e+003,9.136248e-003
2.393266e+003,9.177111e-003
2.395194e+003,9.240415e-003
2.397123e+003,9.228574e-003
2.399051e+003,9.339342e-003
2.400979e+003,9.419775e-003
2.402908e+003,9.599272e-003
2.404836e+003,9.762951e-003
2.406765e+003,9.753767e-003
2.408694e+003,9.838425e-003
2.410622e+003,9.833849e-003
2.412551e+003,9.807312e-003
2.414479e+003,9.892793e-003
2.416407e+003,9.903064e-003
2.418336e+003,9.852660e-003
2.420264e+003,9.891233e-003
2.422193e+003,9.862015e-003
2.424122e+003,9.690844e-003
2.426050e+003,9.694673e-003
2.427979e+003,9.681392e-003
2.429907e+003,9.676005e-003
2.431835e+003,9.767627e-003
2.433764e+003,9.748752e-003
2.435692e+003,9.568008e-003
2.437621e+003,9.482726e-003
2.439550e+003,9.394379e-003
2.441478e+003,9.318950e-003
2.443406e+003,9.335233e-003
2.445335e+003,9.480152e-003
2.447263e+003,9.506398e-003
2.449192e+003,9.476020e-003
2.451121e+003,9.359269e-003
2.453049e+003,9.363333e-003
2.454978e+003,9.386796e-003
2.456906e+003,9.416016e-003
2.458834e+003,9.371865e-003
2.460763e+003,9.369088e-003
2.462691e+003,9.305273e-003
2.464620e+003,9.246612e-003
2.466549e+003,9.264213e-003
2.468477e+003,9.365804e-003
2.470406e+003,9.360963e-003
2.472334e+003,9.343493e-003
2.474262e+003,9.391773e-003
2.476191e+003,9.386152e-003
2.478119e+003,9.432371e-003
2.480048e+003,9.523908e-003
2.481977e+003,9.539691e-003
2.483905e+003,9.558862e-003
2.485833e+003,9.568109e-003
2.487762e+003,9.511884e-003
2.489690e+003,9.490075e-003
2.491619e+003,9.521300e-003
2.493547e+003,9.545178e-003
2.495476e+003,9.573494e-003
2.497405e+003,9.634164e-003
2.499333e+003,9.696977e-003
2.501261e+003,9.730353e-003
2.503190e+003,9.778675e-003
2.505118e+003,9.798060e-003
2.507047e+003,9.707989e-003
2.508975e+003,9.780912e-003
2.510904e+003,9.889538e-003
2.512833e+003,9.803075e-003
2.514761e+003,9.794095e-003
2.516689e+003,9.757834e-003
2.518618e+003,9.644125e-003
2.520546e+003,9.779048e-003
2.522475e+003,9.947202e-003
2.524403e+003,9.995955e-003
2.526332e+003,9.961915e-003
2.528260e+003,9.989038e-003
2.530189e+003,1.011701e-002
2.532117e+003,1.015687e-002
2.534046e+003,1.008269e-002
2.535974e+003,1.005363e-002
2.537903e+003,1.005451e-002
2.539831e+003,1.011654e-002
2.541760e+003,1.005089e-002
2.543688e+003,1.010562e-002
2.545617e+003,1.006760e-002
2.547545e+003,1.006255e-002
2.549474e+003,1.017077e-002
2.551402e+003,1.016891e-002
2.553331e+003,1.007656e-002
2.555259e+003,1.015927e-002
2.557188e+003,1.028791e-002
2.559116e+003,1.023655e-002
2.561045e+003,1.016385e-002
2.562973e+003,1.016128e-002
2.564902e+003,1.016138e-002
2.566830e+003,1.016229e-002
2.568759e+003,1.031543e-002
2.570687e+003,1.026376e-002
2.572616e+003,1.020778e-002
2.574544e+003,1.023468e-002
2.576473e+003,1.027224e-002
2.578401e+003,1.028554e-002
2.580330e+003,1.026586e-002
2.582258e+003,1.020659e-002
2.584187e+003,1.018088e-002
2.586115e+003,1.016277e-002
2.588044e+003,1.017834e-002
2.589972e+003,1.023641e-002
2.591901e+003,1.028981e-002
2.593829e+003,1.039008e-002
2.595758e+003,1.045267e-002
2.597686e+003,1.041710e-002
2.599615e+003,1.043339e-002
2.601543e+003,1.042860e-002
2.603472e+003,1.038608e-002
2.605400e+003,1.032815e-002
2.607329e+003,1.036999e-002
2.609257e+003,1.038696e-002
2.611186e+003,1.032568e-002
2.613114e+003,1.025487e-002
2.615043e+003,1.029741e-002
2.616971e+003,1.042921e-002
2.618900e+003,1.050185e-002
2.620828e+003,1.049017e-002
2.622757e+003,1.040956e-002
2.624685e+003,1.037325e-002
2.626614e+003,1.041910e-002
2.628542e+003,1.044364e-002
2.630471e+003,1.041475e-002
2.632399e+003,1.039443e-002
2.634328e+003,1.040125e-002
2.636256e+003,1.040844e-002
2.638185e+003,1.049299e-002
2.640113e+003,1.051566e-002
2.642042e+003,1.051797e-002
2.643970e+003,1.063038e-002
2.645899e+003,1.067575e-002
2.647827e+003,1.066600e-002
2.649756e+003,1.065609e-002
2.651684e+003,1.067707e-002
2.653613e+003,1.071637e-002
2.655541e+003,1.078830e-002
2.657470e+003,1.082183e-002
2.659398e+003,1.080685e-002
2.661327e+003,1.088733e-002
2.663255e+003,1.095189e-002
2.665184e+003,1.093870e-002
2.667112e+003,1.095892e-002
2.669041e+003,1.100109e-002
2.670969e+003,1.102199e-002
2.672898e+003,1.105513e-002
2.674826e+003,1.115748e-002
2.676755e+003,1.116428e-002
2.678683e+003,1.118244e-002
2.680612e+003,1.120161e-002
2.682540e+003,1.124061e-002
2.684469e+003,1.126843e-002
2.686397e+003,1.128574e-002
2.688326e+003,1.130781e-002
2.690254e+003,1.130468e-002
2.692183e+003,1.130648e-002
2.694111e+003,1.131379e-002
2.696040e+003,1.132522e-002
2.697968e+003,1.134610e-002
2.699897e+003,1.134780e-002
2.701825e+003,1.135301e-002
2.703754e+003,1.137926e-002
2.705682e+003,1.135678e-002
2.707611e+003,1.135783e-002
2.709539e+003,1.141692e-002
2.711468e+003,1.137107e-002
2.713396e+003,1.133495e-002
2.715325e+003,1.137137e-002
2.717253e+003,1.141498e-002
2.719182e+003,1.140056e-002
2.721110e+003,1.137722e-002
2.723039e+003,1.142569e-002
2.724967e+003,1.140930e-002
2.726896e+003,1.136692e-002
2.728824e+003,1.138675e-002
2.730753e+003,1.147339e-002
2.732681e+003,1.148104e-002
2.734610e+003,1.149336e-002
2.736538e+003,1.150425e-002
2.738467e+003,1.149040e-002
2.740395e+003,1.143563e-002
2.742324e+003,1.145464e-002
2.744252e+003,1.148601e-002
2.746181e+003,1.153538e-002
2.748109e+003,1.157948e-002
2.750038e+003,1.153211e-002
2.751966e+003,1.151381e-002
2.753895e+003,1.154392e-002
2.755823e+003,1.158050e-002
2.757752e+003,1.159347e-002
2.759680e+003,1.160075e-002
2.761609e+003,1.166803e-002
2.763537e+003,1.165643e-002
2.765466e+003,1.170136e-002
2.767394e+003,1.172964e-002
2.769323e+003,1.170714e-002
2.771251e+003,1.165210e-002
2.773180e+003,1.169993e-002
2.775108e+003,1.174428e-002
2.777037e+003,1.175048e-002
2.778965e+003,1.174741e-002
2.780894e+003,1.180648e-002
2.782822e+003,1.183869e-002
2.784750e+003,1.184611e-002
2.786679e+003,1.180757e-002
2.788608e+003,1.185902e-002
2.790536e+003,1.189440e-002
2.792465e+003,1.191408e-002
2.794393e+003,1.193138e-002
2.796322e+003,1.191837e-002
2.798250e+003,1.194617e-002
2.800178e+003,1.200291e-002
2.802107e+003,1.203987e-002
2.804036e+003,1.205213e-002
2.805964e+003,1.208252e-002
2.807893e+003,1.210490e-002
2.809821e+003,1.213427e-002
2.811750e+003,1.220829e-002
2.813678e+003,1.225900e-002
2.815606e+003,1.222056e-002
2.817535e+003,1.224479e-002
2.819464e+003,1.232662e-002
2.821392e+003,1.238335e-002
2.823321e+003,1.245096e-002
2.825249e+003,1.253966e-002
2.827177e+003,1.263056e-002
2.829106e+003,1.270001e-002
2.831034e+003,1.277897e-002
2.832963e+003,1.280081e-002
2.834892e+003,1.289094e-002
2.836820e+003,1.295747e-002
2.838749e+003,1.302657e-002
2.840677e+003,1.320289e-002
2.842605e+003,1.339916e-002
2.844534e+003,1.356066e-002
2.846462e+003,1.370870e-002
2.848391e+003,1.390965e-002
2.850320e+003,1.407199e-002
2.852248e+003,1.418032e-002
2.854177e+003,1.426783e-002
2.856105e+003,1.426379e-002
2.858033e+003,1.417231e-002
2.859962e+003,1.412056e-002
2.861890e+003,1.417556e-002
2.863819e+003,1.427821e-002
2.865748e+003,1.435269e-002
2.867676e+003,1.429783e-002
2.869604e+003,1.429886e-002
2.871533e+003,1.435276e-002
2.873461e+003,1.437519e-002
2.875390e+003,1.435947e-002
2.877319e+003,1.437125e-002
2.879247e+003,1.437927e-002
2.881176e+003,1.436526e-002
2.883104e+003,1.438187e-002
2.885032e+003,1.439927e-002
2.886961e+003,1.443715e-002
2.888889e+003,1.448264e-002
2.890818e+003,1.452393e-002
2.892747e+003,1.457189e-002
2.894675e+003,1.459571e-002
2.896604e+003,1.464883e-002
2.898532e+003,1.464722e-002
2.900460e+003,1.468419e-002
2.902389e+003,1.466085e-002
2.904317e+003,1.466476e-002
2.906246e+003,1.469503e-002
2.908175e+003,1.471871e-002
2.910103e+003,1.470246e-002
2.912031e+003,1.473602e-002
2.913960e+003,1.481894e-002
2.915888e+003,1.492709e-002
2.917817e+003,1.500079e-002
2.919745e+003,1.503478e-002
2.921674e+003,1.503190e-002
2.923603e+003,1.500714e-002
2.925531e+003,1.496084e-002
2.927459e+003,1.492761e-002
2.929388e+003,1.482320e-002
2.931316e+003,1.464667e-002
2.933245e+003,1.449765e-002
2.935173e+003,1.435154e-002
2.937102e+003,1.422512e-002
2.939031e+003,1.411657e-002
2.940959e+003,1.402545e-002
2.942887e+003,1.393677e-002
2.944816e+003,1.377508e-002
2.946744e+003,1.355344e-002
2.948673e+003,1.339245e-002
2.950601e+003,1.331291e-002
2.952530e+003,1.323495e-002
2.954458e+003,1.306160e-002
2.956387e+003,1.302648e-002
2.958315e+003,1.303925e-002
2.960244e+003,1.295790e-002
2.962172e+003,1.283033e-002
2.964101e+003,1.267612e-002
2.966029e+003,1.258482e-002
2.967958e+003,1.252126e-002
2.969886e+003,1.244281e-002
2.971815e+003,1.241517e-002
2.973743e+003,1.235601e-002
2.975672e+003,1.231410e-002
2.977600e+003,1.218769e-002
2.979529e+003,1.210378e-002
2.981457e+003,1.205042e-002
2.983386e+003,1.203293e-002
2.985314e+003,1.200908e-002
2.987243e+003,1.194077e-002
2.989171e+003,1.188271e-002
2.991100e+003,1.180542e-002
2.993028e+003,1.179396e-002
2.994957e+003,1.178843e-002
2.996885e+003,1.177590e-002
2.998814e+003,1.179968e-002
3.000742e+003,1.186638e-002
3.002671e+003,1.183069e-002
3.004599e+003,1.177175e-002
3.006528e+003,1.179164e-002
3.008456e+003,1.187140e-002
3.010385e+003,1.185796e-002
3.012313e+003,1.185157e-002
3.014242e+003,1.186341e-002
3.016170e+003,1.187356e-002
3.018099e+003,1.186731e-002
3.020027e+003,1.188351e-002
3.021956e+003,1.195436e-002
3.023884e+003,1.199868e-002
3.025813e+003,1.201356e-002
3.027741e+003,1.198495e-002
3.029670e+003,1.199590e-002
3.031598e+003,1.202935e-002
3.033527e+003,1.204177e-002
3.035455e+003,1.207993e-002
3.037384e+003,1.209863e-002
3.039312e+003,1.219039e-002
3.041241e+003,1.227117e-002
3.043169e+003,1.223934e-002
3.045098e+003,1.226743e-002
3.047026e+003,1.229601e-002
3.048955e+003,1.234270e-002
3.050883e+003,1.238066e-002
3.052812e+003,1.235436e-002
3.054740e+003,1.239093e-002
3.056669e+003,1.245705e-002
3.058597e+003,1.253401e-002
3.060526e+003,1.251514e-002
3.062454e+003,1.259626e-002
3.064383e+003,1.260306e-002
3.066311e+003,1.261933e-002
3.068240e+003,1.272293e-002
3.070168e+003,1.279216e-002
3.072097e+003,1.280907e-002
3.074025e+003,1.279070e-002
3.075954e+003,1.280460e-002
3.077882e+003,1.280707e-002
3.079811e+003,1.282861e-002
3.081739e+003,1.295731e-002
3.083668e+003,1.306285e-002
3.085596e+003,1.305169e-002
3.087525e+003,1.302819e-002
3.089453e+003,1.311361e-002
3.091382e+003,1.311126e-002
3.093310e+003,1.312979e-002
3.095239e+003,1.323676e-002
3.097167e+003,1.328086e-002
3.099096e+003,1.327201e-002
3.101024e+003,1.329896e-002
3.102953e+003,1.335240e-002
3.104881e+003,1.335061e-002
3.106810e+003,1.332872e-002
3.108738e+003,1.336410e-002
3.110667e+003,1.350190e-002
3.112595e+003,1.351574e-002
3.114524e+003,1.351073e-002
3.116452e+003,1.358171e-002
3.118381e+003,1.361021e-002
3.120309e+003,1.362673e-002
3.122238e+003,1.374183e-002
3.124166e+003,1.385623e-002
3.126095e+003,1.388337e-002
3.128023e+003,1.395976e-002
3.129952e+003,1.408201e-002
3.131880e+003,1.409115e-002
3.133809e+003,1.411466e-002
3.135737e+003,1.418157e-002
3.137666e+003,1.415947e-002
3.139594e+003,1.413351e-002
3.141523e+003,1.425154e-002
3.143451e+003,1.433347e-002
3.145380e+003,1.431852e-002
3.147308e+003,1.438596e-002
3.149237e+003,1.452180e-002
3.151165e+003,1.450588e-002
3.153094e+003,1.456560e-002
3.155022e+003,1.468212e-002
3.156951e+003,1.469237e-002
3.158879e+003,1.469955e-002
3.160808e+003,1.481019e-002
3.162736e+003,1.494247e-002
3.164665e+003,1.500208e-002
3.166593e+003,1.500887e-002
3.168522e+003,1.500503e-002
3.170450e+003,1.510973e-002
3.172379e+003,1.520732e-002
3.174307e+003,1.529202e-002
3.176236e+003,1.539111e-002
3.178164e+003,1.540137e-002
3.180093e+003,1.542824e-002
3.182021e+003,1.550006e-002
3.183950e+003,1.555368e-002
3.185878e+003,1.558014e-002
3.187807e+003,1.569447e-002
3.189735e+003,1.580390e-002
3.191664e+003,1.584088e-002
3.193592e+003,1.591828e-002
3.195521e+003,1.602208e-002
3.197449e+003,1.610858e-002
3.199378e+003,1.612053e-002
3.201306e+003,1.614456e-002
3.203235e+003,1.624346e-002
3.205163e+003,1.634995e-002
3.207092e+003,1.643451e-002
3.209020e+003,1.651082e-002
3.210948e+003,1.651881e-002
3.212877e+003,1.659268e-002
3.214806e+003,1.665604e-002
3.216734e+003,1.675436e-002
3.218663e+003,1.686605e-002
3.220591e+003,1.688725e-002
3.222520e+003,1.697270e-002
3.224448e+003,1.706509e-002
3.226376e+003,1.714434e-002
3.228305e+003,1.722744e-002
3.230234e+003,1.727436e-002
3.232162e+003,1.721731e-002
3.234091e+003,1.733743e-002
3.236019e+003,1.744612e-002
3.237948e+003,1.751961e-002
3.239876e+003,1.760136e-002
3.241804e+003,1.769935e-002
3.243733e+003,1.779370e-002
3.245662e+003,1.784245e-002
3.247590e+003,1.790691e-002
3.249519e+003,1.797280e-002
3.251447e+003,1.800555e-002
3.253375e+003,1.810362e-002
3.255304e+003,1.822497e-002
3.257232e+003,1.833903e-002
3.259161e+003,1.841441e-002
3.261090e+003,1.848341e-002
3.263018e+003,1.859629e-002
3.264947e+003,1.863210e-002
3.266875e+003,1.868441e-002
3.268803e+003,1.873004e-002
3.270732e+003,1.869305e-002
3.272660e+003,1.872609e-002
3.274589e+003,1.879686e-002
3.276518e+003,1.889694e-002
3.278446e+003,1.902024e-002
3.280375e+003,1.895917e-002
3.282303e+003,1.894852e-002
3.284231e+003,1.903310e-002
3.286160e+003,1.909610e-002
3.288088e+003,1.907517e-002
3.290017e+003,1.902828e-002
3.291946e+003,1.908677e-002
3.293874e+003,1.904342e-002
3.295802e+003,1.901909e-002
3.297731e+003,1.907644e-002
3.299659e+003,1.911519e-002
3.301588e+003,1.916148e-002
3.303516e+003,1.922788e-002
3.305445e+003,1.911940e-002
3.307374e+003,1.899468e-002
3.309302e+003,1.897999e-002
3.311230e+003,1.903808e-002
3.313159e+003,1.910417e-002
3.315087e+003,1.916133e-002
3.317016e+003,1.921878e-002
3.318944e+003,1.929060e-002
3.320873e+003,1.924115e-002
3.322802e+003,1.914405e-002
3.324730e+003,1.920382e-002
3.326658e+003,1.919190e-002
3.328587e+003,1.919044e-002
3.330515e+003,1.922094e-002
3.332444e+003,1.919530e-002
3.334372e+003,1.913849e-002
3.336301e+003,1.917993e-002
3.338229e+003,1.919679e-002
3.340158e+003,1.912981e-002
3.342086e+003,1.908777e-002
3.344015e+003,1.900689e-002
3.345943e+003,1.892886e-002
3.347872e+003,1.897699e-002
3.349800e+003,1.903284e-002
3.351729e+003,1.900124e-002
3.353657e+003,1.896915e-002
3.355586e+003,1.896733e-002
3.357514e+003,1.890822e-002
3.359443e+003,1.883956e-002
3.361371e+003,1.876583e-002
3.363300e+003,1.863726e-002
3.365229e+003,1.858569e-002
3.367157e+003,1.860364e-002
3.369085e+003,1.856034e-002
3.371014e+003,1.847484e-002
3.372942e+003,1.848421e-002
3.374871e+003,1.847229e-002
3.376799e+003,1.843865e-002
3.378728e+003,1.837855e-002
3.380656e+003,1.825369e-002
3.382585e+003,1.819931e-002
3.384513e+003,1.825943e-002
3.386442e+003,1.814523e-002
3.388370e+003,1.804839e-002
3.390299e+003,1.806295e-002
3.392227e+003,1.807759e-002
3.394156e+003,1.807709e-002
3.396084e+003,1.797750e-002
3.398013e+003,1.783398e-002
3.399941e+003,1.778217e-002
3.401870e+003,1.777938e-002
3.403798e+003,1.773984e-002
3.405727e+003,1.758051e-002
3.407655e+003,1.754293e-002
3.409584e+003,1.749541e-002
3.411512e+003,1.747273e-002
3.413441e+003,1.742425e-002
3.415369e+003,1.732159e-002
3.417298e+003,1.719828e-002
3.419226e+003,1.703725e-002
3.421155e+003,1.696472e-002
3.423083e+003,1.688203e-002
3.425012e+003,1.683088e-002
3.426940e+003,1.674164e-002
3.428869e+003,1.657765e-002
3.430797e+003,1.642486e-002
3.432726e+003,1.639848e-002
3.434654e+003,1.626071e-002
3.436583e+003,1.607724e-002
3.438511e+003,1.602068e-002
3.440440e+003,1.595415e-002
3.442368e+003,1.587513e-002
3.444297e+003,1.578286e-002
3.446225e+003,1.566509e-002
3.448154e+003,1.553653e-002
3.450082e+003,1.536655e-002
3.452011e+003,1.520610e-002
3.453939e+003,1.520838e-002
3.455868e+003,1.510705e-002
3.457796e+003,1.488113e-002
3.459725e+003,1.475279e-002
3.461653e+003,1.474263e-002
3.463582e+003,1.459732e-002
3.465510e+003,1.438911e-002
3.467439e+003,1.429022e-002
3.469367e+003,1.424158e-002
3.471296e+003,1.413813e-002
3.473224e+003,1.402521e-002
3.475153e+003,1.391024e-002
3.477081e+003,1.383939e-002
3.479010e+003,1.371303e-002
3.480938e+003,1.357343e-002
3.482867e+003,1.342849e-002
3.484795e+003,1.341651e-002
3.486724e+003,1.339735e-002
3.488652e+003,1.323906e-002
3.490581e+003,1.310729e-002
3.492509e+003,1.305423e-002
3.494438e+003,1.291342e-002
3.496366e+003,1.275434e-002
3.498295e+003,1.266789e-002
3.500223e+003,1.258568e-002
3.502152e+003,1.252074e-002
3.504080e+003,1.250393e-002
3.506009e+003,1.245789e-002
3.507937e+003,1.233468e-002
3.509866e+003,1.214307e-002
3.511794e+003,1.210870e-002
3.513723e+003,1.199153e-002
3.515651e+003,1.191772e-002
3.517580e+003,1.187248e-002
3.519508e+003,1.174740e-002
3.521437e+003,1.166543e-002
3.523365e+003,1.148000e-002
3.525294e+003,1.140582e-002
3.527222e+003,1.133387e-002
3.529151e+003,1.126402e-002
3.531079e+003,1.127161e-002
3.533008e+003,1.117514e-002
3.534936e+003,1.106982e-002
3.536865e+003,1.090649e-002
3.538793e+003,1.087131e-002
3.540722e+003,1.091348e-002
3.542650e+003,1.077940e-002
3.544579e+003,1.056176e-002
3.546507e+003,1.046002e-002
3.548436e+003,1.040910e-002
3.550364e+003,1.026461e-002
3.552293e+003,1.009069e-002
3.554221e+003,1.008030e-002
3.556150e+003,1.002521e-002
3.558078e+003,9.939738e-003
3.560007e+003,9.814175e-003
3.561935e+003,9.678979e-003
3.563864e+003,9.586507e-003
3.565792e+003,9.435828e-003
3.567721e+003,9.295592e-003
3.569649e+003,9.228891e-003
3.571578e+003,9.248937e-003
3.573506e+003,9.233036e-003
3.575435e+003,9.084490e-003
3.577363e+003,8.943428e-003
3.579292e+003,8.820552e-003
3.581220e+003,8.637373e-003
3.583149e+003,8.421939e-003
3.585077e+003,8.177292e-003
3.587006e+003,7.910015e-003
3.588934e+003,7.718910e-003
3.590863e+003,7.419843e-003
3.592791e+003,7.144421e-003
3.594720e+003,6.991512e-003
3.596648e+003,6.919113e-003
3.598577e+003,6.844096e-003
3.600505e+003,6.777307e-003
3.602434e+003,6.779215e-003
3.604362e+003,6.818546e-003
3.606291e+003,7.025895e-003
3.608219e+003,7.388135e-003
3.610148e+003,7.757588e-003
3.612076e+003,7.980358e-003
3.614005e+003,7.627343e-003
3.615933e+003,7.104158e-003
3.617862e+003,6.660698e-003
3.619790e+003,6.164636e-003
3.621719e+003,5.782633e-003
3.623647e+003,5.674180e-003
3.625576e+003,5.550171e-003
3.627504e+003,5.646872e-003
3.629433e+003,5.796722e-003
3.631361e+003,5.929895e-003
3.633290e+003,6.076877e-003
3.635218e+003,6.338786e-003
3.637146e+003,6.700397e-003
3.639075e+003,7.063278e-003
3.641004e+003,7.254581e-003
3.642932e+003,7.311507e-003
3.644861e+003,7.519951e-003
3.646789e+003,7.555619e-003
3.648718e+003,7.417350e-003
3.650646e+003,7.396125e-003
3.652574e+003,7.447323e-003
3.654503e+003,7.493981e-003
3.656432e+003,7.425286e-003
3.658360e+003,7.379580e-003
3.660289e+003,7.419114e-003
3.662217e+003,7.598669e-003
3.664146e+003,7.599124e-003
3.666074e+003,7.470268e-003
3.668002e+003,7.388094e-003
3.669931e+003,7.378052e-003
3.671860e+003,7.361764e-003
3.673788e+003,7.266428e-003
3.675717e+003,7.138469e-003
3.677645e+003,7.083404e-003
3.679573e+003,6.875133e-003
3.681502e+003,6.699477e-003
3.683430e+003,6.687402e-003
3.685359e+003,6.499678e-003
3.687288e+003,6.259994e-003
3.689216e+003,5.965958e-003
3.691145e+003,5.734147e-003
3.693073e+003,5.545782e-003
3.695001e+003,5.231627e-003
3.696930e+003,4.981873e-003
3.698858e+003,4.953760e-003
3.700787e+003,4.915484e-003
3.702716e+003,4.756672e-003
3.704644e+003,4.787163e-003
3.706573e+003,4.995159e-003
3.708501e+003,5.309991e-003
3.710429e+003,5.683921e-003
3.712358e+003,6.307768e-003
3.714286e+003,6.730498e-003
3.716215e+003,6.351860e-003
3.718144e+003,5.582639e-003
3.720072e+003,4.884932e-003
3.722000e+003,4.393552e-003
3.723929e+003,4.029819e-003
3.725857e+003,3.846487e-003
3.727786e+003,3.746423e-003
3.729714e+003,3.769880e-003
3.731643e+003,4.036969e-003
3.733572e+003,4.386547e-003
3.735500e+003,4.819741e-003
3.737428e+003,5.330471e-003
3.739357e+003,5.779282e-003
3.741285e+003,6.252520e-003
3.743214e+003,6.778084e-003
3.745142e+003,6.975734e-003
3.747071e+003,7.149729e-003
3.749000e+003,7.380128e-003
3.750928e+003,7.365678e-003
3.752856e+003,7.328449e-003
3.754785e+003,7.335677e-003
3.756713e+003,7.478755e-003
3.758642e+003,7.426065e-003
3.760570e+003,7.348838e-003
3.762499e+003,7.361941e-003
3.764427e+003,7.470599e-003
3.766356e+003,7.488890e-003
3.768284e+003,7.465437e-003
3.770213e+003,7.464135e-003
3.772141e+003,7.496848e-003
3.774070e+003,7.456417e-003
3.775998e+003,7.513649e-003
3.777927e+003,7.489195e-003
3.779855e+003,7.483941e-003
3.781784e+003,7.468171e-003
3.783712e+003,7.478915e-003
3.785641e+003,7.563743e-003
3.787569e+003,7.570791e-003
3.789498e+003,7.578740e-003
3.791426e+003,7.602110e-003
3.793355e+003,7.655849e-003
3.795283e+003,7.616618e-003
3.797212e+003,7.580686e-003
3.799140e+003,7.631539e-003
3.801069e+003,7.610209e-003
3.802997e+003,7.540418e-003
3.804926e+003,7.631361e-003
3.806854e+003,7.596107e-003
3.808783e+003,7.585356e-003
3.810711e+003,7.591916e-003
3.812640e+003,7.625320e-003
3.814568e+003,7.665594e-003
3.816497e+003,7.633349e-003
3.818425e+003,7.602316e-003
3.820354e+003,7.589968e-003
3.822282e+003,7.548335e-003
3.824211e+003,7.519218e-003
3.826139e+003,7.541633e-003
3.828068e+003,7.661484e-003
3.829996e+003,7.627823e-003
3.831925e+003,7.556158e-003
3.833853e+003,7.636897e-003
3.835782e+003,7.723760e-003
3.837710e+003,7.697399e-003
3.839639e+003,7.509621e-003
3.841567e+003,7.536034e-003
3.843496e+003,7.536863e-003
3.845424e+003,7.603385e-003
3.847353e+003,7.618228e-003
3.849281e+003,7.630547e-003
3.851210e+003,7.715208e-003
3.853138e+003,7.729079e-003
3.855067e+003,7.710860e-003
3.856995e+003,7.607050e-003
3.858924e+003,7.637181e-003
3.860852e+003,7.714391e-003
3.862781e+003,7.743638e-003
3.864709e+003,7.738461e-003
3.866638e+003,7.764497e-003
3.868566e+003,7.776449e-003
3.870495e+003,7.733955e-003
3.872423e+003,7.642291e-003
3.874352e+003,7.655655e-003
3.876280e+003,7.765837e-003
3.878209e+003,7.815129e-003
3.880137e+003,7.647635e-003
3.882066e+003,7.661169e-003
3.883994e+003,7.700952e-003
3.885923e+003,7.608669e-003
3.887851e+003,7.588865e-003
3.889780e+003,7.714489e-003
3.891708e+003,7.740426e-003
3.893637e+003,7.749964e-003
3.895565e+003,7.722219e-003
3.897494e+003,7.583625e-003
3.899422e+003,7.618369e-003
3.901351e+003,7.638367e-003
3.903279e+003,7.674721e-003
3.905208e+003,7.748674e-003
3.907136e+003,7.778188e-003
3.909065e+003,7.789758e-003
3.910993e+003,7.767856e-003
3.912922e+003,7.815094e-003
3.914850e+003,7.872535e-003
3.916779e+003,7.766323e-003
3.918707e+003,7.745691e-003
3.920636e+003,7.813901e-003
3.922564e+003,7.838176e-003
3.924493e+003,7.835682e-003
3.926421e+003,7.795106e-003
3.928350e+003,7.795911e-003
3.930278e+003,7.759548e-003
3.932207e+003,7.792271e-003
3.934135e+003,7.849080e-003
3.936064e+003,7.819911e-003
3.937992e+003,7.807417e-003
3.939921e+003,7.734252e-003
3.941849e+003,7.680325e-003
3.943778e+003,7.705336e-003
3.945706e+003,7.766842e-003
3.947635e+003,7.822464e-003
3.949563e+003,7.789366e-003
3.951492e+003,7.785248e-003
3.953420e+003,7.858223e-003
3.955349e+003,7.836692e-003
3.957277e+003,7.741615e-003
3.959206e+003,7.752669e-003
3.961134e+003,7.722745e-003
3.963063e+003,7.673403e-003
3.964991e+003,7.779205e-003
3.966920e+003,7.769387e-003
3.968848e+003,7.688483e-003
3.970777e+003,7.749650e-003
3.972705e+003,7.810533e-003
3.974634e+003,7.825802e-003
3.976562e+003,7.874196e-003
3.978491e+003,7.895886e-003
3.980419e+003,7.846536e-003
3.982348e+003,7.800622e-003
3.984276e+003,7.831333e-003
3.986205e+003,7.847566e-003
3.988133e+003,7.818043e-003
3.990062e+003,7.783392e-003
3.991990e+003,7.723946e-003
3.993919e+003,7.734992e-003
3.995847e+003,7.722881e-003
3.997776e+003,7.702055e-003
3.999704e+003,7.702684e-003
4.001633e+003,0.000000e+000
