3.991989e+002,4.877208e-002
4.011274e+002,4.467312e-002
4.030559e+002,4.467312e-002
4.049844e+002,4.592927e-002
4.069129e+002,4.654746e-002
4.088414e+002,4.636353e-002
4.107699e+002,4.488859e-002
4.126984e+002,4.443998e-002
4.146269e+002,4.468767e-002
4.165554e+002,4.445764e-002
4.184839e+002,4.577819e-002
4.204124e+002,4.707222e-002
4.223409e+002,4.731987e-002
4.242694e+002,4.733545e-002
4.261979e+002,4.781220e-002
4.281264e+002,4.713966e-002
4.300549e+002,4.587981e-002
4.319834e+002,4.652759e-002
4.339119e+002,4.808000e-002
4.358404e+002,4.832973e-002
4.377689e+002,4.762866e-002
4.396974e+002,4.770118e-002
4.416259e+002,4.828242e-002
4.435544e+002,4.845650e-002
4.454829e+002,4.816126e-002
4.474114e+002,4.786092e-002
4.493399e+002,4.769183e-002
4.512684e+002,4.700346e-002
4.531969e+002,4.630150e-002
4.551254e+002,4.594706e-002
4.570539e+002,4.605250e-002
4.589824e+002,4.565488e-002
4.609109e+002,4.559186e-002
4.628394e+002,4.537850e-002
4.647679e+002,4.533298e-002
4.666964e+002,4.541882e-002
4.686249e+002,4.477878e-002
4.705533e+002,4.360992e-002
4.724819e+002,4.334740e-002
4.744103e+002,4.265140e-002
4.763389e+002,4.144800e-002
4.782673e+002,4.118304e-002
4.801959e+002,4.093451e-002
4.821243e+002,4.054198e-002
4.840529e+002,3.964958e-002
4.859813e+002,3.888781e-002
4.879099e+002,3.830585e-002
4.898383e+002,3.771255e-002
4.917668e+002,3.763668e-002
4.936953e+002,3.700497e-002
4.956238e+002,3.674129e-002
4.975523e+002,3.603981e-002
4.994808e+002,3.594674e-002
5.014093e+002,3.580505e-002
5.033378e+002,3.560651e-002
5.052663e+002,3.545172e-002
5.071948e+002,3.539836e-002
5.091233e+002,3.538410e-002
5.110518e+002,3.532392e-002
5.129803e+002,3.533059e-002
5.149088e+002,3.542613e-002
5.168373e+002,3.606950e-002
5.187658e+002,3.633660e-002
5.206943e+002,3.622198e-002
5.226228e+002,3.658715e-002
5.245513e+002,3.654455e-002
5.264798e+002,3.637077e-002
5.284083e+002,3.627072e-002
5.303368e+002,3.598899e-002
5.322653e+002,3.587971e-002
5.341938e+002,3.582221e-002
5.361223e+002,3.549261e-002
5.380508e+002,3.536780e-002
5.399792e+002,3.531481e-002
5.419078e+002,3.518653e-002
5.438363e+002,3.522324e-002
5.457648e+002,3.513693e-002
5.476932e+002,3.508584e-002
5.496218e+002,3.510736e-002
5.515503e+002,3.484793e-002
5.534788e+002,3.538330e-002
5.554072e+002,3.549645e-002
5.573358e+002,3.528287e-002
5.592643e+002,3.546752e-002
5.611927e+002,3.543105e-002
5.631212e+002,3.491766e-002
5.650497e+002,3.452341e-002
5.669783e+002,3.412051e-002
5.689067e+002,3.420890e-002
5.708352e+002,3.414601e-002
5.727637e+002,3.403333e-002
5.746923e+002,3.386175e-002
5.766207e+002,3.378439e-002
5.785492e+002,3.352974e-002
5.804777e+002,3.352672e-002
5.824063e+002,3.339691e-002
5.843347e+002,3.336751e-002
5.862632e+002,3.327668e-002
5.881917e+002,3.336183e-002
5.901202e+002,3.344364e-002
5.920487e+002,3.350013e-002
5.939772e+002,3.327597e-002
5.959057e+002,3.295997e-002
5.978342e+002,3.270083e-002
5.997627e+002,3.266166e-002
6.016912e+002,3.285040e-002
6.036197e+002,3.278745e-002
6.055482e+002,3.263395e-002
6.074767e+002,3.232478e-002
6.094052e+002,3.191646e-002
6.113337e+002,3.178614e-002
6.132622e+002,3.160385e-002
6.151907e+002,3.107321e-002
6.171192e+002,3.092491e-002
6.190477e+002,3.066711e-002
6.209762e+002,3.016364e-002
6.229047e+002,2.977302e-002
6.248332e+002,2.955036e-002
6.267617e+002,2.944328e-002
6.286902e+002,2.908375e-002
6.306187e+002,2.878902e-002
6.325472e+002,2.859285e-002
6.344756e+002,2.871273e-002
6.364042e+002,2.852184e-002
6.383326e+002,2.821669e-002
6.402612e+002,2.802964e-002
6.421896e+002,2.787795e-002
6.441182e+002,2.753874e-002
6.460466e+002,2.739918e-002
6.479752e+002,2.724636e-002
6.499036e+002,2.710707e-002
6.518322e+002,2.696284e-002
6.537606e+002,2.681459e-002
6.556891e+002,2.676835e-002
6.576177e+002,2.686197e-002
6.595461e+002,2.688971e-002
6.614746e+002,2.677196e-002
6.634031e+002,2.683831e-002
6.653317e+002,2.693601e-002
6.672601e+002,2.657549e-002
6.691886e+002,2.643027e-002
6.711171e+002,2.603474e-002
6.730457e+002,2.568728e-002
6.749741e+002,2.523049e-002
6.769026e+002,2.470759e-002
6.788311e+002,2.421216e-002
6.807596e+002,2.380970e-002
6.826881e+002,2.349097e-002
6.846166e+002,2.331275e-002
6.865451e+002,2.311014e-002
6.884736e+002,2.297972e-002
6.904021e+002,2.298072e-002
6.923306e+002,2.306107e-002
6.942591e+002,2.295105e-002
6.961876e+002,2.293709e-002
6.981161e+002,2.299446e-002
7.000446e+002,2.302815e-002
7.019731e+002,2.283679e-002
7.039016e+002,2.273970e-002
7.058301e+002,2.255588e-002
7.077585e+002,2.235740e-002
7.096871e+002,2.228034e-002
7.116156e+002,2.225008e-002
7.135441e+002,2.206372e-002
7.154725e+002,2.194552e-002
7.174011e+002,2.173688e-002
7.193296e+002,2.162680e-002
7.212581e+002,2.146677e-002
7.231865e+002,2.141149e-002
7.251151e+002,2.141195e-002
7.270436e+002,2.123878e-002
7.289720e+002,2.108331e-002
7.309005e+002,2.096357e-002
7.328290e+002,2.094625e-002
7.347576e+002,2.085737e-002
7.366860e+002,2.062975e-002
7.386145e+002,2.043917e-002
7.405430e+002,2.031157e-002
7.424716e+002,2.023604e-002
7.444000e+002,2.023169e-002
7.463285e+002,2.028788e-002
7.482570e+002,2.018894e-002
7.501855e+002,2.000559e-002
7.521140e+002,1.975373e-002
7.540425e+002,1.972829e-002
7.559710e+002,1.967139e-002
7.578995e+002,1.963167e-002
7.598280e+002,1.950257e-002
7.617565e+002,1.937249e-002
7.636850e+002,1.922701e-002
7.656135e+002,1.920841e-002
7.675420e+002,1.917748e-002
7.694705e+002,1.919386e-002
7.713990e+002,1.917198e-002
7.733275e+002,1.912949e-002
7.752560e+002,1.913350e-002
7.771844e+002,1.921495e-002
7.791130e+002,1.924058e-002
7.810415e+002,1.928540e-002
7.829700e+002,1.932385e-002
7.848984e+002,1.928384e-002
7.868270e+002,1.924266e-002
7.887555e+002,1.923913e-002
7.906840e+002,1.929361e-002
7.926124e+002,1.927754e-002
7.945410e+002,1.917703e-002
7.964695e+002,1.920207e-002
7.983979e+002,1.928249e-002
8.003264e+002,1.926625e-002
8.022549e+002,1.906145e-002
8.041835e+002,1.900063e-002
8.061119e+002,1.902012e-002
8.080404e+002,1.897820e-002
8.099689e+002,1.897020e-002
8.118975e+002,1.897093e-002
8.138259e+002,1.886444e-002
8.157545e+002,1.874953e-002
8.176830e+002,1.867975e-002
8.196115e+002,1.862421e-002
8.215399e+002,1.858087e-002
8.234684e+002,1.861539e-002
8.253970e+002,1.856372e-002
8.273254e+002,1.854449e-002
8.292539e+002,1.848443e-002
8.311824e+002,1.851818e-002
8.331110e+002,1.849083e-002
8.350394e+002,1.842040e-002
8.369679e+002,1.835670e-002
8.388964e+002,1.832618e-002
8.408250e+002,1.820882e-002
8.427534e+002,1.812770e-002
8.446819e+002,1.804424e-002
8.466104e+002,1.796225e-002
8.485389e+002,1.791815e-002
8.504674e+002,1.792182e-002
8.523959e+002,1.797503e-002
8.543244e+002,1.808825e-002
8.562529e+002,1.802366e-002
8.581814e+002,1.814715e-002
8.601099e+002,1.830869e-002
8.620384e+002,1.827216e-002
8.639669e+002,1.832231e-002
8.658954e+002,1.844409e-002
8.678239e+002,1.849788e-002
8.697524e+002,1.866938e-002
8.716809e+002,1.882412e-002
8.736094e+002,1.902133e-002
8.755378e+002,1.907232e-002
8.774664e+002,1.922101e-002
8.793949e+002,1.953525e-002
8.813234e+002,1.973829e-002
8.832518e+002,1.985544e-002
8.851804e+002,2.029876e-002
8.871089e+002,2.075921e-002
8.890374e+002,2.112444e-002
8.909658e+002,2.160917e-002
8.928943e+002,2.203688e-002
8.948229e+002,2.217369e-002
8.967513e+002,2.222631e-002
8.986798e+002,2.218398e-002
9.006083e+002,2.198206e-002
9.025369e+002,2.179057e-002
9.044653e+002,2.169631e-002
9.063938e+002,2.152654e-002
9.083223e+002,2.140943e-002
9.102509e+002,2.130776e-002
9.121793e+002,2.132555e-002
9.141078e+002,2.138043e-002
9.160364e+002,2.152180e-002
9.179648e+002,2.163564e-002
9.198933e+002,2.178988e-002
9.218218e+002,2.199763e-002
9.237504e+002,2.224330e-002
9.256788e+002,2.243522e-002
9.276073e+002,2.270299e-002
9.295358e+002,2.295345e-002
9.314644e+002,2.319245e-002
9.333928e+002,2.352427e-002
9.353213e+002,2.382361e-002
9.372498e+002,2.406905e-002
9.391783e+002,2.446249e-002
9.411068e+002,2.497928e-002
9.430353e+002,2.548833e-002
9.449637e+002,2.595692e-002
9.468923e+002,2.648208e-002
9.488208e+002,2.697727e-002
9.507493e+002,2.744917e-002
9.526777e+002,2.794684e-002
9.546063e+002,2.846614e-002
9.565348e+002,2.910746e-002
9.584633e+002,2.972262e-002
9.603917e+002,3.015439e-002
9.623203e+002,3.061276e-002
9.642488e+002,3.108812e-002
9.661772e+002,3.147850e-002
9.681057e+002,3.183893e-002
9.700343e+002,3.228552e-002
9.719628e+002,3.275504e-002
9.738912e+002,3.325697e-002
9.758197e+002,3.370402e-002
9.777483e+002,3.425584e-002
9.796768e+002,3.490502e-002
9.816052e+002,3.559574e-002
9.835337e+002,3.620972e-002
9.854623e+002,3.675898e-002
9.873907e+002,3.720333e-002
9.893192e+002,3.767086e-002
9.912477e+002,3.793911e-002
9.931763e+002,3.808569e-002
9.951047e+002,3.818998e-002
9.970332e+002,3.840816e-002
9.989617e+002,3.872845e-002
1.000890e+003,3.918577e-002
1.002819e+003,3.960782e-002
1.004747e+003,4.003312e-002
1.006676e+003,4.048770e-002
1.008604e+003,4.095537e-002
1.010533e+003,4.150154e-002
1.012461e+003,4.207312e-002
1.014390e+003,4.264841e-002
1.016318e+003,4.327634e-002
1.018247e+003,4.385964e-002
1.020175e+003,4.452430e-002
1.022104e+003,4.520730e-002
1.024032e+003,4.580848e-002
1.025961e+003,4.626702e-002
1.027889e+003,4.681140e-002
1.029818e+003,4.729808e-002
1.031746e+003,4.767554e-002
1.033675e+003,4.785559e-002
1.035603e+003,4.785252e-002
1.037532e+003,4.762411e-002
1.039460e+003,4.722933e-002
1.041389e+003,4.675291e-002
1.043317e+003,4.630056e-002
1.045246e+003,4.595917e-002
1.047174e+003,4.563885e-002
1.049103e+003,4.529125e-002
1.051031e+003,4.495922e-002
1.052960e+003,4.451237e-002
1.054888e+003,4.405718e-002
1.056817e+003,4.344805e-002
1.058745e+003,4.285096e-002
1.060674e+003,4.225291e-002
1.062602e+003,4.162267e-002
1.064531e+003,4.094179e-002
1.066459e+003,4.027720e-002
1.068388e+003,3.966623e-002
1.070316e+003,3.919865e-002
1.072245e+003,3.878681e-002
1.074173e+003,3.840936e-002
1.076102e+003,3.778615e-002
1.078030e+003,3.714651e-002
1.079959e+003,3.655744e-002
1.081887e+003,3.603955e-002
1.083816e+003,3.551432e-002
1.085744e+003,3.509006e-002
1.087673e+003,3.474839e-002
1.089601e+003,3.444490e-002
1.091530e+003,3.408747e-002
1.093458e+003,3.375544e-002
1.095387e+003,3.343103e-002
1.097315e+003,3.317739e-002
1.099244e+003,3.295978e-002
1.101172e+003,3.278387e-002
1.103101e+003,3.254285e-002
1.105029e+003,3.225557e-002
1.106958e+003,3.179714e-002
1.108886e+003,3.125907e-002
1.110815e+003,3.060778e-002
1.112743e+003,2.989360e-002
1.114672e+003,2.911490e-002
1.116600e+003,2.837628e-002
1.118529e+003,2.772477e-002
1.120457e+003,2.715222e-002
1.122386e+003,2.654579e-002
1.124314e+003,2.587574e-002
1.126243e+003,2.518439e-002
1.128171e+003,2.458509e-002
1.130100e+003,2.395328e-002
1.132028e+003,2.334518e-002
1.133957e+003,2.274132e-002
1.135885e+003,2.225683e-002
1.137814e+003,2.190392e-002
1.139742e+003,2.170070e-002
1.141671e+003,2.160569e-002
1.143599e+003,2.156982e-002
1.145528e+003,2.163710e-002
1.147456e+003,2.179716e-002
1.149385e+003,2.197397e-002
1.151313e+003,2.218042e-002
1.153242e+003,2.234807e-002
1.155170e+003,2.252480e-002
1.157099e+003,2.264999e-002
1.159027e+003,2.271151e-002
1.160956e+003,2.260315e-002
1.162884e+003,2.241900e-002
1.164813e+003,2.204567e-002
1.166741e+003,2.150854e-002
1.168670e+003,2.084381e-002
1.170598e+003,2.011603e-002
1.172526e+003,1.939207e-002
1.174455e+003,1.870618e-002
1.176384e+003,1.807091e-002
1.178312e+003,1.755292e-002
1.180240e+003,1.706563e-002
1.182169e+003,1.662036e-002
1.184098e+003,1.624624e-002
1.186026e+003,1.594987e-002
1.187954e+003,1.579887e-002
1.189883e+003,1.574669e-002
1.191812e+003,1.573764e-002
1.193740e+003,1.586086e-002
1.195668e+003,1.596466e-002
1.197597e+003,1.603888e-002
1.199526e+003,1.615936e-002
1.201454e+003,1.620467e-002
1.203382e+003,1.625286e-002
1.205311e+003,1.627067e-002
1.207240e+003,1.623988e-002
1.209168e+003,1.623434e-002
1.211096e+003,1.622757e-002
1.213025e+003,1.634385e-002
1.214953e+003,1.646585e-002
1.216882e+003,1.656483e-002
1.218810e+003,1.669875e-002
1.220739e+003,1.691763e-002
1.222667e+003,1.711278e-002
1.224596e+003,1.731283e-002
1.226524e+003,1.752629e-002
1.228453e+003,1.770928e-002
1.230381e+003,1.784194e-002
1.232310e+003,1.796721e-002
1.234238e+003,1.800387e-002
1.236167e+003,1.800730e-002
1.238095e+003,1.797612e-002
1.240024e+003,1.794967e-002
1.241952e+003,1.784350e-002
1.243881e+003,1.768798e-002
1.245809e+003,1.750430e-002
1.247738e+003,1.729844e-002
1.249666e+003,1.704132e-002
1.251595e+003,1.680780e-002
1.253523e+003,1.658164e-002
1.255452e+003,1.630537e-002
1.257380e+003,1.600485e-002
1.259309e+003,1.570854e-002
1.261237e+003,1.541920e-002
1.263166e+003,1.512023e-002
1.265094e+003,1.480952e-002
1.267023e+003,1.450383e-002
1.268951e+003,1.419756e-002
1.270880e+003,1.394678e-002
1.272808e+003,1.372019e-002
1.274737e+003,1.348430e-002
1.276665e+003,1.324935e-002
1.278594e+003,1.307276e-002
1.280522e+003,1.291865e-002
1.282451e+003,1.275895e-002
1.284379e+003,1.264262e-002
1.286308e+003,1.253220e-002
1.288236e+003,1.241684e-002
1.290165e+003,1.235960e-002
1.292093e+003,1.239600e-002
1.294022e+003,1.243686e-002
1.295950e+003,1.244715e-002
1.297879e+003,1.255819e-002
1.299807e+003,1.270441e-002
1.301736e+003,1.281615e-002
1.303664e+003,1.293104e-002
1.305593e+003,1.307250e-002
1.307521e+003,1.323748e-002
1.309450e+003,1.340759e-002
1.311378e+003,1.355815e-002
1.313307e+003,1.367032e-002
1.315235e+003,1.370317e-002
1.317164e+003,1.371079e-002
1.319092e+003,1.365535e-002
1.321021e+003,1.360244e-002
1.322949e+003,1.352433e-002
1.324878e+003,1.342680e-002
1.326806e+003,1.335427e-002
1.328735e+003,1.334144e-002
1.330663e+003,1.333722e-002
1.332592e+003,1.330667e-002
1.334520e+003,1.327136e-002
1.336449e+003,1.325720e-002
1.338377e+003,1.317876e-002
1.340306e+003,1.312108e-002
1.342234e+003,1.305897e-002
1.344163e+003,1.303306e-002
1.346091e+003,1.304595e-002
1.348020e+003,1.308736e-002
1.349948e+003,1.316553e-002
1.351877e+003,1.329770e-002
1.353805e+003,1.338330e-002
1.355734e+003,1.349356e-002
1.357662e+003,1.365309e-002
1.359591e+003,1.379454e-002
1.361519e+003,1.389540e-002
1.363448e+003,1.400727e-002
1.365376e+003,1.411965e-002
1.367305e+003,1.417300e-002
1.369233e+003,1.417301e-002
1.371162e+003,1.408841e-002
1.373090e+003,1.396137e-002
1.375019e+003,1.386853e-002
1.376947e+003,1.367441e-002
1.378876e+003,1.348256e-002
1.380804e+003,1.324585e-002
1.382733e+003,1.299128e-002
1.384661e+003,1.272376e-002
1.386590e+003,1.251509e-002
1.388518e+003,1.237763e-002
1.390447e+003,1.222742e-002
1.392375e+003,1.209194e-002
1.394304e+003,1.198604e-002
1.396232e+003,1.196107e-002
1.398161e+003,1.198616e-002
1.400089e+003,1.198195e-002
1.402018e+003,1.196544e-002
1.403946e+003,1.199221e-002
1.405875e+003,1.206874e-002
1.407803e+003,1.213564e-002
1.409732e+003,1.218604e-002
1.411660e+003,1.225496e-002
1.413589e+003,1.233175e-002
1.415517e+003,1.242776e-002
1.417446e+003,1.250576e-002
1.419374e+003,1.260208e-002
1.421303e+003,1.264827e-002
1.423231e+003,1.259972e-002
1.425160e+003,1.262022e-002
1.427088e+003,1.255557e-002
1.429017e+003,1.244008e-002
1.430945e+003,1.232842e-002
1.432874e+003,1.226739e-002
1.434802e+003,1.211591e-002
1.436731e+003,1.200282e-002
1.438659e+003,1.196281e-002
1.440588e+003,1.189608e-002
1.442516e+003,1.177028e-002
1.444445e+003,1.168842e-002
1.446373e+003,1.170226e-002
1.448302e+003,1.172505e-002
1.450230e+003,1.172376e-002
1.452159e+003,1.166980e-002
1.454087e+003,1.161785e-002
1.456016e+003,1.156640e-002
1.457944e+003,1.149289e-002
1.459873e+003,1.139114e-002
1.461801e+003,1.133890e-002
1.463730e+003,1.125631e-002
1.465658e+003,1.108659e-002
1.467587e+003,1.079725e-002
1.469515e+003,1.041492e-002
1.471444e+003,1.005152e-002
1.473372e+003,9.804795e-003
1.475301e+003,9.536706e-003
1.477229e+003,9.328800e-003
1.479158e+003,9.193547e-003
1.481086e+003,9.111347e-003
1.483015e+003,9.139869e-003
1.484943e+003,9.183139e-003
1.486872e+003,9.210482e-003
1.488800e+003,9.279920e-003
1.490729e+003,9.470721e-003
1.492657e+003,9.685528e-003
1.494586e+003,9.833110e-003
1.496514e+003,9.948667e-003
1.498443e+003,1.009211e-002
1.500371e+003,1.023090e-002
1.502300e+003,1.032260e-002
1.504228e+003,1.040547e-002
1.506157e+003,1.045909e-002
1.508085e+003,1.059207e-002
1.510014e+003,1.065444e-002
1.511942e+003,1.067673e-002
1.513871e+003,1.071031e-002
1.515799e+003,1.065370e-002
1.517728e+003,1.048407e-002
1.519656e+003,1.034211e-002
1.521585e+003,1.021362e-002
1.523513e+003,1.006902e-002
1.525442e+003,9.965239e-003
1.527370e+003,9.926972e-003
1.529299e+003,9.933348e-003
1.531227e+003,9.899031e-003
1.533156e+003,9.849090e-003
1.535084e+003,9.890477e-003
1.537013e+003,9.885234e-003
1.538941e+003,9.878648e-003
1.540870e+003,9.865916e-003
1.542798e+003,9.827130e-003
1.544727e+003,9.813899e-003
1.546655e+003,9.823007e-003
1.548584e+003,9.759374e-003
1.550512e+003,9.735125e-003
1.552441e+003,9.734129e-003
1.554369e+003,9.693377e-003
1.556298e+003,9.653345e-003
1.558226e+003,9.586507e-003
1.560155e+003,9.666730e-003
1.562083e+003,9.627851e-003
1.564012e+003,9.633807e-003
1.565940e+003,9.669340e-003
1.567869e+003,9.659080e-003
1.569797e+003,9.718351e-003
1.571726e+003,9.827814e-003
1.573654e+003,9.894522e-003
1.575583e+003,1.005095e-002
1.577511e+003,1.016589e-002
1.579440e+003,1.024454e-002
1.581368e+003,1.040742e-002
1.583297e+003,1.057325e-002
1.585225e+003,1.076346e-002
1.587154e+003,1.093516e-002
1.589082e+003,1.114488e-002
1.591010e+003,1.129606e-002
1.592939e+003,1.143334e-002
1.594868e+003,1.153874e-002
1.596796e+003,1.164355e-002
1.598724e+003,1.174232e-002
1.600653e+003,1.179141e-002
1.602582e+003,1.180177e-002
1.604510e+003,1.186212e-002
1.606438e+003,1.191166e-002
1.608367e+003,1.191444e-002
1.610296e+003,1.201707e-002
1.612224e+003,1.215872e-002
1.614152e+003,1.225452e-002
1.616081e+003,1.240265e-002
1.618010e+003,1.254254e-002
1.619938e+003,1.261864e-002
1.621866e+003,1.270143e-002
1.623795e+003,1.279095e-002
1.625724e+003,1.287428e-002
1.627652e+003,1.289462e-002
1.629580e+003,1.292454e-002
1.631509e+003,1.285039e-002
1.633438e+003,1.275349e-002
1.635366e+003,1.267697e-002
1.637294e+003,1.261093e-002
1.639223e+003,1.250773e-002
1.641151e+003,1.248225e-002
1.643080e+003,1.244558e-002
1.645008e+003,1.242576e-002
1.646937e+003,1.237773e-002
1.648865e+003,1.240976e-002
1.650794e+003,1.242272e-002
1.652722e+003,1.241822e-002
1.654651e+003,1.233906e-002
1.656579e+003,1.213363e-002
1.658508e+003,1.196739e-002
1.660436e+003,1.177743e-002
1.662365e+003,1.155482e-002
1.664293e+003,1.142242e-002
1.666222e+003,1.120247e-002
1.668150e+003,1.095805e-002
1.670079e+003,1.079944e-002
1.672007e+003,1.063581e-002
1.673936e+003,1.041755e-002
1.675864e+003,1.030800e-002
1.677793e+003,1.015812e-002
1.679721e+003,9.994321e-003
1.681650e+003,9.846021e-003
1.683578e+003,9.760772e-003
1.685507e+003,9.778394e-003
1.687435e+003,9.611891e-003
1.689364e+003,9.515054e-003
1.691292e+003,9.466797e-003
1.693221e+003,9.445606e-003
1.695149e+003,9.461380e-003
1.697078e+003,9.399038e-003
1.699006e+003,9.265608e-003
1.700935e+003,9.230154e-003
1.702863e+003,9.134703e-003
1.704792e+003,9.121669e-003
1.706720e+003,9.143874e-003
1.708649e+003,9.163700e-003
1.710577e+003,9.200615e-003
1.712506e+003,9.342764e-003
1.714434e+003,9.410842e-003
1.716363e+003,9.522999e-003
1.718291e+003,9.573785e-003
1.720220e+003,9.659532e-003
1.722148e+003,9.772383e-003
1.724077e+003,9.849944e-003
1.726005e+003,9.912598e-003
1.727934e+003,9.892595e-003
1.729862e+003,9.885733e-003
1.731791e+003,9.896261e-003
1.733719e+003,9.868403e-003
1.735648e+003,9.804583e-003
1.737576e+003,9.512168e-003
1.739505e+003,9.296796e-003
1.741433e+003,9.101598e-003
1.743362e+003,8.824807e-003
1.745290e+003,8.542901e-003
1.747219e+003,8.332115e-003
1.749147e+003,8.115558e-003
1.751076e+003,7.924108e-003
1.753004e+003,7.704526e-003
1.754933e+003,7.489737e-003
1.756861e+003,7.320816e-003
1.758790e+003,7.169532e-003
1.760718e+003,7.045425e-003
1.762647e+003,6.944159e-003
1.764575e+003,6.845721e-003
1.766504e+003,6.760372e-003
1.768432e+003,6.691777e-003
1.770361e+003,6.597484e-003
1.772289e+003,6.583476e-003
1.774218e+003,6.586852e-003
1.776146e+003,6.551615e-003
1.778075e+003,6.570462e-003
1.780003e+003,6.551566e-003
1.781932e+003,6.543783e-003
1.783860e+003,6.511998e-003
1.785789e+003,6.549498e-003
1.787717e+003,6.534078e-003
1.789646e+003,6.497519e-003
1.791574e+003,6.493067e-003
1.793503e+003,6.488888e-003
1.795431e+003,6.497272e-003
1.797360e+003,6.525808e-003
1.799288e+003,6.604302e-003
1.801217e+003,6.586552e-003
1.803145e+003,6.538240e-003
1.805074e+003,6.523565e-003
1.807002e+003,6.542682e-003
1.808931e+003,6.505640e-003
1.810859e+003,6.492163e-003
1.812788e+003,6.560971e-003
1.814716e+003,6.566178e-003
1.816645e+003,6.551809e-003
1.818573e+003,6.653576e-003
1.820502e+003,6.579373e-003
1.822430e+003,6.571302e-003
1.824359e+003,6.635081e-003
1.826287e+003,6.621829e-003
1.828216e+003,6.589522e-003
1.830144e+003,6.580682e-003
1.832073e+003,6.568553e-003
1.834001e+003,6.588807e-003
1.835930e+003,6.590165e-003
1.837858e+003,6.541213e-003
1.839787e+003,6.584117e-003
1.841715e+003,6.564056e-003
1.843644e+003,6.502124e-003
1.845572e+003,6.585186e-003
1.847501e+003,6.642092e-003
1.849429e+003,6.650140e-003
1.851358e+003,6.609406e-003
1.853286e+003,6.554649e-003
1.855215e+003,6.535028e-003
1.857143e+003,6.500022e-003
1.859072e+003,6.473690e-003
1.861000e+003,6.506018e-003
1.862929e+003,6.558500e-003
1.864857e+003,6.597462e-003
1.866786e+003,6.599061e-003
1.868714e+003,6.563997e-003
1.870643e+003,6.666485e-003
1.872571e+003,6.735098e-003
1.874500e+003,6.656556e-003
1.876428e+003,6.644799e-003
1.878357e+003,6.706424e-003
1.880285e+003,6.677131e-003
1.882214e+003,6.753767e-003
1.884142e+003,6.724299e-003
1.886071e+003,6.734863e-003
1.887999e+003,6.806331e-003
1.889928e+003,6.791647e-003
1.891856e+003,6.657194e-003
1.893785e+003,6.633601e-003
1.895713e+003,6.734850e-003
1.897642e+003,6.692635e-003
1.899570e+003,6.513417e-003
1.901499e+003,6.594441e-003
1.903427e+003,6.649289e-003
1.905356e+003,6.699463e-003
1.907284e+003,6.904872e-003
1.909213e+003,6.967265e-003
1.911141e+003,6.819993e-003
1.913070e+003,6.662117e-003
1.914998e+003,6.489819e-003
1.916927e+003,6.550849e-003
1.918855e+003,6.661622e-003
1.920784e+003,6.612966e-003
1.922712e+003,6.570871e-003
1.924641e+003,6.721157e-003
1.926569e+003,7.017641e-003
1.928498e+003,6.927962e-003
1.930426e+003,6.784097e-003
1.932355e+003,6.904721e-003
1.934283e+003,6.909473e-003
1.936212e+003,6.754426e-003
1.938140e+003,6.774971e-003
1.940069e+003,7.121495e-003
1.941997e+003,7.155336e-003
1.943926e+003,6.864266e-003
1.945854e+003,6.970328e-003
1.947783e+003,7.257497e-003
1.949711e+003,7.303864e-003
1.951640e+003,6.799724e-003
1.953568e+003,6.497125e-003
1.955497e+003,6.532498e-003
1.957425e+003,6.181363e-003
1.959354e+003,6.492310e-003
1.961282e+003,6.842228e-003
1.963211e+003,7.408969e-003
1.965139e+003,6.998360e-003
1.967068e+003,6.135039e-003
1.968996e+003,6.074117e-003
1.970925e+003,6.409373e-003
1.972853e+003,6.674153e-003
1.974782e+003,6.927445e-003
1.976710e+003,6.470634e-003
1.978639e+003,6.601182e-003
1.980567e+003,6.633130e-003
1.982496e+003,6.286976e-003
1.984424e+003,6.300786e-003
1.986353e+003,6.708638e-003
1.988281e+003,6.911890e-003
1.990210e+003,6.338686e-003
1.992138e+003,5.918583e-003
1.994067e+003,5.957586e-003
1.995995e+003,6.609122e-003
1.997924e+003,6.135017e-003
1.999852e+003,5.829906e-003
2.001781e+003,6.078995e-003
2.003709e+003,6.061207e-003
2.005638e+003,5.730495e-003
2.007566e+003,4.730501e-003
2.009495e+003,4.870694e-003
2.011423e+003,4.961096e-003
2.013352e+003,5.620554e-003
2.015280e+003,6.643291e-003
2.017208e+003,6.023391e-003
2.019137e+003,6.148529e-003
2.021066e+003,5.830894e-003
2.022994e+003,5.045301e-003
2.024922e+003,4.269416e-003
2.026851e+003,4.967792e-003
2.028780e+003,4.946325e-003
2.030708e+003,4.438361e-003
2.032636e+003,3.690518e-003
2.034565e+003,4.170169e-003
2.036494e+003,4.897214e-003
2.038422e+003,5.186521e-003
2.040350e+003,5.242292e-003
2.042279e+003,5.691357e-003
2.044208e+003,5.358232e-003
2.046136e+003,4.503054e-003
2.048064e+003,4.465120e-003
2.049993e+003,4.907032e-003
2.051921e+003,5.418612e-003
2.053850e+003,5.514842e-003
2.055778e+003,5.620779e-003
2.057707e+003,5.234288e-003
2.059635e+003,5.210745e-003
2.061564e+003,5.426328e-003
2.063492e+003,5.770413e-003
2.065421e+003,5.712100e-003
2.067349e+003,5.780840e-003
2.069278e+003,5.642394e-003
2.071206e+003,5.658502e-003
2.073135e+003,5.662285e-003
2.075063e+003,5.798372e-003
2.076992e+003,6.009241e-003
2.078920e+003,6.001099e-003
2.080849e+003,6.157467e-003
2.082777e+003,6.243844e-003
2.084706e+003,6.369240e-003
2.086634e+003,6.459934e-003
2.088563e+003,6.391351e-003
2.090491e+003,6.324881e-003
2.092420e+003,6.251397e-003
2.094348e+003,6.353548e-003
2.096277e+003,6.346253e-003
2.098205e+003,6.559867e-003
2.100134e+003,6.651777e-003
2.102062e+003,6.762283e-003
2.103991e+003,6.693230e-003
2.105919e+003,6.809401e-003
2.107848e+003,6.903922e-003
2.109776e+003,7.014357e-003
2.111705e+003,7.175481e-003
2.113633e+003,7.175346e-003
2.115562e+003,7.037929e-003
2.117490e+003,7.176862e-003
2.119419e+003,6.943379e-003
2.121347e+003,6.781971e-003
2.123276e+003,6.841848e-003
2.125204e+003,7.130984e-003
2.127133e+003,7.534723e-003
2.129061e+003,7.489987e-003
2.130990e+003,7.438615e-003
2.132918e+003,7.787246e-003
2.134847e+003,7.975553e-003
2.136775e+003,7.834340e-003
2.138704e+003,7.256302e-003
2.140632e+003,7.965767e-003
2.142561e+003,8.550462e-003
2.144489e+003,8.157528e-003
2.146418e+003,7.331206e-003
2.148346e+003,7.562841e-003
2.150275e+003,7.872195e-003
2.152203e+003,7.284267e-003
2.154132e+003,7.185722e-003
2.156060e+003,7.636112e-003
2.157989e+003,7.552052e-003
2.159917e+003,7.781511e-003
2.161846e+003,8.525896e-003
2.163774e+003,8.564453e-003
2.165703e+003,7.568303e-003
2.167631e+003,7.452367e-003
2.169560e+003,7.210347e-003
2.171488e+003,6.844575e-003
2.173417e+003,6.998227e-003
2.175345e+003,7.769873e-003
2.177274e+003,7.402449e-003
2.179202e+003,6.316932e-003
2.181131e+003,5.776163e-003
2.183059e+003,5.741680e-003
2.184988e+003,6.384378e-003
2.186916e+003,6.553140e-003
2.188845e+003,6.433439e-003
2.190773e+003,6.084549e-003
2.192702e+003,6.449144e-003
2.194630e+003,6.450893e-003
2.196559e+003,6.130686e-003
2.198487e+003,5.815753e-003
2.200416e+003,5.484538e-003
2.202344e+003,5.039087e-003
2.204273e+003,6.015235e-003
2.206201e+003,6.851811e-003
2.208130e+003,6.318378e-003
2.210058e+003,5.912644e-003
2.211987e+003,5.691388e-003
2.213915e+003,5.814981e-003
2.215844e+003,6.173569e-003
2.217772e+003,6.104677e-003
2.219701e+003,5.571723e-003
2.221629e+003,5.767433e-003
2.223558e+003,5.703843e-003
2.225486e+003,5.537357e-003
2.227415e+003,5.544472e-003
2.229343e+003,5.636133e-003
2.231272e+003,5.767984e-003
2.233200e+003,6.001777e-003
2.235129e+003,6.098226e-003
2.237057e+003,6.056142e-003
2.238986e+003,5.964390e-003
2.240914e+003,6.090360e-003
2.242843e+003,6.076010e-003
2.244771e+003,6.129544e-003
2.246700e+003,6.454849e-003
2.248628e+003,6.357306e-003
2.250557e+003,6.232060e-003
2.252485e+003,6.219360e-003
2.254414e+003,6.107823e-003
2.256342e+003,6.274211e-003
2.258271e+003,6.489773e-003
2.260199e+003,6.385095e-003
2.262128e+003,6.259704e-003
2.264056e+003,6.590222e-003
2.265985e+003,6.405838e-003
2.267913e+003,6.055317e-003
2.269842e+003,6.152204e-003
2.271770e+003,6.474152e-003
2.273699e+003,6.502012e-003
2.275627e+003,6.457112e-003
2.277556e+003,6.430629e-003
2.279484e+003,6.514631e-003
2.281413e+003,6.737299e-003
2.283341e+003,6.739011e-003
2.285270e+003,6.641637e-003
2.287198e+003,6.810774e-003
2.289127e+003,6.852358e-003
2.291055e+003,6.673653e-003
2.292984e+003,6.625260e-003
2.294912e+003,6.739955e-003
2.296841e+003,6.750572e-003
2.298769e+003,6.863377e-003
2.300698e+003,6.970493e-003
2.302626e+003,7.205909e-003
2.304555e+003,7.120547e-003
2.306483e+003,7.035316e-003
2.308412e+003,7.071351e-003
2.310340e+003,7.219990e-003
2.312269e+003,7.343888e-003
2.314197e+003,7.384705e-003
2.316125e+003,7.355425e-003
2.318054e+003,7.334176e-003
2.319983e+003,7.347954e-003
2.321911e+003,7.351714e-003
2.323840e+003,7.340017e-003
2.325768e+003,7.306680e-003
2.327697e+003,7.310486e-003
2.329625e+003,7.346792e-003
2.331553e+003,7.323661e-003
2.333482e+003,7.407067e-003
2.335411e+003,7.447762e-003
2.337339e+003,7.260893e-003
2.339268e+003,7.212088e-003
2.341196e+003,7.226783e-003
2.343125e+003,7.127160e-003
2.345053e+003,6.859989e-003
2.346981e+003,6.602486e-003
2.348910e+003,6.491452e-003
2.350839e+003,6.385941e-003
2.352767e+003,6.241064e-003
2.354696e+003,6.063919e-003
2.356624e+003,6.183391e-003
2.358552e+003,6.100160e-003
2.360481e+003,5.986374e-003
2.362409e+003,6.097055e-003
2.364338e+003,6.306007e-003
2.366267e+003,6.030483e-003
2.368195e+003,6.080190e-003
2.370124e+003,6.152933e-003
2.372052e+003,6.267013e-003
2.373980e+003,6.343334e-003
2.375909e+003,6.513885e-003
2.377838e+003,6.499670e-003
2.379766e+003,6.400984e-003
2.381695e+003,6.259057e-003
2.383623e+003,6.279190e-003
2.385552e+003,6.183972e-003
2.387480e+003,6.187287e-003
2.389408e+003,6.224316e-003
2.391337e+003,6.301228e-003
2.393266e+003,6.289278e-003
2.395194e+003,6.357482e-003
2.397123e+003,6.347382e-003
2.399051e+003,6.392740e-003
2.400979e+003,6.464278e-003
2.402908e+003,6.573996e-003
2.404836e+003,6.717357e-003
2.406765e+003,6.704234e-003
2.408694e+003,6.675195e-003
2.410622e+003,6.709685e-003
2.412551e+003,6.795029e-003
2.414479e+003,6.865613e-003
2.416407e+003,6.851475e-003
2.418336e+003,6.874264e-003
2.420264e+003,6.793750e-003
2.422193e+003,6.737480e-003
2.424122e+003,6.656824e-003
2.426050e+003,6.763831e-003
2.427979e+003,6.765009e-003
2.429907e+003,6.641044e-003
2.431835e+003,6.664428e-003
2.433764e+003,6.653157e-003
2.435692e+003,6.562761e-003
2.437621e+003,6.466127e-003
2.439550e+003,6.362993e-003
2.441478e+003,6.345510e-003
2.443406e+003,6.419147e-003
2.445335e+003,6.458931e-003
2.447263e+003,6.407950e-003
2.449192e+003,6.451902e-003
2.451121e+003,6.533765e-003
2.453049e+003,6.530536e-003
2.454978e+003,6.435222e-003
2.456906e+003,6.417466e-003
2.458834e+003,6.473123e-003
2.460763e+003,6.538945e-003
2.462691e+003,6.371803e-003
2.464620e+003,6.302106e-003
2.466549e+003,6.412893e-003
2.468477e+003,6.480085e-003
2.470406e+003,6.471441e-003
2.472334e+003,6.340366e-003
2.474262e+003,6.276658e-003
2.476191e+003,6.349847e-003
2.478119e+003,6.497742e-003
2.480048e+003,6.474199e-003
2.481977e+003,6.354554e-003
2.483905e+003,6.444032e-003
2.485833e+003,6.594550e-003
2.487762e+003,6.591556e-003
2.489690e+003,6.561213e-003
2.491619e+003,6.515703e-003
2.493547e+003,6.499693e-003
2.495476e+003,6.438013e-003
2.497405e+003,6.496161e-003
2.499333e+003,6.534337e-003
2.501261e+003,6.580757e-003
2.503190e+003,6.613221e-003
2.505118e+003,6.511128e-003
2.507047e+003,6.496968e-003
2.508975e+003,6.540963e-003
2.510904e+003,6.593036e-003
2.512833e+003,6.562626e-003
2.514761e+003,6.576081e-003
2.516689e+003,6.552669e-003
2.518618e+003,6.391809e-003
2.520546e+003,6.396786e-003
2.522475e+003,6.581632e-003
2.524403e+003,6.667490e-003
2.526332e+003,6.692052e-003
2.528260e+003,6.639127e-003
2.530189e+003,6.647403e-003
2.532117e+003,6.561280e-003
2.534046e+003,6.509548e-003
2.535974e+003,6.432868e-003
2.537903e+003,6.518158e-003
2.539831e+003,6.543150e-003
2.541760e+003,6.432094e-003
2.543688e+003,6.445209e-003
2.545617e+003,6.465186e-003
2.547545e+003,6.543654e-003
2.549474e+003,6.561079e-003
2.551402e+003,6.515568e-003
2.553331e+003,6.460881e-003
2.555259e+003,6.462395e-003
2.557188e+003,6.404284e-003
2.559116e+003,6.316394e-003
2.561045e+003,6.363666e-003
2.562973e+003,6.350889e-003
2.564902e+003,6.312999e-003
2.566830e+003,6.338012e-003
2.568759e+003,6.514795e-003
2.570687e+003,6.435524e-003
2.572616e+003,6.255010e-003
2.574544e+003,6.221463e-003
2.576473e+003,6.331355e-003
2.578401e+003,6.342517e-003
2.580330e+003,6.233933e-003
2.582258e+003,6.038148e-003
2.584187e+003,6.023802e-003
2.586115e+003,6.107533e-003
2.588044e+003,6.144095e-003
2.589972e+003,6.147153e-003
2.591901e+003,6.118656e-003
2.593829e+003,6.170678e-003
2.595758e+003,6.168258e-003
2.597686e+003,6.090597e-003
2.599615e+003,6.141810e-003
2.601543e+003,6.150413e-003
2.603472e+003,6.163486e-003
2.605400e+003,6.214539e-003
2.607329e+003,6.172090e-003
2.609257e+003,6.174812e-003
2.611186e+003,6.165637e-003
2.613114e+003,6.117345e-003
2.615043e+003,6.210002e-003
2.616971e+003,6.271178e-003
2.618900e+003,6.307519e-003
2.620828e+003,6.289667e-003
2.622757e+003,6.235009e-003
2.624685e+003,6.237160e-003
2.626614e+003,6.357244e-003
2.628542e+003,6.417466e-003
2.630471e+003,6.326581e-003
2.632399e+003,6.286777e-003
2.634328e+003,6.374560e-003
2.636256e+003,6.386362e-003
2.638185e+003,6.432262e-003
2.640113e+003,6.528686e-003
2.642042e+003,6.565922e-003
2.643970e+003,6.589167e-003
2.645899e+003,6.676373e-003
2.647827e+003,6.746634e-003
2.649756e+003,6.754240e-003
2.651684e+003,6.809805e-003
2.653613e+003,6.882343e-003
2.655541e+003,6.875914e-003
2.657470e+003,6.870830e-003
2.659398e+003,6.898738e-003
2.661327e+003,6.962065e-003
2.663255e+003,6.990079e-003
2.665184e+003,6.977823e-003
2.667112e+003,7.029106e-003
2.669041e+003,7.120341e-003
2.670969e+003,7.152744e-003
2.672898e+003,7.143683e-003
2.674826e+003,7.205260e-003
2.676755e+003,7.235278e-003
2.678683e+003,7.226215e-003
2.680612e+003,7.260075e-003
2.682540e+003,7.282818e-003
2.684469e+003,7.256065e-003
2.686397e+003,7.247305e-003
2.688326e+003,7.306573e-003
2.690254e+003,7.302091e-003
2.692183e+003,7.286221e-003
2.694111e+003,7.322748e-003
2.696040e+003,7.359480e-003
2.697968e+003,7.381015e-003
2.699897e+003,7.402719e-003
2.701825e+003,7.388530e-003
2.703754e+003,7.400259e-003
2.705682e+003,7.448087e-003
2.707611e+003,7.401303e-003
2.709539e+003,7.382262e-003
2.711468e+003,7.433492e-003
2.713396e+003,7.388732e-003
2.715325e+003,7.349066e-003
2.717253e+003,7.397832e-003
2.719182e+003,7.408584e-003
2.721110e+003,7.448794e-003
2.723039e+003,7.402281e-003
2.724967e+003,7.351998e-003
2.726896e+003,7.363153e-003
2.728824e+003,7.398372e-003
2.730753e+003,7.423447e-003
2.732681e+003,7.408280e-003
2.734610e+003,7.457255e-003
2.736538e+003,7.433997e-003
2.738467e+003,7.392911e-003
2.740395e+003,7.384756e-003
2.742324e+003,7.435211e-003
2.744252e+003,7.469289e-003
2.746181e+003,7.473267e-003
2.748109e+003,7.508157e-003
2.750038e+003,7.479334e-003
2.751966e+003,7.449401e-003
2.753895e+003,7.496965e-003
2.755823e+003,7.474345e-003
2.757752e+003,7.445019e-003
2.759680e+003,7.461098e-003
2.761609e+003,7.474514e-003
2.763537e+003,7.499291e-003
2.765466e+003,7.519619e-003
2.767394e+003,7.486279e-003
2.769323e+003,7.489447e-003
2.771251e+003,7.555154e-003
2.773180e+003,7.580138e-003
2.775108e+003,7.539173e-003
2.777037e+003,7.495448e-003
2.778965e+003,7.466794e-003
2.780894e+003,7.504246e-003
2.782822e+003,7.562942e-003
2.784750e+003,7.572888e-003
2.786679e+003,7.568944e-003
2.788608e+003,7.628828e-003
2.790536e+003,7.634797e-003
2.792465e+003,7.582869e-003
2.794393e+003,7.601515e-003
2.796322e+003,7.613182e-003
2.798250e+003,7.684843e-003
2.800178e+003,7.703258e-003
2.802107e+003,7.673275e-003
2.804036e+003,7.693139e-003
2.805964e+003,7.705180e-003
2.807893e+003,7.705517e-003
2.809821e+003,7.758911e-003
2.811750e+003,7.781242e-003
2.813678e+003,7.793689e-003
2.815606e+003,7.826649e-003
2.817535e+003,7.842505e-003
2.819464e+003,7.882588e-003
2.821392e+003,7.876446e-003
2.823321e+003,7.948826e-003
2.825249e+003,8.032761e-003
2.827177e+003,8.031343e-003
2.829106e+003,8.055206e-003
2.831034e+003,8.057671e-003
2.832963e+003,8.050379e-003
2.834892e+003,8.179913e-003
2.836820e+003,8.238396e-003
2.838749e+003,8.246061e-003
2.840677e+003,8.330695e-003
2.842605e+003,8.461495e-003
2.844534e+003,8.557694e-003
2.846462e+003,8.672269e-003
2.848391e+003,8.829343e-003
2.850320e+003,8.918250e-003
2.852248e+003,8.945477e-003
2.854177e+003,8.989180e-003
2.856105e+003,8.964724e-003
2.858033e+003,8.894136e-003
2.859962e+003,8.871985e-003
2.861890e+003,8.925117e-003
2.863819e+003,9.042562e-003
2.865748e+003,9.078898e-003
2.867676e+003,9.013638e-003
2.869604e+003,9.049734e-003
2.871533e+003,9.062489e-003
2.873461e+003,9.086782e-003
2.875390e+003,9.110365e-003
2.877319e+003,9.088846e-003
2.879247e+003,9.073586e-003
2.881176e+003,9.126370e-003
2.883104e+003,9.096628e-003
2.885032e+003,9.117099e-003
2.886961e+003,9.182747e-003
2.888889e+003,9.174118e-003
2.890818e+003,9.199601e-003
2.892747e+003,9.197096e-003
2.894675e+003,9.206302e-003
2.896604e+003,9.288314e-003
2.898532e+003,9.319592e-003
2.900460e+003,9.311096e-003
2.902389e+003,9.220483e-003
2.904317e+003,9.193813e-003
2.906246e+003,9.224341e-003
2.908175e+003,9.283236e-003
2.910103e+003,9.277820e-003
2.912031e+003,9.283338e-003
2.913960e+003,9.283710e-003
2.915888e+003,9.298909e-003
2.917817e+003,9.328767e-003
2.919745e+003,9.346981e-003
2.921674e+003,9.286283e-003
2.923603e+003,9.286452e-003
2.925531e+003,9.235105e-003
2.927459e+003,9.160073e-003
2.929388e+003,9.133950e-003
2.931316e+003,9.067293e-003
2.933245e+003,9.028083e-003
2.935173e+003,8.978461e-003
2.937102e+003,8.890643e-003
2.939031e+003,8.783851e-003
2.940959e+003,8.727211e-003
2.942887e+003,8.687484e-003
2.944816e+003,8.587077e-003
2.946744e+003,8.452271e-003
2.948673e+003,8.416458e-003
2.950601e+003,8.342993e-003
2.952530e+003,8.275419e-003
2.954458e+003,8.176510e-003
2.956387e+003,8.090860e-003
2.958315e+003,8.074109e-003
2.960244e+003,8.099563e-003
2.962172e+003,8.007480e-003
2.964101e+003,7.916345e-003
2.966029e+003,7.905155e-003
2.967958e+003,7.898728e-003
2.969886e+003,7.826678e-003
2.971815e+003,7.759128e-003
2.973743e+003,7.752320e-003
2.975672e+003,7.745370e-003
2.977600e+003,7.638599e-003
2.979529e+003,7.543766e-003
2.981457e+003,7.533752e-003
2.983386e+003,7.561225e-003
2.985314e+003,7.535409e-003
2.987243e+003,7.514656e-003
2.989171e+003,7.498506e-003
2.991100e+003,7.539616e-003
2.993028e+003,7.532166e-003
2.994957e+003,7.451492e-003
2.996885e+003,7.389786e-003
2.998814e+003,7.445146e-003
3.000742e+003,7.487064e-003
3.002671e+003,7.439728e-003
3.004599e+003,7.346591e-003
3.006528e+003,7.436022e-003
3.008456e+003,7.482368e-003
3.010385e+003,7.437483e-003
3.012313e+003,7.446694e-003
3.014242e+003,7.465763e-003
3.016170e+003,7.504014e-003
3.018099e+003,7.500529e-003
3.020027e+003,7.449178e-003
3.021956e+003,7.511417e-003
3.023884e+003,7.561638e-003
3.025813e+003,7.594464e-003
3.027741e+003,7.609583e-003
3.029670e+003,7.629507e-003
3.031598e+003,7.669580e-003
3.033527e+003,7.675706e-003
3.035455e+003,7.645094e-003
3.037384e+003,7.642124e-003
3.039312e+003,7.700281e-003
3.041241e+003,7.690786e-003
3.043169e+003,7.712162e-003
3.045098e+003,7.739102e-003
3.047026e+003,7.738590e-003
3.048955e+003,7.823387e-003
3.050883e+003,7.837209e-003
3.052812e+003,7.810854e-003
3.054740e+003,7.819149e-003
3.056669e+003,7.891158e-003
3.058597e+003,7.962803e-003
3.060526e+003,7.961235e-003
3.062454e+003,7.929818e-003
3.064383e+003,7.884759e-003
3.066311e+003,7.933650e-003
3.068240e+003,8.079899e-003
3.070168e+003,8.084559e-003
3.072097e+003,8.030434e-003
3.074025e+003,8.099366e-003
3.075954e+003,8.099716e-003
3.077882e+003,8.070543e-003
3.079811e+003,8.051139e-003
3.081739e+003,8.167371e-003
3.083668e+003,8.245048e-003
3.085596e+003,8.271570e-003
3.087525e+003,8.313530e-003
3.089453e+003,8.366315e-003
3.091382e+003,8.315006e-003
3.093310e+003,8.254851e-003
3.095239e+003,8.341266e-003
3.097167e+003,8.394509e-003
3.099096e+003,8.397749e-003
3.101024e+003,8.447441e-003
3.102953e+003,8.497063e-003
3.104881e+003,8.465556e-003
3.106810e+003,8.432045e-003
3.108738e+003,8.421110e-003
3.110667e+003,8.486817e-003
3.112595e+003,8.542087e-003
3.114524e+003,8.576915e-003
3.116452e+003,8.609381e-003
3.118381e+003,8.530780e-003
3.120309e+003,8.560563e-003
3.122238e+003,8.663329e-003
3.124166e+003,8.756616e-003
3.126095e+003,8.751947e-003
3.128023e+003,8.783720e-003
3.129952e+003,8.892312e-003
3.131880e+003,8.906407e-003
3.133809e+003,8.890902e-003
3.135737e+003,8.886198e-003
3.137666e+003,8.864742e-003
3.139594e+003,8.915390e-003
3.141523e+003,8.984284e-003
3.143451e+003,9.060106e-003
3.145380e+003,9.071745e-003
3.147308e+003,9.165420e-003
3.149237e+003,9.233237e-003
3.151165e+003,9.242631e-003
3.153094e+003,9.299817e-003
3.155022e+003,9.253085e-003
3.156951e+003,9.246752e-003
3.158879e+003,9.315733e-003
3.160808e+003,9.411717e-003
3.162736e+003,9.411305e-003
3.164665e+003,9.415974e-003
3.166593e+003,9.469911e-003
3.168522e+003,9.523893e-003
3.170450e+003,9.574687e-003
3.172379e+003,9.659624e-003
3.174307e+003,9.727605e-003
3.176236e+003,9.799446e-003
3.178164e+003,9.803060e-003
3.180093e+003,9.750293e-003
3.182021e+003,9.754130e-003
3.183950e+003,9.834263e-003
3.185878e+003,9.888044e-003
3.187807e+003,9.926458e-003
3.189735e+003,9.961778e-003
3.191664e+003,1.002218e-002
3.193592e+003,9.997699e-003
3.195521e+003,1.002839e-002
3.197449e+003,1.008837e-002
3.199378e+003,1.016334e-002
3.201306e+003,1.019692e-002
3.203235e+003,1.023199e-002
3.205163e+003,1.024182e-002
3.207092e+003,1.030856e-002
3.209020e+003,1.031852e-002
3.210948e+003,1.040011e-002
3.212877e+003,1.040676e-002
3.214806e+003,1.036884e-002
3.216734e+003,1.040741e-002
3.218663e+003,1.051800e-002
3.220591e+003,1.055867e-002
3.222520e+003,1.065114e-002
3.224448e+003,1.070781e-002
3.226376e+003,1.072976e-002
3.228305e+003,1.069154e-002
3.230234e+003,1.072189e-002
3.232162e+003,1.077170e-002
3.234091e+003,1.083266e-002
3.236019e+003,1.094405e-002
3.237948e+003,1.097284e-002
3.239876e+003,1.095828e-002
3.241804e+003,1.102058e-002
3.243733e+003,1.107507e-002
3.245662e+003,1.111951e-002
3.247590e+003,1.107621e-002
3.249519e+003,1.107198e-002
3.251447e+003,1.120437e-002
3.253375e+003,1.127138e-002
3.255304e+003,1.129421e-002
3.257232e+003,1.136306e-002
3.259161e+003,1.149188e-002
3.261090e+003,1.150109e-002
3.263018e+003,1.149101e-002
3.264947e+003,1.155826e-002
3.266875e+003,1.167285e-002
3.268803e+003,1.167430e-002
3.270732e+003,1.161451e-002
3.272660e+003,1.165220e-002
3.274589e+003,1.166211e-002
3.276518e+003,1.171329e-002
3.278446e+003,1.180515e-002
3.280375e+003,1.175583e-002
3.282303e+003,1.171900e-002
3.284231e+003,1.182755e-002
3.286160e+003,1.188525e-002
3.288088e+003,1.191368e-002
3.290017e+003,1.187742e-002
3.291946e+003,1.184072e-002
3.293874e+003,1.187754e-002
3.295802e+003,1.186007e-002
3.297731e+003,1.189964e-002
3.299659e+003,1.192810e-002
3.301588e+003,1.189435e-002
3.303516e+003,1.189229e-002
3.305445e+003,1.192929e-002
3.307374e+003,1.195463e-002
3.309302e+003,1.192337e-002
3.311230e+003,1.190204e-002
3.313159e+003,1.182126e-002
3.315087e+003,1.180754e-002
3.317016e+003,1.200268e-002
3.318944e+003,1.206204e-002
3.320873e+003,1.194386e-002
3.322802e+003,1.192109e-002
3.324730e+003,1.197450e-002
3.326658e+003,1.193918e-002
3.328587e+003,1.193010e-002
3.330515e+003,1.191989e-002
3.332444e+003,1.195504e-002
3.334372e+003,1.198248e-002
3.336301e+003,1.192235e-002
3.338229e+003,1.186300e-002
3.340158e+003,1.178652e-002
3.342086e+003,1.176912e-002
3.344015e+003,1.172503e-002
3.345943e+003,1.171608e-002
3.347872e+003,1.173597e-002
3.349800e+003,1.178920e-002
3.351729e+003,1.178697e-002
3.353657e+003,1.178606e-002
3.355586e+003,1.178571e-002
3.357514e+003,1.179673e-002
3.359443e+003,1.169649e-002
3.361371e+003,1.162224e-002
3.363300e+003,1.154261e-002
3.365229e+003,1.149474e-002
3.367157e+003,1.151363e-002
3.369085e+003,1.151421e-002
3.371014e+003,1.144895e-002
3.372942e+003,1.151862e-002
3.374871e+003,1.154378e-002
3.376799e+003,1.145403e-002
3.378728e+003,1.141803e-002
3.380656e+003,1.140539e-002
3.382585e+003,1.132961e-002
3.384513e+003,1.133672e-002
3.386442e+003,1.127187e-002
3.388370e+003,1.115959e-002
3.390299e+003,1.116501e-002
3.392227e+003,1.114392e-002
3.394156e+003,1.118360e-002
3.396084e+003,1.118645e-002
3.398013e+003,1.110727e-002
3.399941e+003,1.104425e-002
3.401870e+003,1.102866e-002
3.403798e+003,1.091498e-002
3.405727e+003,1.088558e-002
3.407655e+003,1.086367e-002
3.409584e+003,1.085669e-002
3.411512e+003,1.084637e-002
3.413441e+003,1.079666e-002
3.415369e+003,1.076389e-002
3.417298e+003,1.072476e-002
3.419226e+003,1.059644e-002
3.421155e+003,1.046215e-002
3.423083e+003,1.047855e-002
3.425012e+003,1.043927e-002
3.426940e+003,1.029737e-002
3.428869e+003,1.023865e-002
3.430797e+003,1.021969e-002
3.432726e+003,1.018359e-002
3.434654e+003,1.015735e-002
3.436583e+003,1.007413e-002
3.438511e+003,9.986002e-003
3.440440e+003,9.957746e-003
3.442368e+003,9.901556e-003
3.444297e+003,9.777062e-003
3.446225e+003,9.628592e-003
3.448154e+003,9.669807e-003
3.450082e+003,9.642678e-003
3.452011e+003,9.463741e-003
3.453939e+003,9.332165e-003
3.455868e+003,9.318253e-003
3.457796e+003,9.282637e-003
3.459725e+003,9.217476e-003
3.461653e+003,9.126931e-003
3.463582e+003,8.981291e-003
3.465510e+003,8.814192e-003
3.467439e+003,8.725313e-003
3.469367e+003,8.770768e-003
3.471296e+003,8.703375e-003
3.473224e+003,8.636443e-003
3.475153e+003,8.587201e-003
3.477081e+003,8.575068e-003
3.479010e+003,8.494901e-003
3.480938e+003,8.401791e-003
3.482867e+003,8.387448e-003
3.484795e+003,8.419423e-003
3.486724e+003,8.304138e-003
3.488652e+003,8.153711e-003
3.490581e+003,8.125098e-003
3.492509e+003,8.040969e-003
3.494438e+003,7.923840e-003
3.496366e+003,7.809284e-003
3.498295e+003,7.786412e-003
3.500223e+003,7.737702e-003
3.502152e+003,7.709198e-003
3.504080e+003,7.777980e-003
3.506009e+003,7.684740e-003
3.507937e+003,7.520874e-003
3.509866e+003,7.460427e-003
3.511794e+003,7.523630e-003
3.513723e+003,7.445347e-003
3.515651e+003,7.382432e-003
3.517580e+003,7.266066e-003
3.519508e+003,7.195290e-003
3.521437e+003,7.143342e-003
3.523365e+003,7.077347e-003
3.525294e+003,7.016826e-003
3.527222e+003,6.992221e-003
3.529151e+003,6.963764e-003
3.531079e+003,6.956541e-003
3.533008e+003,6.947123e-003
3.534936e+003,6.882646e-003
3.536865e+003,6.786321e-003
3.538793e+003,6.722943e-003
3.540722e+003,6.704951e-003
3.542650e+003,6.607379e-003
3.544579e+003,6.457856e-003
3.546507e+003,6.449130e-003
3.548436e+003,6.472824e-003
3.550364e+003,6.331214e-003
3.552293e+003,6.260050e-003
3.554221e+003,6.299412e-003
3.556150e+003,6.137106e-003
3.558078e+003,6.051766e-003
3.560007e+003,6.096508e-003
3.561935e+003,5.948566e-003
3.563864e+003,5.804840e-003
3.565792e+003,5.710645e-003
3.567721e+003,5.637806e-003
3.569649e+003,5.684450e-003
3.571578e+003,5.655595e-003
3.573506e+003,5.543580e-003
3.575435e+003,5.462300e-003
3.577363e+003,5.417704e-003
3.579292e+003,5.372984e-003
3.581220e+003,5.260308e-003
3.583149e+003,5.122460e-003
3.585077e+003,4.990289e-003
3.587006e+003,4.838557e-003
3.588934e+003,4.701956e-003
3.590863e+003,4.464830e-003
3.592791e+003,4.262875e-003
3.594720e+003,4.180857e-003
3.596648e+003,4.209516e-003
3.598577e+003,4.079810e-003
3.600505e+003,4.057322e-003
3.602434e+003,4.109398e-003
3.604362e+003,4.056728e-003
3.606291e+003,4.087379e-003
3.608219e+003,4.289767e-003
3.610148e+003,4.575584e-003
3.612076e+003,4.652126e-003
3.614005e+003,4.455811e-003
3.615933e+003,4.242564e-003
3.617862e+003,3.968769e-003
3.619790e+003,3.675456e-003
3.621719e+003,3.394967e-003
3.623647e+003,3.247661e-003
3.625576e+003,3.182679e-003
3.627504e+003,3.216921e-003
3.629433e+003,3.347314e-003
3.631361e+003,3.507488e-003
3.633290e+003,3.586073e-003
3.635218e+003,3.617472e-003
3.637146e+003,3.862993e-003
3.639075e+003,4.096684e-003
3.641004e+003,4.232003e-003
3.642932e+003,4.294107e-003
3.644861e+003,4.352489e-003
3.646789e+003,4.271598e-003
3.648718e+003,4.243894e-003
3.650646e+003,4.338442e-003
3.652574e+003,4.492551e-003
3.654503e+003,4.437887e-003
3.656432e+003,4.311356e-003
3.658360e+003,4.260699e-003
3.660289e+003,4.314034e-003
3.662217e+003,4.384958e-003
3.664146e+003,4.298764e-003
3.666074e+003,4.223608e-003
3.668002e+003,4.263562e-003
3.669931e+003,4.332630e-003
3.671860e+003,4.216914e-003
3.673788e+003,4.085371e-003
3.675717e+003,3.941351e-003
3.677645e+003,3.992442e-003
3.679573e+003,3.934838e-003
3.681502e+003,3.831142e-003
3.683430e+003,3.685791e-003
3.685359e+003,3.645760e-003
3.687288e+003,3.588222e-003
3.689216e+003,3.323315e-003
3.691145e+003,3.078605e-003
3.693073e+003,2.992139e-003
3.695001e+003,2.845742e-003
3.696930e+003,2.600762e-003
3.698858e+003,2.434711e-003
3.700787e+003,2.493310e-003
3.702716e+003,2.516530e-003
3.704644e+003,2.543551e-003
3.706573e+003,2.551634e-003
3.708501e+003,2.695860e-003
3.710429e+003,2.910752e-003
3.712358e+003,3.327845e-003
3.714286e+003,3.542032e-003
3.716215e+003,3.390967e-003
3.718144e+003,2.971227e-003
3.720072e+003,2.505274e-003
3.722000e+003,2.051491e-003
3.723929e+003,1.829469e-003
3.725857e+003,1.686298e-003
3.727786e+003,1.655488e-003
3.729714e+003,1.702582e-003
3.731643e+003,1.803466e-003
3.733572e+003,1.951414e-003
3.735500e+003,2.202642e-003
3.737428e+003,2.646411e-003
3.739357e+003,3.009671e-003
3.741285e+003,3.312022e-003
3.743214e+003,3.684747e-003
3.745142e+003,3.804167e-003
3.747071e+003,3.840475e-003
3.749000e+003,3.954665e-003
3.750928e+003,4.014512e-003
3.752856e+003,3.989278e-003
3.754785e+003,3.843827e-003
3.756713e+003,3.948986e-003
3.758642e+003,3.960588e-003
3.760570e+003,3.987237e-003
3.762499e+003,4.012735e-003
3.764427e+003,3.993390e-003
3.766356e+003,4.035194e-003
3.768284e+003,4.042996e-003
3.770213e+003,4.021567e-003
3.772141e+003,3.997972e-003
3.774070e+003,3.951778e-003
3.775998e+003,3.999005e-003
3.777927e+003,4.035326e-003
3.779855e+003,4.017971e-003
3.781784e+003,4.029148e-003
3.783712e+003,3.946849e-003
3.785641e+003,3.980079e-003
3.787569e+003,4.074810e-003
3.789498e+003,4.068690e-003
3.791426e+003,4.174057e-003
3.793355e+003,4.218351e-003
3.795283e+003,4.226401e-003
3.797212e+003,4.187053e-003
3.799140e+003,4.166932e-003
3.801069e+003,4.158251e-003
3.802997e+003,4.146141e-003
3.804926e+003,4.155583e-003
3.806854e+003,4.072478e-003
3.808783e+003,4.058717e-003
3.810711e+003,4.091540e-003
3.812640e+003,4.129829e-003
3.814568e+003,4.233334e-003
3.816497e+003,4.138813e-003
3.818425e+003,4.090897e-003
3.820354e+003,4.113105e-003
3.822282e+003,4.039220e-003
3.824211e+003,4.101993e-003
3.826139e+003,4.139946e-003
3.828068e+003,4.158408e-003
3.829996e+003,4.124225e-003
3.831925e+003,4.109658e-003
3.833853e+003,4.160438e-003
3.835782e+003,4.275557e-003
3.837710e+003,4.384004e-003
3.839639e+003,4.173444e-003
3.841567e+003,4.098181e-003
3.843496e+003,4.131202e-003
3.845424e+003,4.178131e-003
3.847353e+003,4.083210e-003
3.849281e+003,4.111234e-003
3.851210e+003,4.287658e-003
3.853138e+003,4.263380e-003
3.855067e+003,4.198359e-003
3.856995e+003,4.107956e-003
3.858924e+003,4.086141e-003
3.860852e+003,4.110282e-003
3.862781e+003,4.163833e-003
3.864709e+003,4.195902e-003
3.866638e+003,4.149848e-003
3.868566e+003,4.158912e-003
3.870495e+003,4.140717e-003
3.872423e+003,4.059535e-003
3.874352e+003,4.096475e-003
3.876280e+003,4.234876e-003
3.878209e+003,4.274772e-003
3.880137e+003,4.152115e-003
3.882066e+003,4.209034e-003
3.883994e+003,4.242406e-003
3.885923e+003,4.135046e-003
3.887851e+003,4.160157e-003
3.889780e+003,4.181107e-003
3.891708e+003,4.138891e-003
3.893637e+003,4.159098e-003
3.895565e+003,4.137878e-003
3.897494e+003,4.116057e-003
3.899422e+003,4.105982e-003
3.901351e+003,4.148790e-003
3.903279e+003,4.179023e-003
3.905208e+003,4.114657e-003
3.907136e+003,4.048281e-003
3.909065e+003,4.191673e-003
3.910993e+003,4.249609e-003
3.912922e+003,4.126810e-003
3.914850e+003,4.113261e-003
3.916779e+003,4.092957e-003
3.918707e+003,4.049261e-003
3.920636e+003,4.105074e-003
3.922564e+003,4.105983e-003
3.924493e+003,4.086865e-003
3.926421e+003,4.090048e-003
3.928350e+003,4.107969e-003
3.930278e+003,4.082621e-003
3.932207e+003,4.027916e-003
3.934135e+003,4.097947e-003
3.936064e+003,4.153426e-003
3.937992e+003,4.104092e-003
3.939921e+003,4.082111e-003
3.941849e+003,4.127502e-003
3.943778e+003,4.173588e-003
3.945706e+003,4.145022e-003
3.947635e+003,4.127834e-003
3.949563e+003,4.138383e-003
3.951492e+003,4.163749e-003
3.953420e+003,4.148811e-003
3.955349e+003,4.154715e-003
3.957277e+003,4.112878e-003
3.959206e+003,4.062128e-003
3.961134e+003,4.092527e-003
3.963063e+003,4.089302e-003
3.964991e+003,4.158434e-003
3.966920e+003,4.192926e-003
3.968848e+003,4.153822e-003
3.970777e+003,4.247441e-003
3.972705e+003,4.204191e-003
3.974634e+003,4.159465e-003
3.976562e+003,4.170666e-003
3.978491e+003,4.203870e-003
3.980419e+003,4.090913e-003
3.982348e+003,4.047994e-003
3.984276e+003,4.108700e-003
3.986205e+003,4.145893e-003
3.988133e+003,4.177969e-003
3.990062e+003,4.232223e-003
3.991990e+003,4.153480e-003
3.993919e+003,4.121730e-003
3.995847e+003,4.090042e-003
3.997776e+003,4.110581e-003
3.999704e+003,4.111487e-003
4.001633e+003,0.000000e+000
