3.991989e+002,3.008791e-002
4.011274e+002,2.845683e-002
4.030559e+002,2.845683e-002
4.049844e+002,2.603350e-002
4.069129e+002,2.747246e-002
4.088414e+002,3.144801e-002
4.107699e+002,3.337585e-002
4.126984e+002,3.212047e-002
4.146269e+002,3.164109e-002
4.165554e+002,3.261368e-002
4.184839e+002,3.508962e-002
4.204124e+002,3.530683e-002
4.223409e+002,3.369653e-002
4.242694e+002,3.365210e-002
4.261979e+002,3.500374e-002
4.281264e+002,3.396592e-002
4.300549e+002,3.227748e-002
4.319834e+002,3.249050e-002
4.339119e+002,3.374172e-002
4.358404e+002,3.350125e-002
4.377689e+002,3.332243e-002
4.396974e+002,3.374735e-002
4.416259e+002,3.406489e-002
4.435544e+002,3.365238e-002
4.454829e+002,3.386651e-002
4.474114e+002,3.350300e-002
4.493399e+002,3.357205e-002
4.512684e+002,3.362102e-002
4.531969e+002,3.339278e-002
4.551254e+002,3.328205e-002
4.570539e+002,3.363083e-002
4.589824e+002,3.353611e-002
4.609109e+002,3.286524e-002
4.628394e+002,3.251560e-002
4.647679e+002,3.281128e-002
4.666964e+002,3.262711e-002
4.686249e+002,3.258889e-002
4.705533e+002,3.205155e-002
4.724819e+002,3.215422e-002
4.744103e+002,3.188810e-002
4.763389e+002,3.113700e-002
4.782673e+002,3.072637e-002
4.801959e+002,3.090813e-002
4.821243e+002,3.061126e-002
4.840529e+002,3.063999e-002
4.859813e+002,3.025843e-002
4.879099e+002,2.987504e-002
4.898383e+002,2.958458e-002
4.917668e+002,2.918449e-002
4.936953e+002,2.877857e-002
4.956238e+002,2.878009e-002
4.975523e+002,2.854635e-002
4.994808e+002,2.805544e-002
5.014093e+002,2.804456e-002
5.033378e+002,2.822832e-002
5.052663e+002,2.802915e-002
5.071948e+002,2.791589e-002
5.091233e+002,2.794469e-002
5.110518e+002,2.772873e-002
5.129803e+002,2.796716e-002
5.149088e+002,2.866880e-002
5.168373e+002,2.899725e-002
5.187658e+002,2.853768e-002
5.206943e+002,2.857766e-002
5.226228e+002,2.879797e-002
5.245513e+002,2.867995e-002
5.264798e+002,2.886575e-002
5.284083e+002,2.861914e-002
5.303368e+002,2.845609e-002
5.322653e+002,2.797829e-002
5.341938e+002,2.777751e-002
5.361223e+002,2.810892e-002
5.380508e+002,2.835485e-002
5.399792e+002,2.772530e-002
5.419078e+002,2.688540e-002
5.438363e+002,2.725473e-002
5.457648e+002,2.771262e-002
5.476932e+002,2.797522e-002
5.496218e+002,2.801522e-002
5.515503e+002,2.765510e-002
5.534788e+002,2.810967e-002
5.554072e+002,2.834795e-002
5.573358e+002,2.843281e-002
5.592643e+002,2.826601e-002
5.611927e+002,2.828620e-002
5.631212e+002,2.811829e-002
5.650497e+002,2.786455e-002
5.669783e+002,2.743636e-002
5.689067e+002,2.717684e-002
5.708352e+002,2.692083e-002
5.727637e+002,2.684261e-002
5.746923e+002,2.702029e-002
5.766207e+002,2.708905e-002
5.785492e+002,2.668776e-002
5.804777e+002,2.642957e-002
5.824063e+002,2.635556e-002
5.843347e+002,2.637996e-002
5.862632e+002,2.620891e-002
5.881917e+002,2.617489e-002
5.901202e+002,2.616863e-002
5.920487e+002,2.623877e-002
5.939772e+002,2.617699e-002
5.959057e+002,2.603520e-002
5.978342e+002,2.587116e-002
5.997627e+002,2.584881e-002
6.016912e+002,2.577559e-002
6.036197e+002,2.570051e-002
6.055482e+002,2.556372e-002
6.074767e+002,2.560810e-002
6.094052e+002,2.538722e-002
6.113337e+002,2.516581e-002
6.132622e+002,2.510826e-002
6.151907e+002,2.488966e-002
6.171192e+002,2.463141e-002
6.190477e+002,2.443645e-002
6.209762e+002,2.411862e-002
6.229047e+002,2.364661e-002
6.248332e+002,2.357551e-002
6.267617e+002,2.341612e-002
6.286902e+002,2.296672e-002
6.306187e+002,2.272480e-002
6.325472e+002,2.277061e-002
6.344756e+002,2.287510e-002
6.364042e+002,2.269204e-002
6.383326e+002,2.243842e-002
6.402612e+002,2.225260e-002
6.421896e+002,2.215139e-002
6.441182e+002,2.185473e-002
6.460466e+002,2.182510e-002
6.479752e+002,2.184561e-002
6.499036e+002,2.164920e-002
6.518322e+002,2.151765e-002
6.537606e+002,2.157000e-002
6.556891e+002,2.151376e-002
6.576177e+002,2.139369e-002
6.595461e+002,2.124702e-002
6.614746e+002,2.120884e-002
6.634031e+002,2.136312e-002
6.653317e+002,2.141197e-002
6.672601e+002,2.109322e-002
6.691886e+002,2.095363e-002
6.711171e+002,2.061537e-002
6.730457e+002,2.009242e-002
6.749741e+002,1.963564e-002
6.769026e+002,1.927921e-002
6.788311e+002,1.895842e-002
6.807596e+002,1.850252e-002
6.826881e+002,1.811577e-002
6.846166e+002,1.813276e-002
6.865451e+002,1.806634e-002
6.884736e+002,1.783679e-002
6.904021e+002,1.780786e-002
6.923306e+002,1.781960e-002
6.942591e+002,1.779130e-002
6.961876e+002,1.770585e-002
6.981161e+002,1.773641e-002
7.000446e+002,1.780029e-002
7.019731e+002,1.774679e-002
7.039016e+002,1.757658e-002
7.058301e+002,1.743580e-002
7.077585e+002,1.728310e-002
7.096871e+002,1.718524e-002
7.116156e+002,1.708971e-002
7.135441e+002,1.691854e-002
7.154725e+002,1.685858e-002
7.174011e+002,1.654213e-002
7.193296e+002,1.633638e-002
7.212581e+002,1.633792e-002
7.231865e+002,1.642298e-002
7.251151e+002,1.626402e-002
7.270436e+002,1.599830e-002
7.289720e+002,1.584178e-002
7.309005e+002,1.575639e-002
7.328290e+002,1.566608e-002
7.347576e+002,1.552292e-002
7.366860e+002,1.528802e-002
7.386145e+002,1.515760e-002
7.405430e+002,1.505675e-002
7.424716e+002,1.490806e-002
7.444000e+002,1.486860e-002
7.463285e+002,1.494587e-002
7.482570e+002,1.473735e-002
7.501855e+002,1.453296e-002
7.521140e+002,1.435740e-002
7.540425e+002,1.431524e-002
7.559710e+002,1.430376e-002
7.578995e+002,1.428350e-002
7.598280e+002,1.419888e-002
7.617565e+002,1.421747e-002
7.636850e+002,1.408160e-002
7.656135e+002,1.398729e-002
7.675420e+002,1.390548e-002
7.694705e+002,1.392491e-002
7.713990e+002,1.392040e-002
7.733275e+002,1.390428e-002
7.752560e+002,1.388591e-002
7.771844e+002,1.389463e-002
7.791130e+002,1.388194e-002
7.810415e+002,1.395694e-002
7.829700e+002,1.390692e-002
7.848984e+002,1.390805e-002
7.868270e+002,1.393853e-002
7.887555e+002,1.393709e-002
7.906840e+002,1.396891e-002
7.926124e+002,1.395194e-002
7.945410e+002,1.366507e-002
7.964695e+002,1.359792e-002
7.983979e+002,1.371537e-002
8.003264e+002,1.372960e-002
8.022549e+002,1.363713e-002
8.041835e+002,1.357477e-002
8.061119e+002,1.354661e-002
8.080404e+002,1.352299e-002
8.099689e+002,1.349588e-002
8.118975e+002,1.352165e-002
8.138259e+002,1.344991e-002
8.157545e+002,1.337835e-002
8.176830e+002,1.340651e-002
8.196115e+002,1.348737e-002
8.215399e+002,1.343385e-002
8.234684e+002,1.335905e-002
8.253970e+002,1.338980e-002
8.273254e+002,1.344813e-002
8.292539e+002,1.347424e-002
8.311824e+002,1.346645e-002
8.331110e+002,1.341915e-002
8.350394e+002,1.338829e-002
8.369679e+002,1.329826e-002
8.388964e+002,1.331774e-002
8.408250e+002,1.321180e-002
8.427534e+002,1.316033e-002
8.446819e+002,1.316962e-002
8.466104e+002,1.320893e-002
8.485389e+002,1.319431e-002
8.504674e+002,1.322567e-002
8.523959e+002,1.331077e-002
8.543244e+002,1.346413e-002
8.562529e+002,1.345213e-002
8.581814e+002,1.345237e-002
8.601099e+002,1.346696e-002
8.620384e+002,1.345534e-002
8.639669e+002,1.354548e-002
8.658954e+002,1.369574e-002
8.678239e+002,1.374256e-002
8.697524e+002,1.378500e-002
8.716809e+002,1.388081e-002
8.736094e+002,1.410488e-002
8.755378e+002,1.421384e-002
8.774664e+002,1.430475e-002
8.793949e+002,1.445455e-002
8.813234e+002,1.462583e-002
8.832518e+002,1.479443e-002
8.851804e+002,1.510576e-002
8.871089e+002,1.542167e-002
8.890374e+002,1.576704e-002
8.909658e+002,1.619537e-002
8.928943e+002,1.649249e-002
8.948229e+002,1.660556e-002
8.967513e+002,1.661451e-002
8.986798e+002,1.656801e-002
9.006083e+002,1.639314e-002
9.025369e+002,1.616194e-002
9.044653e+002,1.604049e-002
9.063938e+002,1.588636e-002
9.083223e+002,1.573925e-002
9.102509e+002,1.566779e-002
9.121793e+002,1.572073e-002
9.141078e+002,1.580962e-002
9.160364e+002,1.588965e-002
9.179648e+002,1.600054e-002
9.198933e+002,1.616418e-002
9.218218e+002,1.634366e-002
9.237504e+002,1.646585e-002
9.256788e+002,1.657844e-002
9.276073e+002,1.678117e-002
9.295358e+002,1.703272e-002
9.314644e+002,1.729614e-002
9.333928e+002,1.748009e-002
9.353213e+002,1.769570e-002
9.372498e+002,1.800532e-002
9.391783e+002,1.828685e-002
9.411068e+002,1.868619e-002
9.430353e+002,1.913170e-002
9.449637e+002,1.950559e-002
9.468923e+002,1.993241e-002
9.488208e+002,2.034098e-002
9.507493e+002,2.078854e-002
9.526777e+002,2.121169e-002
9.546063e+002,2.175128e-002
9.565348e+002,2.232519e-002
9.584633e+002,2.280851e-002
9.603917e+002,2.323003e-002
9.623203e+002,2.375267e-002
9.642488e+002,2.423113e-002
9.661772e+002,2.463720e-002
9.681057e+002,2.501238e-002
9.700343e+002,2.550200e-002
9.719628e+002,2.590975e-002
9.738912e+002,2.635081e-002
9.758197e+002,2.683785e-002
9.777483e+002,2.741543e-002
9.796768e+002,2.795645e-002
9.816052e+002,2.856588e-002
9.835337e+002,2.918655e-002
9.854623e+002,2.963999e-002
9.873907e+002,2.996413e-002
9.893192e+002,3.028156e-002
9.912477e+002,3.043058e-002
9.931763e+002,3.047202e-002
9.951047e+002,3.043829e-002
9.970332e+002,3.055001e-002
9.989617e+002,3.080682e-002
1.000890e+003,3.118598e-002
1.002819e+003,3.152692e-002
1.004747e+003,3.180071e-002
1.006676e+003,3.209026e-002
1.008604e+003,3.240742e-002
1.010533e+003,3.270077e-002
1.012461e+003,3.303625e-002
1.014390e+003,3.348790e-002
1.016318e+003,3.400386e-002
1.018247e+003,3.442654e-002
1.020175e+003,3.489594e-002
1.022104e+003,3.531402e-002
1.024032e+003,3.573084e-002
1.025961e+003,3.617828e-002
1.027889e+003,3.663181e-002
1.029818e+003,3.698820e-002
1.031746e+003,3.724224e-002
1.033675e+003,3.725087e-002
1.035603e+003,3.716644e-002
1.037532e+003,3.686310e-002
1.039460e+003,3.640389e-002
1.041389e+003,3.594869e-002
1.043317e+003,3.560423e-002
1.045246e+003,3.530647e-002
1.047174e+003,3.495799e-002
1.049103e+003,3.462138e-002
1.051031e+003,3.437339e-002
1.052960e+003,3.401458e-002
1.054888e+003,3.350350e-002
1.056817e+003,3.292046e-002
1.058745e+003,3.239703e-002
1.060674e+003,3.176032e-002
1.062602e+003,3.114383e-002
1.064531e+003,3.057930e-002
1.066459e+003,2.995540e-002
1.068388e+003,2.932655e-002
1.070316e+003,2.891522e-002
1.072245e+003,2.850074e-002
1.074173e+003,2.805498e-002
1.076102e+003,2.760704e-002
1.078030e+003,2.712231e-002
1.079959e+003,2.664591e-002
1.081887e+003,2.622556e-002
1.083816e+003,2.577141e-002
1.085744e+003,2.537285e-002
1.087673e+003,2.504144e-002
1.089601e+003,2.479984e-002
1.091530e+003,2.456798e-002
1.093458e+003,2.430180e-002
1.095387e+003,2.406299e-002
1.097315e+003,2.395451e-002
1.099244e+003,2.382011e-002
1.101172e+003,2.369976e-002
1.103101e+003,2.353323e-002
1.105029e+003,2.336711e-002
1.106958e+003,2.305522e-002
1.108886e+003,2.261879e-002
1.110815e+003,2.209273e-002
1.112743e+003,2.149322e-002
1.114672e+003,2.086627e-002
1.116600e+003,2.027491e-002
1.118529e+003,1.978244e-002
1.120457e+003,1.929954e-002
1.122386e+003,1.880890e-002
1.124314e+003,1.836136e-002
1.126243e+003,1.781503e-002
1.128171e+003,1.726969e-002
1.130100e+003,1.675737e-002
1.132028e+003,1.628539e-002
1.133957e+003,1.580312e-002
1.135885e+003,1.544882e-002
1.137814e+003,1.515883e-002
1.139742e+003,1.501654e-002
1.141671e+003,1.492274e-002
1.143599e+003,1.496807e-002
1.145528e+003,1.507903e-002
1.147456e+003,1.525560e-002
1.149385e+003,1.545102e-002
1.151313e+003,1.565525e-002
1.153242e+003,1.580725e-002
1.155170e+003,1.603461e-002
1.157099e+003,1.620318e-002
1.159027e+003,1.626967e-002
1.160956e+003,1.618746e-002
1.162884e+003,1.598425e-002
1.164813e+003,1.564179e-002
1.166741e+003,1.516673e-002
1.168670e+003,1.454010e-002
1.170598e+003,1.392505e-002
1.172526e+003,1.330270e-002
1.174455e+003,1.270346e-002
1.176384e+003,1.217384e-002
1.178312e+003,1.170973e-002
1.180240e+003,1.126958e-002
1.182169e+003,1.095634e-002
1.184098e+003,1.068577e-002
1.186026e+003,1.044647e-002
1.187954e+003,1.035903e-002
1.189883e+003,1.031454e-002
1.191812e+003,1.034319e-002
1.193740e+003,1.042181e-002
1.195668e+003,1.052628e-002
1.197597e+003,1.070806e-002
1.199526e+003,1.087889e-002
1.201454e+003,1.094646e-002
1.203382e+003,1.101837e-002
1.205311e+003,1.102943e-002
1.207240e+003,1.097588e-002
1.209168e+003,1.096928e-002
1.211096e+003,1.098527e-002
1.213025e+003,1.107403e-002
1.214953e+003,1.120255e-002
1.216882e+003,1.131870e-002
1.218810e+003,1.143633e-002
1.220739e+003,1.163063e-002
1.222667e+003,1.183210e-002
1.224596e+003,1.199523e-002
1.226524e+003,1.220935e-002
1.228453e+003,1.243082e-002
1.230381e+003,1.257661e-002
1.232310e+003,1.272385e-002
1.234238e+003,1.279934e-002
1.236167e+003,1.282762e-002
1.238095e+003,1.285155e-002
1.240024e+003,1.282577e-002
1.241952e+003,1.278452e-002
1.243881e+003,1.269620e-002
1.245809e+003,1.257551e-002
1.247738e+003,1.242771e-002
1.249666e+003,1.222758e-002
1.251595e+003,1.208570e-002
1.253523e+003,1.192320e-002
1.255452e+003,1.172353e-002
1.257380e+003,1.146780e-002
1.259309e+003,1.124890e-002
1.261237e+003,1.103405e-002
1.263166e+003,1.080146e-002
1.265094e+003,1.052348e-002
1.267023e+003,1.028595e-002
1.268951e+003,1.008837e-002
1.270880e+003,9.902598e-003
1.272808e+003,9.697181e-003
1.274737e+003,9.522852e-003
1.276665e+003,9.390045e-003
1.278594e+003,9.261543e-003
1.280522e+003,9.149560e-003
1.282451e+003,9.056316e-003
1.284379e+003,8.992769e-003
1.286308e+003,8.898612e-003
1.288236e+003,8.764345e-003
1.290165e+003,8.721136e-003
1.292093e+003,8.771125e-003
1.294022e+003,8.843165e-003
1.295950e+003,8.896261e-003
1.297879e+003,8.989076e-003
1.299807e+003,9.068945e-003
1.301736e+003,9.148587e-003
1.303664e+003,9.294961e-003
1.305593e+003,9.463647e-003
1.307521e+003,9.592857e-003
1.309450e+003,9.730265e-003
1.311378e+003,9.878631e-003
1.313307e+003,1.000161e-002
1.315235e+003,1.003662e-002
1.317164e+003,1.001819e-002
1.319092e+003,9.953042e-003
1.321021e+003,9.849410e-003
1.322949e+003,9.759769e-003
1.324878e+003,9.719235e-003
1.326806e+003,9.632904e-003
1.328735e+003,9.593767e-003
1.330663e+003,9.594691e-003
1.332592e+003,9.552817e-003
1.334520e+003,9.552496e-003
1.336449e+003,9.536402e-003
1.338377e+003,9.433876e-003
1.340306e+003,9.350519e-003
1.342234e+003,9.280554e-003
1.344163e+003,9.272683e-003
1.346091e+003,9.247418e-003
1.348020e+003,9.296408e-003
1.349948e+003,9.359266e-003
1.351877e+003,9.430032e-003
1.353805e+003,9.511583e-003
1.355734e+003,9.615275e-003
1.357662e+003,9.691720e-003
1.359591e+003,9.789469e-003
1.361519e+003,9.872140e-003
1.363448e+003,9.953469e-003
1.365376e+003,1.006045e-002
1.367305e+003,1.013780e-002
1.369233e+003,1.013307e-002
1.371162e+003,1.007588e-002
1.373090e+003,9.947767e-003
1.375019e+003,9.848669e-003
1.376947e+003,9.683244e-003
1.378876e+003,9.481550e-003
1.380804e+003,9.253514e-003
1.382733e+003,9.010971e-003
1.384661e+003,8.821668e-003
1.386590e+003,8.680691e-003
1.388518e+003,8.557234e-003
1.390447e+003,8.429429e-003
1.392375e+003,8.321652e-003
1.394304e+003,8.231380e-003
1.396232e+003,8.198680e-003
1.398161e+003,8.199875e-003
1.400089e+003,8.256019e-003
1.402018e+003,8.277197e-003
1.403946e+003,8.280391e-003
1.405875e+003,8.330338e-003
1.407803e+003,8.348427e-003
1.409732e+003,8.416482e-003
1.411660e+003,8.495779e-003
1.413589e+003,8.549388e-003
1.415517e+003,8.578146e-003
1.417446e+003,8.650647e-003
1.419374e+003,8.731701e-003
1.421303e+003,8.817191e-003
1.423231e+003,8.791073e-003
1.425160e+003,8.797919e-003
1.427088e+003,8.748608e-003
1.429017e+003,8.666935e-003
1.430945e+003,8.590010e-003
1.432874e+003,8.491736e-003
1.434802e+003,8.329001e-003
1.436731e+003,8.258093e-003
1.438659e+003,8.225882e-003
1.440588e+003,8.109051e-003
1.442516e+003,8.068283e-003
1.444445e+003,8.053011e-003
1.446373e+003,8.028212e-003
1.448302e+003,8.004187e-003
1.450230e+003,7.986009e-003
1.452159e+003,7.952368e-003
1.454087e+003,7.850318e-003
1.456016e+003,7.819446e-003
1.457944e+003,7.767726e-003
1.459873e+003,7.675498e-003
1.461801e+003,7.611235e-003
1.463730e+003,7.511701e-003
1.465658e+003,7.363011e-003
1.467587e+003,7.152800e-003
1.469515e+003,6.896459e-003
1.471444e+003,6.626441e-003
1.473372e+003,6.418818e-003
1.475301e+003,6.175262e-003
1.477229e+003,6.005833e-003
1.479158e+003,5.924548e-003
1.481086e+003,5.863236e-003
1.483015e+003,5.871316e-003
1.484943e+003,5.904910e-003
1.486872e+003,5.897840e-003
1.488800e+003,5.906607e-003
1.490729e+003,6.053665e-003
1.492657e+003,6.233415e-003
1.494586e+003,6.355392e-003
1.496514e+003,6.402054e-003
1.498443e+003,6.507199e-003
1.500371e+003,6.650034e-003
1.502300e+003,6.742574e-003
1.504228e+003,6.821349e-003
1.506157e+003,6.851058e-003
1.508085e+003,6.924777e-003
1.510014e+003,6.958775e-003
1.511942e+003,6.997589e-003
1.513871e+003,7.027609e-003
1.515799e+003,6.953962e-003
1.517728e+003,6.818984e-003
1.519656e+003,6.770589e-003
1.521585e+003,6.660509e-003
1.523513e+003,6.552083e-003
1.525442e+003,6.484296e-003
1.527370e+003,6.475744e-003
1.529299e+003,6.478517e-003
1.531227e+003,6.441717e-003
1.533156e+003,6.397777e-003
1.535084e+003,6.457070e-003
1.537013e+003,6.448638e-003
1.538941e+003,6.458270e-003
1.540870e+003,6.422099e-003
1.542798e+003,6.353663e-003
1.544727e+003,6.336193e-003
1.546655e+003,6.354433e-003
1.548584e+003,6.342493e-003
1.550512e+003,6.320804e-003
1.552441e+003,6.300114e-003
1.554369e+003,6.262757e-003
1.556298e+003,6.221631e-003
1.558226e+003,6.191576e-003
1.560155e+003,6.310350e-003
1.562083e+003,6.261804e-003
1.564012e+003,6.227414e-003
1.565940e+003,6.239854e-003
1.567869e+003,6.201976e-003
1.569797e+003,6.249725e-003
1.571726e+003,6.380214e-003
1.573654e+003,6.450696e-003
1.575583e+003,6.593975e-003
1.577511e+003,6.691878e-003
1.579440e+003,6.713253e-003
1.581368e+003,6.833030e-003
1.583297e+003,6.990958e-003
1.585225e+003,7.148861e-003
1.587154e+003,7.249212e-003
1.589082e+003,7.363569e-003
1.591010e+003,7.484776e-003
1.592939e+003,7.610245e-003
1.594868e+003,7.678418e-003
1.596796e+003,7.762545e-003
1.598724e+003,7.795726e-003
1.600653e+003,7.811113e-003
1.602582e+003,7.871581e-003
1.604510e+003,7.898969e-003
1.606438e+003,7.905572e-003
1.608367e+003,7.919894e-003
1.610296e+003,7.988011e-003
1.612224e+003,8.076106e-003
1.614152e+003,8.140145e-003
1.616081e+003,8.258264e-003
1.618010e+003,8.434216e-003
1.619938e+003,8.466040e-003
1.621866e+003,8.502006e-003
1.623795e+003,8.609715e-003
1.625724e+003,8.717828e-003
1.627652e+003,8.780164e-003
1.629580e+003,8.768708e-003
1.631509e+003,8.723790e-003
1.633438e+003,8.665744e-003
1.635366e+003,8.643632e-003
1.637294e+003,8.593439e-003
1.639223e+003,8.460327e-003
1.641151e+003,8.424677e-003
1.643080e+003,8.371216e-003
1.645008e+003,8.376422e-003
1.646937e+003,8.317644e-003
1.648865e+003,8.326029e-003
1.650794e+003,8.366054e-003
1.652722e+003,8.338769e-003
1.654651e+003,8.243375e-003
1.656579e+003,8.098527e-003
1.658508e+003,8.035930e-003
1.660436e+003,7.879606e-003
1.662365e+003,7.685029e-003
1.664293e+003,7.617536e-003
1.666222e+003,7.492546e-003
1.668150e+003,7.290185e-003
1.670079e+003,7.132351e-003
1.672007e+003,7.019968e-003
1.673936e+003,6.867031e-003
1.675864e+003,6.771534e-003
1.677793e+003,6.667397e-003
1.679721e+003,6.559635e-003
1.681650e+003,6.399158e-003
1.683578e+003,6.338098e-003
1.685507e+003,6.414883e-003
1.687435e+003,6.208010e-003
1.689364e+003,6.111520e-003
1.691292e+003,6.060251e-003
1.693221e+003,6.010060e-003
1.695149e+003,6.049810e-003
1.697078e+003,5.995457e-003
1.699006e+003,5.835389e-003
1.700935e+003,5.837206e-003
1.702863e+003,5.781554e-003
1.704792e+003,5.726000e-003
1.706720e+003,5.732700e-003
1.708649e+003,5.825465e-003
1.710577e+003,5.885864e-003
1.712506e+003,5.966974e-003
1.714434e+003,5.991693e-003
1.716363e+003,6.111147e-003
1.718291e+003,6.154040e-003
1.720220e+003,6.215809e-003
1.722148e+003,6.263303e-003
1.724077e+003,6.291326e-003
1.726005e+003,6.363198e-003
1.727934e+003,6.388845e-003
1.729862e+003,6.321511e-003
1.731791e+003,6.358428e-003
1.733719e+003,6.332260e-003
1.735648e+003,6.236167e-003
1.737576e+003,6.002131e-003
1.739505e+003,5.851056e-003
1.741433e+003,5.699865e-003
1.743362e+003,5.470827e-003
1.745290e+003,5.239017e-003
1.747219e+003,5.105482e-003
1.749147e+003,4.973710e-003
1.751076e+003,4.897232e-003
1.753004e+003,4.733971e-003
1.754933e+003,4.541434e-003
1.756861e+003,4.435285e-003
1.758790e+003,4.334619e-003
1.760718e+003,4.234974e-003
1.762647e+003,4.147586e-003
1.764575e+003,4.107638e-003
1.766504e+003,4.079439e-003
1.768432e+003,4.052002e-003
1.770361e+003,3.925403e-003
1.772289e+003,3.912314e-003
1.774218e+003,3.905619e-003
1.776146e+003,3.893226e-003
1.778075e+003,3.981254e-003
1.780003e+003,3.960348e-003
1.781932e+003,3.937399e-003
1.783860e+003,3.979146e-003
1.785789e+003,4.020334e-003
1.787717e+003,4.020748e-003
1.789646e+003,4.063788e-003
1.791574e+003,4.057821e-003
1.793503e+003,4.069021e-003
1.795431e+003,4.079735e-003
1.797360e+003,4.111038e-003
1.799288e+003,4.156134e-003
1.801217e+003,4.152377e-003
1.803145e+003,4.141242e-003
1.805074e+003,4.115694e-003
1.807002e+003,4.095095e-003
1.808931e+003,4.062179e-003
1.810859e+003,4.065404e-003
1.812788e+003,4.081871e-003
1.814716e+003,4.038647e-003
1.816645e+003,4.044720e-003
1.818573e+003,4.005896e-003
1.820502e+003,3.988195e-003
1.822430e+003,3.955621e-003
1.824359e+003,3.993934e-003
1.826287e+003,4.021234e-003
1.828216e+003,3.952880e-003
1.830144e+003,3.894202e-003
1.832073e+003,3.915376e-003
1.834001e+003,3.978522e-003
1.835930e+003,4.047732e-003
1.837858e+003,4.102755e-003
1.839787e+003,4.097914e-003
1.841715e+003,3.985235e-003
1.843644e+003,3.896583e-003
1.845572e+003,3.904187e-003
1.847501e+003,3.977934e-003
1.849429e+003,4.007661e-003
1.851358e+003,4.108268e-003
1.853286e+003,4.126117e-003
1.855215e+003,4.081698e-003
1.857143e+003,4.076228e-003
1.859072e+003,3.953550e-003
1.861000e+003,3.917390e-003
1.862929e+003,4.024785e-003
1.864857e+003,4.030888e-003
1.866786e+003,4.035058e-003
1.868714e+003,3.957169e-003
1.870643e+003,4.119715e-003
1.872571e+003,4.245037e-003
1.874500e+003,4.171726e-003
1.876428e+003,4.204673e-003
1.878357e+003,4.185000e-003
1.880285e+003,4.019199e-003
1.882214e+003,4.080522e-003
1.884142e+003,4.143691e-003
1.886071e+003,4.158857e-003
1.887999e+003,4.211452e-003
1.889928e+003,4.318826e-003
1.891856e+003,4.216054e-003
1.893785e+003,4.238036e-003
1.895713e+003,4.287644e-003
1.897642e+003,4.283591e-003
1.899570e+003,4.248999e-003
1.901499e+003,4.491263e-003
1.903427e+003,4.545855e-003
1.905356e+003,4.483367e-003
1.907284e+003,4.508525e-003
1.909213e+003,4.434217e-003
1.911141e+003,4.456927e-003
1.913070e+003,4.471643e-003
1.914998e+003,4.374044e-003
1.916927e+003,4.250236e-003
1.918855e+003,4.214584e-003
1.920784e+003,4.370963e-003
1.922712e+003,4.568808e-003
1.924641e+003,4.781356e-003
1.926569e+003,4.897422e-003
1.928498e+003,4.855379e-003
1.930426e+003,4.945595e-003
1.932355e+003,5.134535e-003
1.934283e+003,4.715114e-003
1.936212e+003,4.694552e-003
1.938140e+003,4.837961e-003
1.940069e+003,4.885085e-003
1.941997e+003,4.861787e-003
1.943926e+003,4.849298e-003
1.945854e+003,4.733324e-003
1.947783e+003,5.081398e-003
1.949711e+003,4.982688e-003
1.951640e+003,4.394679e-003
1.953568e+003,4.474968e-003
1.955497e+003,4.097857e-003
1.957425e+003,3.455735e-003
1.959354e+003,4.002999e-003
1.961282e+003,4.714349e-003
1.963211e+003,4.483428e-003
1.965139e+003,4.348270e-003
1.967068e+003,4.004021e-003
1.968996e+003,3.207556e-003
1.970925e+003,2.799492e-003
1.972853e+003,3.147736e-003
1.974782e+003,3.406108e-003
1.976710e+003,3.348837e-003
1.978639e+003,3.884165e-003
1.980567e+003,4.311945e-003
1.982496e+003,4.128939e-003
1.984424e+003,3.666576e-003
1.986353e+003,3.760365e-003
1.988281e+003,4.105531e-003
1.990210e+003,3.789679e-003
1.992138e+003,4.232159e-003
1.994067e+003,4.535336e-003
1.995995e+003,3.996633e-003
1.997924e+003,3.289186e-003
1.999852e+003,3.561229e-003
2.001781e+003,3.837287e-003
2.003709e+003,3.248306e-003
2.005638e+003,3.051999e-003
2.007566e+003,2.927311e-003
2.009495e+003,2.861596e-003
2.011423e+003,2.552909e-003
2.013352e+003,3.244246e-003
2.015280e+003,2.957874e-003
2.017208e+003,2.630772e-003
2.019137e+003,2.811454e-003
2.021066e+003,2.331654e-003
2.022994e+003,1.578798e-003
2.024922e+003,8.966516e-004
2.026851e+003,8.775119e-004
2.028780e+003,1.797242e-003
2.030708e+003,9.303758e-004
2.032636e+003,-3.625637e-004
2.034565e+003,-1.612304e-005
2.036494e+003,1.202560e-003
2.038422e+003,1.410468e-003
2.040350e+003,1.163522e-003
2.042279e+003,1.142433e-003
2.044208e+003,1.133951e-003
2.046136e+003,1.143776e-003
2.048064e+003,1.060484e-003
2.049993e+003,1.066196e-003
2.051921e+003,1.834998e-003
2.053850e+003,2.274510e-003
2.055778e+003,2.341683e-003
2.057707e+003,2.211527e-003
2.059635e+003,1.941744e-003
2.061564e+003,2.259203e-003
2.063492e+003,2.306046e-003
2.065421e+003,2.287231e-003
2.067349e+003,2.456734e-003
2.069278e+003,2.479699e-003
2.071206e+003,2.732847e-003
2.073135e+003,2.944694e-003
2.075063e+003,2.704915e-003
2.076992e+003,2.646655e-003
2.078920e+003,2.953382e-003
2.080849e+003,3.055537e-003
2.082777e+003,3.323401e-003
2.084706e+003,3.436148e-003
2.086634e+003,3.257561e-003
2.088563e+003,3.218101e-003
2.090491e+003,3.485931e-003
2.092420e+003,3.731169e-003
2.094348e+003,3.623870e-003
2.096277e+003,3.785828e-003
2.098205e+003,4.184112e-003
2.100134e+003,4.252131e-003
2.102062e+003,4.250826e-003
2.103991e+003,4.463549e-003
2.105919e+003,4.473726e-003
2.107848e+003,4.483568e-003
2.109776e+003,4.612444e-003
2.111705e+003,4.787788e-003
2.113633e+003,5.005535e-003
2.115562e+003,5.029568e-003
2.117490e+003,5.016797e-003
2.119419e+003,4.872153e-003
2.121347e+003,5.091148e-003
2.123276e+003,5.005065e-003
2.125204e+003,4.840422e-003
2.127133e+003,4.953484e-003
2.129061e+003,4.846587e-003
2.130990e+003,4.549157e-003
2.132918e+003,4.645397e-003
2.134847e+003,4.718513e-003
2.136775e+003,4.676846e-003
2.138704e+003,4.354564e-003
2.140632e+003,4.615894e-003
2.142561e+003,4.348707e-003
2.144489e+003,4.192978e-003
2.146418e+003,4.241324e-003
2.148346e+003,3.996170e-003
2.150275e+003,3.197581e-003
2.152203e+003,2.294086e-003
2.154132e+003,1.450044e-003
2.156060e+003,2.410419e-003
2.157989e+003,1.491303e-003
2.159917e+003,1.361988e-003
2.161846e+003,2.394360e-003
2.163774e+003,2.197899e-003
2.165703e+003,2.052093e-003
2.167631e+003,2.549679e-003
2.169560e+003,2.497655e-003
2.171488e+003,2.143187e-003
2.173417e+003,1.574132e-003
2.175345e+003,1.861644e-003
2.177274e+003,2.314872e-003
2.179202e+003,1.579719e-003
2.181131e+003,1.295815e-003
2.183059e+003,5.364399e-004
2.184988e+003,1.114441e-004
2.186916e+003,1.218356e-003
2.188845e+003,1.978393e-003
2.190773e+003,1.486881e-003
2.192702e+003,9.164266e-004
2.194630e+003,1.504902e-003
2.196559e+003,1.619593e-003
2.198487e+003,1.634725e-003
2.200416e+003,1.868100e-003
2.202344e+003,1.859149e-003
2.204273e+003,1.947073e-003
2.206201e+003,2.386363e-003
2.208130e+003,2.033617e-003
2.210058e+003,1.961884e-003
2.211987e+003,1.533630e-003
2.213915e+003,1.443562e-003
2.215844e+003,2.254550e-003
2.217772e+003,2.595209e-003
2.219701e+003,1.966045e-003
2.221629e+003,2.068040e-003
2.223558e+003,2.836271e-003
2.225486e+003,2.534381e-003
2.227415e+003,2.108492e-003
2.229343e+003,2.326031e-003
2.231272e+003,2.448668e-003
2.233200e+003,2.203775e-003
2.235129e+003,2.070617e-003
2.237057e+003,2.348840e-003
2.238986e+003,2.599700e-003
2.240914e+003,2.456042e-003
2.242843e+003,2.416836e-003
2.244771e+003,2.567316e-003
2.246700e+003,2.628403e-003
2.248628e+003,2.686952e-003
2.250557e+003,2.664179e-003
2.252485e+003,2.181051e-003
2.254414e+003,1.896759e-003
2.256342e+003,1.995930e-003
2.258271e+003,2.190819e-003
2.260199e+003,2.321367e-003
2.262128e+003,2.235993e-003
2.264056e+003,2.291119e-003
2.265985e+003,1.965676e-003
2.267913e+003,1.740232e-003
2.269842e+003,1.762815e-003
2.271770e+003,2.169584e-003
2.273699e+003,2.535650e-003
2.275627e+003,2.467892e-003
2.277556e+003,2.540138e-003
2.279484e+003,2.856318e-003
2.281413e+003,2.992816e-003
2.283341e+003,3.170841e-003
2.285270e+003,3.274608e-003
2.287198e+003,3.515434e-003
2.289127e+003,3.661513e-003
2.291055e+003,3.797276e-003
2.292984e+003,3.916722e-003
2.294912e+003,4.053187e-003
2.296841e+003,4.194972e-003
2.298769e+003,4.189760e-003
2.300698e+003,4.349571e-003
2.302626e+003,4.612599e-003
2.304555e+003,4.406967e-003
2.306483e+003,4.594826e-003
2.308412e+003,4.815171e-003
2.310340e+003,4.948039e-003
2.312269e+003,4.902447e-003
2.314197e+003,4.953940e-003
2.316125e+003,5.209193e-003
2.318054e+003,5.405041e-003
2.319983e+003,5.571731e-003
2.321911e+003,5.775633e-003
2.323840e+003,5.874374e-003
2.325768e+003,6.068606e-003
2.327697e+003,6.016272e-003
2.329625e+003,6.010897e-003
2.331553e+003,6.206610e-003
2.333482e+003,6.255529e-003
2.335411e+003,6.190090e-003
2.337339e+003,5.886062e-003
2.339268e+003,5.868441e-003
2.341196e+003,5.579460e-003
2.343125e+003,5.615480e-003
2.345053e+003,4.938098e-003
2.346981e+003,4.436602e-003
2.348910e+003,4.103577e-003
2.350839e+003,3.815971e-003
2.352767e+003,3.492232e-003
2.354696e+003,3.096256e-003
2.356624e+003,2.972455e-003
2.358552e+003,3.076547e-003
2.360481e+003,2.888182e-003
2.362409e+003,2.913662e-003
2.364338e+003,3.162245e-003
2.366267e+003,2.702665e-003
2.368195e+003,2.663622e-003
2.370124e+003,2.873588e-003
2.372052e+003,3.233753e-003
2.373980e+003,3.505387e-003
2.375909e+003,3.708860e-003
2.377838e+003,3.701575e-003
2.379766e+003,3.566716e-003
2.381695e+003,3.510314e-003
2.383623e+003,3.460204e-003
2.385552e+003,3.323850e-003
2.387480e+003,3.375908e-003
2.389408e+003,3.483922e-003
2.391337e+003,3.537484e-003
2.393266e+003,3.650027e-003
2.395194e+003,3.674851e-003
2.397123e+003,3.609064e-003
2.399051e+003,3.615743e-003
2.400979e+003,3.692437e-003
2.402908e+003,3.765760e-003
2.404836e+003,3.817468e-003
2.406765e+003,3.886767e-003
2.408694e+003,3.888305e-003
2.410622e+003,3.772545e-003
2.412551e+003,3.712856e-003
2.414479e+003,3.708946e-003
2.416407e+003,3.690700e-003
2.418336e+003,3.724552e-003
2.420264e+003,3.685788e-003
2.422193e+003,3.554247e-003
2.424122e+003,3.537745e-003
2.426050e+003,3.523547e-003
2.427979e+003,3.460352e-003
2.429907e+003,3.450700e-003
2.431835e+003,3.532066e-003
2.433764e+003,3.586452e-003
2.435692e+003,3.635499e-003
2.437621e+003,3.521042e-003
2.439550e+003,3.351952e-003
2.441478e+003,3.372588e-003
2.443406e+003,3.404479e-003
2.445335e+003,3.383641e-003
2.447263e+003,3.377563e-003
2.449192e+003,3.367913e-003
2.451121e+003,3.412894e-003
2.453049e+003,3.428056e-003
2.454978e+003,3.507881e-003
2.456906e+003,3.416134e-003
2.458834e+003,3.305775e-003
2.460763e+003,3.411926e-003
2.462691e+003,3.448495e-003
2.464620e+003,3.417770e-003
2.466549e+003,3.292187e-003
2.468477e+003,3.255363e-003
2.470406e+003,3.302336e-003
2.472334e+003,3.373590e-003
2.474262e+003,3.435737e-003
2.476191e+003,3.330248e-003
2.478119e+003,3.363839e-003
2.480048e+003,3.453539e-003
2.481977e+003,3.401239e-003
2.483905e+003,3.297562e-003
2.485833e+003,3.315724e-003
2.487762e+003,3.255230e-003
2.489690e+003,3.295058e-003
2.491619e+003,3.344873e-003
2.493547e+003,3.355325e-003
2.495476e+003,3.424449e-003
2.497405e+003,3.439177e-003
2.499333e+003,3.387615e-003
2.501261e+003,3.338362e-003
2.503190e+003,3.416568e-003
2.505118e+003,3.394394e-003
2.507047e+003,3.380235e-003
2.508975e+003,3.314556e-003
2.510904e+003,3.354890e-003
2.512833e+003,3.409521e-003
2.514761e+003,3.442751e-003
2.516689e+003,3.342369e-003
2.518618e+003,3.203789e-003
2.520546e+003,3.316993e-003
2.522475e+003,3.508817e-003
2.524403e+003,3.528391e-003
2.526332e+003,3.461755e-003
2.528260e+003,3.458081e-003
2.530189e+003,3.446525e-003
2.532117e+003,3.325340e-003
2.534046e+003,3.325374e-003
2.535974e+003,3.386713e-003
2.537903e+003,3.418705e-003
2.539831e+003,3.477753e-003
2.541760e+003,3.286645e-003
2.543688e+003,3.070893e-003
2.545617e+003,3.042663e-003
2.547545e+003,3.174550e-003
2.549474e+003,3.258668e-003
2.551402e+003,3.211533e-003
2.553331e+003,3.079569e-003
2.555259e+003,3.026247e-003
2.557188e+003,3.096454e-003
2.559116e+003,3.147615e-003
2.561045e+003,3.113807e-003
2.562973e+003,3.037425e-003
2.564902e+003,3.058213e-003
2.566830e+003,3.057545e-003
2.568759e+003,3.128425e-003
2.570687e+003,3.164236e-003
2.572616e+003,3.083707e-003
2.574544e+003,3.006495e-003
2.576473e+003,2.982273e-003
2.578401e+003,2.915087e-003
2.580330e+003,2.844709e-003
2.582258e+003,2.809857e-003
2.584187e+003,2.790615e-003
2.586115e+003,2.753201e-003
2.588044e+003,2.780444e-003
2.589972e+003,2.777010e-003
2.591901e+003,2.719791e-003
2.593829e+003,2.690717e-003
2.595758e+003,2.628610e-003
2.597686e+003,2.562578e-003
2.599615e+003,2.633476e-003
2.601543e+003,2.578910e-003
2.603472e+003,2.486358e-003
2.605400e+003,2.474428e-003
2.607329e+003,2.516618e-003
2.609257e+003,2.502954e-003
2.611186e+003,2.495789e-003
2.613114e+003,2.469463e-003
2.615043e+003,2.444638e-003
2.616971e+003,2.473229e-003
2.618900e+003,2.572210e-003
2.620828e+003,2.627976e-003
2.622757e+003,2.601942e-003
2.624685e+003,2.611176e-003
2.626614e+003,2.656645e-003
2.628542e+003,2.663079e-003
2.630471e+003,2.676815e-003
2.632399e+003,2.744798e-003
2.634328e+003,2.825265e-003
2.636256e+003,2.897374e-003
2.638185e+003,3.012067e-003
2.640113e+003,3.155792e-003
2.642042e+003,3.226554e-003
2.643970e+003,3.286177e-003
2.645899e+003,3.361301e-003
2.647827e+003,3.498729e-003
2.649756e+003,3.601553e-003
2.651684e+003,3.630620e-003
2.653613e+003,3.690299e-003
2.655541e+003,3.764958e-003
2.657470e+003,3.811451e-003
2.659398e+003,3.845781e-003
2.661327e+003,3.953669e-003
2.663255e+003,4.001654e-003
2.665184e+003,4.029879e-003
2.667112e+003,4.081451e-003
2.669041e+003,4.061149e-003
2.670969e+003,4.060179e-003
2.672898e+003,4.075063e-003
2.674826e+003,4.097239e-003
2.676755e+003,4.126239e-003
2.678683e+003,4.137144e-003
2.680612e+003,4.131758e-003
2.682540e+003,4.203851e-003
2.684469e+003,4.223959e-003
2.686397e+003,4.201509e-003
2.688326e+003,4.187658e-003
2.690254e+003,4.225163e-003
2.692183e+003,4.206561e-003
2.694111e+003,4.212616e-003
2.696040e+003,4.256481e-003
2.697968e+003,4.271572e-003
2.699897e+003,4.230115e-003
2.701825e+003,4.246945e-003
2.703754e+003,4.242963e-003
2.705682e+003,4.219776e-003
2.707611e+003,4.238747e-003
2.709539e+003,4.207799e-003
2.711468e+003,4.175414e-003
2.713396e+003,4.193413e-003
2.715325e+003,4.221315e-003
2.717253e+003,4.240052e-003
2.719182e+003,4.235803e-003
2.721110e+003,4.240186e-003
2.723039e+003,4.197896e-003
2.724967e+003,4.165545e-003
2.726896e+003,4.181101e-003
2.728824e+003,4.157951e-003
2.730753e+003,4.183510e-003
2.732681e+003,4.223122e-003
2.734610e+003,4.234130e-003
2.736538e+003,4.213085e-003
2.738467e+003,4.201576e-003
2.740395e+003,4.220111e-003
2.742324e+003,4.211646e-003
2.744252e+003,4.162501e-003
2.746181e+003,4.185952e-003
2.748109e+003,4.213286e-003
2.750038e+003,4.160326e-003
2.751966e+003,4.195788e-003
2.753895e+003,4.226936e-003
2.755823e+003,4.240487e-003
2.757752e+003,4.249086e-003
2.759680e+003,4.259258e-003
2.761609e+003,4.282614e-003
2.763537e+003,4.270635e-003
2.765466e+003,4.288370e-003
2.767394e+003,4.298877e-003
2.769323e+003,4.282848e-003
2.771251e+003,4.285191e-003
2.773180e+003,4.297472e-003
2.775108e+003,4.316780e-003
2.777037e+003,4.330434e-003
2.778965e+003,4.308347e-003
2.780894e+003,4.338232e-003
2.782822e+003,4.359551e-003
2.784750e+003,4.356438e-003
2.786679e+003,4.360957e-003
2.788608e+003,4.395732e-003
2.790536e+003,4.420266e-003
2.792465e+003,4.410057e-003
2.794393e+003,4.417890e-003
2.796322e+003,4.419765e-003
2.798250e+003,4.442895e-003
2.800178e+003,4.457122e-003
2.802107e+003,4.434526e-003
2.804036e+003,4.453373e-003
2.805964e+003,4.468370e-003
2.807893e+003,4.483602e-003
2.809821e+003,4.519057e-003
2.811750e+003,4.536567e-003
2.813678e+003,4.551635e-003
2.815606e+003,4.579728e-003
2.817535e+003,4.641781e-003
2.819464e+003,4.692722e-003
2.821392e+003,4.709469e-003
2.823321e+003,4.688234e-003
2.825249e+003,4.736936e-003
2.827177e+003,4.792311e-003
2.829106e+003,4.799447e-003
2.831034e+003,4.796097e-003
2.832963e+003,4.807019e-003
2.834892e+003,4.873527e-003
2.836820e+003,4.930729e-003
2.838749e+003,4.948859e-003
2.840677e+003,5.043579e-003
2.842605e+003,5.114985e-003
2.844534e+003,5.153609e-003
2.846462e+003,5.238984e-003
2.848391e+003,5.285971e-003
2.850320e+003,5.322229e-003
2.852248e+003,5.427364e-003
2.854177e+003,5.472627e-003
2.856105e+003,5.450548e-003
2.858033e+003,5.424781e-003
2.859962e+003,5.396364e-003
2.861890e+003,5.453098e-003
2.863819e+003,5.535109e-003
2.865748e+003,5.572495e-003
2.867676e+003,5.535243e-003
2.869604e+003,5.473935e-003
2.871533e+003,5.462627e-003
2.873461e+003,5.533297e-003
2.875390e+003,5.606662e-003
2.877319e+003,5.570112e-003
2.879247e+003,5.537122e-003
2.881176e+003,5.572193e-003
2.883104e+003,5.599815e-003
2.885032e+003,5.592633e-003
2.886961e+003,5.655603e-003
2.888889e+003,5.656039e-003
2.890818e+003,5.625593e-003
2.892747e+003,5.616329e-003
2.894675e+003,5.582832e-003
2.896604e+003,5.606360e-003
2.898532e+003,5.644760e-003
2.900460e+003,5.645096e-003
2.902389e+003,5.580751e-003
2.904317e+003,5.579845e-003
2.906246e+003,5.582732e-003
2.908175e+003,5.535814e-003
2.910103e+003,5.537827e-003
2.912031e+003,5.534035e-003
2.913960e+003,5.510980e-003
2.915888e+003,5.482726e-003
2.917817e+003,5.522860e-003
2.919745e+003,5.567897e-003
2.921674e+003,5.553432e-003
2.923603e+003,5.509739e-003
2.925531e+003,5.477995e-003
2.927459e+003,5.410321e-003
2.929388e+003,5.387206e-003
2.931316e+003,5.361509e-003
2.933245e+003,5.320686e-003
2.935173e+003,5.228444e-003
2.937102e+003,5.164758e-003
2.939031e+003,5.088128e-003
2.940959e+003,5.075245e-003
2.942887e+003,5.080913e-003
2.944816e+003,4.986624e-003
2.946744e+003,4.865106e-003
2.948673e+003,4.818730e-003
2.950601e+003,4.805580e-003
2.952530e+003,4.763559e-003
2.954458e+003,4.626266e-003
2.956387e+003,4.567821e-003
2.958315e+003,4.626412e-003
2.960244e+003,4.597922e-003
2.962172e+003,4.569434e-003
2.964101e+003,4.520612e-003
2.966029e+003,4.450291e-003
2.967958e+003,4.418182e-003
2.969886e+003,4.373287e-003
2.971815e+003,4.352014e-003
2.973743e+003,4.349205e-003
2.975672e+003,4.338681e-003
2.977600e+003,4.284279e-003
2.979529e+003,4.244264e-003
2.981457e+003,4.220807e-003
2.983386e+003,4.201537e-003
2.985314e+003,4.256860e-003
2.987243e+003,4.226608e-003
2.989171e+003,4.174026e-003
2.991100e+003,4.165612e-003
2.993028e+003,4.186804e-003
2.994957e+003,4.185515e-003
2.996885e+003,4.135799e-003
2.998814e+003,4.101556e-003
3.000742e+003,4.133430e-003
3.002671e+003,4.110856e-003
3.004599e+003,4.111654e-003
3.006528e+003,4.151106e-003
3.008456e+003,4.226716e-003
3.010385e+003,4.195191e-003
3.012313e+003,4.167798e-003
3.014242e+003,4.163469e-003
3.016170e+003,4.241698e-003
3.018099e+003,4.189407e-003
3.020027e+003,4.156007e-003
3.021956e+003,4.249710e-003
3.023884e+003,4.303087e-003
3.025813e+003,4.255926e-003
3.027741e+003,4.299679e-003
3.029670e+003,4.359933e-003
3.031598e+003,4.358494e-003
3.033527e+003,4.363188e-003
3.035455e+003,4.396691e-003
3.037384e+003,4.359754e-003
3.039312e+003,4.403401e-003
3.041241e+003,4.412540e-003
3.043169e+003,4.368702e-003
3.045098e+003,4.412594e-003
3.047026e+003,4.455503e-003
3.048955e+003,4.488206e-003
3.050883e+003,4.515436e-003
3.052812e+003,4.546836e-003
3.054740e+003,4.569642e-003
3.056669e+003,4.537753e-003
3.058597e+003,4.500748e-003
3.060526e+003,4.544260e-003
3.062454e+003,4.607805e-003
3.064383e+003,4.623524e-003
3.066311e+003,4.625762e-003
3.068240e+003,4.633042e-003
3.070168e+003,4.674221e-003
3.072097e+003,4.679252e-003
3.074025e+003,4.683965e-003
3.075954e+003,4.711851e-003
3.077882e+003,4.725424e-003
3.079811e+003,4.691667e-003
3.081739e+003,4.743617e-003
3.083668e+003,4.825214e-003
3.085596e+003,4.828004e-003
3.087525e+003,4.880092e-003
3.089453e+003,4.907588e-003
3.091382e+003,4.906596e-003
3.093310e+003,4.958396e-003
3.095239e+003,4.984387e-003
3.097167e+003,5.023363e-003
3.099096e+003,5.013671e-003
3.101024e+003,4.951494e-003
3.102953e+003,5.002462e-003
3.104881e+003,5.029466e-003
3.106810e+003,4.988976e-003
3.108738e+003,5.063032e-003
3.110667e+003,5.161181e-003
3.112595e+003,5.120965e-003
3.114524e+003,5.077883e-003
3.116452e+003,5.085554e-003
3.118381e+003,5.057475e-003
3.120309e+003,5.094059e-003
3.122238e+003,5.204970e-003
3.124166e+003,5.206192e-003
3.126095e+003,5.240521e-003
3.128023e+003,5.289450e-003
3.129952e+003,5.313432e-003
3.131880e+003,5.330028e-003
3.133809e+003,5.379826e-003
3.135737e+003,5.383642e-003
3.137666e+003,5.377418e-003
3.139594e+003,5.384971e-003
3.141523e+003,5.432718e-003
3.143451e+003,5.437807e-003
3.145380e+003,5.461321e-003
3.147308e+003,5.549610e-003
3.149237e+003,5.637471e-003
3.151165e+003,5.628673e-003
3.153094e+003,5.613907e-003
3.155022e+003,5.623046e-003
3.156951e+003,5.640688e-003
3.158879e+003,5.686292e-003
3.160808e+003,5.715868e-003
3.162736e+003,5.765693e-003
3.164665e+003,5.795890e-003
3.166593e+003,5.860792e-003
3.168522e+003,5.893897e-003
3.170450e+003,5.877639e-003
3.172379e+003,5.936518e-003
3.174307e+003,5.978557e-003
3.176236e+003,5.933206e-003
3.178164e+003,6.003321e-003
3.180093e+003,6.037443e-003
3.182021e+003,6.044991e-003
3.183950e+003,6.108386e-003
3.185878e+003,6.109969e-003
3.187807e+003,6.094120e-003
3.189735e+003,6.075688e-003
3.191664e+003,6.125351e-003
3.193592e+003,6.183953e-003
3.195521e+003,6.173019e-003
3.197449e+003,6.230337e-003
3.199378e+003,6.267147e-003
3.201306e+003,6.293912e-003
3.203235e+003,6.358838e-003
3.205163e+003,6.408209e-003
3.207092e+003,6.443718e-003
3.209020e+003,6.457290e-003
3.210948e+003,6.451820e-003
3.212877e+003,6.423454e-003
3.214806e+003,6.444718e-003
3.216734e+003,6.509350e-003
3.218663e+003,6.629005e-003
3.220591e+003,6.626053e-003
3.222520e+003,6.559331e-003
3.224448e+003,6.512258e-003
3.226376e+003,6.559750e-003
3.228305e+003,6.635514e-003
3.230234e+003,6.665871e-003
3.232162e+003,6.687274e-003
3.234091e+003,6.751809e-003
3.236019e+003,6.775909e-003
3.237948e+003,6.782321e-003
3.239876e+003,6.787960e-003
3.241804e+003,6.891102e-003
3.243733e+003,6.916347e-003
3.245662e+003,7.002254e-003
3.247590e+003,7.006462e-003
3.249519e+003,7.001668e-003
3.251447e+003,6.978252e-003
3.253375e+003,6.987714e-003
3.255304e+003,6.991712e-003
3.257232e+003,7.044591e-003
3.259161e+003,7.082515e-003
3.261090e+003,7.121493e-003
3.263018e+003,7.150291e-003
3.264947e+003,7.237734e-003
3.266875e+003,7.352129e-003
3.268803e+003,7.336682e-003
3.270732e+003,7.208918e-003
3.272660e+003,7.172455e-003
3.274589e+003,7.206085e-003
3.276518e+003,7.267947e-003
3.278446e+003,7.338698e-003
3.280375e+003,7.275539e-003
3.282303e+003,7.215759e-003
3.284231e+003,7.331482e-003
3.286160e+003,7.444297e-003
3.288088e+003,7.393135e-003
3.290017e+003,7.336680e-003
3.291946e+003,7.349151e-003
3.293874e+003,7.267787e-003
3.295802e+003,7.260267e-003
3.297731e+003,7.376255e-003
3.299659e+003,7.470323e-003
3.301588e+003,7.472971e-003
3.303516e+003,7.396168e-003
3.305445e+003,7.343783e-003
3.307374e+003,7.384550e-003
3.309302e+003,7.314123e-003
3.311230e+003,7.282080e-003
3.313159e+003,7.311180e-003
3.315087e+003,7.364335e-003
3.317016e+003,7.432618e-003
3.318944e+003,7.390298e-003
3.320873e+003,7.326816e-003
3.322802e+003,7.324271e-003
3.324730e+003,7.328429e-003
3.326658e+003,7.329834e-003
3.328587e+003,7.431245e-003
3.330515e+003,7.459837e-003
3.332444e+003,7.464673e-003
3.334372e+003,7.368085e-003
3.336301e+003,7.299485e-003
3.338229e+003,7.243413e-003
3.340158e+003,7.198514e-003
3.342086e+003,7.238991e-003
3.344015e+003,7.198655e-003
3.345943e+003,7.121272e-003
3.347872e+003,7.128343e-003
3.349800e+003,7.140541e-003
3.351729e+003,7.122085e-003
3.353657e+003,7.087565e-003
3.355586e+003,7.047026e-003
3.357514e+003,6.980362e-003
3.359443e+003,6.998805e-003
3.361371e+003,7.062372e-003
3.363300e+003,6.958061e-003
3.365229e+003,6.843630e-003
3.367157e+003,6.786221e-003
3.369085e+003,6.757602e-003
3.371014e+003,6.763536e-003
3.372942e+003,6.844909e-003
3.374871e+003,6.835938e-003
3.376799e+003,6.760605e-003
3.378728e+003,6.669289e-003
3.380656e+003,6.622952e-003
3.382585e+003,6.633992e-003
3.384513e+003,6.646977e-003
3.386442e+003,6.625838e-003
3.388370e+003,6.642580e-003
3.390299e+003,6.645277e-003
3.392227e+003,6.620696e-003
3.394156e+003,6.548098e-003
3.396084e+003,6.482602e-003
3.398013e+003,6.437828e-003
3.399941e+003,6.313273e-003
3.401870e+003,6.340059e-003
3.403798e+003,6.285086e-003
3.405727e+003,6.219197e-003
3.407655e+003,6.212352e-003
3.409584e+003,6.217396e-003
3.411512e+003,6.113672e-003
3.413441e+003,6.028478e-003
3.415369e+003,6.057877e-003
3.417298e+003,6.052474e-003
3.419226e+003,6.026076e-003
3.421155e+003,5.956993e-003
3.423083e+003,5.892735e-003
3.425012e+003,5.833899e-003
3.426940e+003,5.731565e-003
3.428869e+003,5.617499e-003
3.430797e+003,5.592677e-003
3.432726e+003,5.500167e-003
3.434654e+003,5.408339e-003
3.436583e+003,5.381171e-003
3.438511e+003,5.373022e-003
3.440440e+003,5.280157e-003
3.442368e+003,5.228193e-003
3.444297e+003,5.273522e-003
3.446225e+003,5.146730e-003
3.448154e+003,5.052377e-003
3.450082e+003,5.005052e-003
3.452011e+003,4.905557e-003
3.453939e+003,4.852949e-003
3.455868e+003,4.836973e-003
3.457796e+003,4.744829e-003
3.459725e+003,4.656632e-003
3.461653e+003,4.638091e-003
3.463582e+003,4.507124e-003
3.465510e+003,4.399117e-003
3.467439e+003,4.298524e-003
3.469367e+003,4.251217e-003
3.471296e+003,4.191097e-003
3.473224e+003,4.191306e-003
3.475153e+003,4.165753e-003
3.477081e+003,4.172457e-003
3.479010e+003,4.068069e-003
3.480938e+003,3.982894e-003
3.482867e+003,3.939039e-003
3.484795e+003,3.877481e-003
3.486724e+003,3.873845e-003
3.488652e+003,3.851231e-003
3.490581e+003,3.730289e-003
3.492509e+003,3.751545e-003
3.494438e+003,3.737278e-003
3.496366e+003,3.583462e-003
3.498295e+003,3.442300e-003
3.500223e+003,3.396870e-003
3.502152e+003,3.389818e-003
3.504080e+003,3.462412e-003
3.506009e+003,3.454154e-003
3.507937e+003,3.316006e-003
3.509866e+003,3.230041e-003
3.511794e+003,3.201351e-003
3.513723e+003,3.129958e-003
3.515651e+003,3.177408e-003
3.517580e+003,3.183125e-003
3.519508e+003,3.131269e-003
3.521437e+003,2.983179e-003
3.523365e+003,2.950801e-003
3.525294e+003,3.045792e-003
3.527222e+003,2.938371e-003
3.529151e+003,2.848529e-003
3.531079e+003,2.856172e-003
3.533008e+003,2.815437e-003
3.534936e+003,2.760150e-003
3.536865e+003,2.731665e-003
3.538793e+003,2.687659e-003
3.540722e+003,2.669752e-003
3.542650e+003,2.607201e-003
3.544579e+003,2.479603e-003
3.546507e+003,2.447375e-003
3.548436e+003,2.407334e-003
3.550364e+003,2.309443e-003
3.552293e+003,2.269412e-003
3.554221e+003,2.230505e-003
3.556150e+003,2.182980e-003
3.558078e+003,2.262176e-003
3.560007e+003,2.320012e-003
3.561935e+003,2.242364e-003
3.563864e+003,2.132342e-003
3.565792e+003,2.013097e-003
3.567721e+003,1.905658e-003
3.569649e+003,1.864549e-003
3.571578e+003,1.908568e-003
3.573506e+003,1.956755e-003
3.575435e+003,1.912042e-003
3.577363e+003,1.800117e-003
3.579292e+003,1.748918e-003
3.581220e+003,1.636681e-003
3.583149e+003,1.515397e-003
3.585077e+003,1.422582e-003
3.587006e+003,1.338958e-003
3.588934e+003,1.310061e-003
3.590863e+003,1.261097e-003
3.592791e+003,1.175929e-003
3.594720e+003,1.076508e-003
3.596648e+003,1.043059e-003
3.598577e+003,1.098519e-003
3.600505e+003,1.035228e-003
3.602434e+003,9.361656e-004
3.604362e+003,8.393876e-004
3.606291e+003,8.393170e-004
3.608219e+003,8.775608e-004
3.610148e+003,9.535562e-004
3.612076e+003,9.867458e-004
3.614005e+003,9.550414e-004
3.615933e+003,8.212654e-004
3.617862e+003,6.273247e-004
3.619790e+003,5.197561e-004
3.621719e+003,4.276916e-004
3.623647e+003,3.328284e-004
3.625576e+003,2.741296e-004
3.627504e+003,3.050513e-004
3.629433e+003,3.256240e-004
3.631361e+003,2.976439e-004
3.633290e+003,3.174763e-004
3.635218e+003,3.655017e-004
3.637146e+003,4.182697e-004
3.639075e+003,5.796838e-004
3.641004e+003,6.947750e-004
3.642932e+003,8.306290e-004
3.644861e+003,8.123580e-004
3.646789e+003,7.295176e-004
3.648718e+003,6.197605e-004
3.650646e+003,6.223193e-004
3.652574e+003,7.376084e-004
3.654503e+003,7.971984e-004
3.656432e+003,7.344984e-004
3.658360e+003,6.886682e-004
3.660289e+003,6.692928e-004
3.662217e+003,7.172758e-004
3.664146e+003,6.591902e-004
3.666074e+003,6.029370e-004
3.668002e+003,6.824289e-004
3.669931e+003,8.268512e-004
3.671860e+003,7.166952e-004
3.673788e+003,6.348396e-004
3.675717e+003,5.851763e-004
3.677645e+003,5.254127e-004
3.679573e+003,4.855567e-004
3.681502e+003,4.582669e-004
3.683430e+003,3.960760e-004
3.685359e+003,4.178517e-004
3.687288e+003,3.776211e-004
3.689216e+003,2.182691e-004
3.691145e+003,1.721092e-004
3.693073e+003,1.308628e-004
3.695001e+003,-2.714838e-006
3.696930e+003,-1.438061e-004
3.698858e+003,-1.838579e-004
3.700787e+003,-1.183854e-004
3.702716e+003,-1.087826e-004
3.704644e+003,-2.322512e-004
3.706573e+003,-2.624069e-004
3.708501e+003,-1.928023e-004
3.710429e+003,-1.910253e-004
3.712358e+003,1.767280e-005
3.714286e+003,2.004932e-004
3.716215e+003,6.707916e-005
3.718144e+003,-1.808727e-004
3.720072e+003,-3.098665e-004
3.722000e+003,-5.737823e-004
3.723929e+003,-6.436764e-004
3.725857e+003,-7.086280e-004
3.727786e+003,-8.501203e-004
3.729714e+003,-8.811409e-004
3.731643e+003,-7.600859e-004
3.733572e+003,-7.308983e-004
3.735500e+003,-6.473976e-004
3.737428e+003,-3.588508e-004
3.739357e+003,-1.963311e-004
3.741285e+003,-1.248169e-004
3.743214e+003,9.534968e-005
3.745142e+003,2.255854e-004
3.747071e+003,1.728768e-004
3.749000e+003,1.982661e-004
3.750928e+003,1.844482e-004
3.752856e+003,1.498551e-004
3.754785e+003,1.433534e-004
3.756713e+003,2.426337e-004
3.758642e+003,1.389661e-004
3.760570e+003,1.936310e-004
3.762499e+003,2.808953e-004
3.764427e+003,1.806152e-004
3.766356e+003,2.025384e-004
3.768284e+003,3.412565e-004
3.770213e+003,2.970444e-004
3.772141e+003,2.682545e-004
3.774070e+003,2.788515e-004
3.775998e+003,2.691917e-004
3.777927e+003,2.780710e-004
3.779855e+003,2.938392e-004
3.781784e+003,2.706987e-004
3.783712e+003,2.429797e-004
3.785641e+003,2.667731e-004
3.787569e+003,3.267458e-004
3.789498e+003,3.360370e-004
3.791426e+003,3.983322e-004
3.793355e+003,4.227639e-004
3.795283e+003,3.563297e-004
3.797212e+003,3.004879e-004
3.799140e+003,3.562433e-004
3.801069e+003,4.807133e-004
3.802997e+003,4.860331e-004
3.804926e+003,4.132856e-004
3.806854e+003,3.326682e-004
3.808783e+003,3.236086e-004
3.810711e+003,3.400410e-004
3.812640e+003,3.078470e-004
3.814568e+003,3.381894e-004
3.816497e+003,3.414543e-004
3.818425e+003,2.857668e-004
3.820354e+003,1.950331e-004
3.822282e+003,1.444415e-004
3.824211e+003,2.879367e-004
3.826139e+003,3.514781e-004
3.828068e+003,3.575628e-004
3.829996e+003,3.729203e-004
3.831925e+003,3.654695e-004
3.833853e+003,3.618852e-004
3.835782e+003,4.464517e-004
3.837710e+003,4.401139e-004
3.839639e+003,3.239034e-004
3.841567e+003,3.338521e-004
3.843496e+003,3.739943e-004
3.845424e+003,3.068332e-004
3.847353e+003,2.919672e-004
3.849281e+003,4.052891e-004
3.851210e+003,5.106220e-004
3.853138e+003,4.964880e-004
3.855067e+003,5.060229e-004
3.856995e+003,4.063813e-004
3.858924e+003,4.069979e-004
3.860852e+003,3.619679e-004
3.862781e+003,3.970600e-004
3.864709e+003,3.395724e-004
3.866638e+003,3.410811e-004
3.868566e+003,3.496639e-004
3.870495e+003,3.618186e-004
3.872423e+003,3.272491e-004
3.874352e+003,3.059914e-004
3.876280e+003,3.856693e-004
3.878209e+003,4.403840e-004
3.880137e+003,3.297607e-004
3.882066e+003,2.906143e-004
3.883994e+003,3.572280e-004
3.885923e+003,3.958806e-004
3.887851e+003,3.794920e-004
3.889780e+003,3.604815e-004
3.891708e+003,2.897186e-004
3.893637e+003,2.895642e-004
3.895565e+003,3.062007e-004
3.897494e+003,2.869202e-004
3.899422e+003,2.810956e-004
3.901351e+003,3.249010e-004
3.903279e+003,3.203860e-004
3.905208e+003,2.976407e-004
3.907136e+003,3.686926e-004
3.909065e+003,4.328897e-004
3.910993e+003,4.431116e-004
3.912922e+003,4.028635e-004
3.914850e+003,3.797974e-004
3.916779e+003,3.228478e-004
3.918707e+003,2.799567e-004
3.920636e+003,3.303785e-004
3.922564e+003,3.643437e-004
3.924493e+003,3.862216e-004
3.926421e+003,4.155476e-004
3.928350e+003,3.740824e-004
3.930278e+003,2.973263e-004
3.932207e+003,3.376644e-004
3.934135e+003,3.561411e-004
3.936064e+003,2.986281e-004
3.937992e+003,2.957969e-004
3.939921e+003,3.197383e-004
3.941849e+003,3.468968e-004
3.943778e+003,4.085076e-004
3.945706e+003,3.599519e-004
3.947635e+003,3.050921e-004
3.949563e+003,3.617130e-004
3.951492e+003,3.776338e-004
3.953420e+003,3.658147e-004
3.955349e+003,3.111051e-004
3.957277e+003,2.813293e-004
3.959206e+003,3.402964e-004
3.961134e+003,3.722539e-004
3.963063e+003,3.381354e-004
3.964991e+003,3.721880e-004
3.966920e+003,3.961238e-004
3.968848e+003,3.679845e-004
3.970777e+003,3.650626e-004
3.972705e+003,3.508261e-004
3.974634e+003,4.151632e-004
3.976562e+003,3.871654e-004
3.978491e+003,3.118083e-004
3.980419e+003,3.850193e-004
3.982348e+003,4.334241e-004
3.984276e+003,4.112986e-004
3.986205e+003,3.655707e-004
3.988133e+003,3.319743e-004
3.990062e+003,3.477159e-004
3.991990e+003,3.798458e-004
3.993919e+003,4.036302e-004
3.995847e+003,3.090505e-004
3.997776e+003,2.906463e-004
3.999704e+003,2.913791e-004
4.001633e+003,0.000000e+000
