3.991989e+002,4.291807e-002
4.011274e+002,3.673532e-002
4.030559e+002,3.673532e-002
4.049844e+002,3.409185e-002
4.069129e+002,3.700480e-002
4.088414e+002,3.900131e-002
4.107699e+002,3.906420e-002
4.126984e+002,3.718600e-002
4.146269e+002,3.599329e-002
4.165554e+002,3.613309e-002
4.184839e+002,3.883185e-002
4.204124e+002,3.973419e-002
4.223409e+002,3.793250e-002
4.242694e+002,3.691508e-002
4.261979e+002,3.852850e-002
4.281264e+002,3.872360e-002
4.300549e+002,3.701115e-002
4.319834e+002,3.637849e-002
4.339119e+002,3.661706e-002
4.358404e+002,3.646594e-002
4.377689e+002,3.689891e-002
4.396974e+002,3.751565e-002
4.416259e+002,3.800626e-002
4.435544e+002,3.784153e-002
4.454829e+002,3.777000e-002
4.474114e+002,3.710800e-002
4.493399e+002,3.740790e-002
4.512684e+002,3.751316e-002
4.531969e+002,3.706142e-002
4.551254e+002,3.628630e-002
4.570539e+002,3.623252e-002
4.589824e+002,3.577049e-002
4.609109e+002,3.591205e-002
4.628394e+002,3.544508e-002
4.647679e+002,3.557826e-002
4.666964e+002,3.596381e-002
4.686249e+002,3.548855e-002
4.705533e+002,3.448644e-002
4.724819e+002,3.461251e-002
4.744103e+002,3.450922e-002
4.763389e+002,3.413611e-002
4.782673e+002,3.360949e-002
4.801959e+002,3.337324e-002
4.821243e+002,3.322549e-002
4.840529e+002,3.311066e-002
4.859813e+002,3.252707e-002
4.879099e+002,3.222677e-002
4.898383e+002,3.204327e-002
4.917668e+002,3.195914e-002
4.936953e+002,3.162210e-002
4.956238e+002,3.162085e-002
4.975523e+002,3.178345e-002
4.994808e+002,3.138717e-002
5.014093e+002,3.087455e-002
5.033378e+002,3.104008e-002
5.052663e+002,3.124487e-002
5.071948e+002,3.145057e-002
5.091233e+002,3.140826e-002
5.110518e+002,3.116117e-002
5.129803e+002,3.149318e-002
5.149088e+002,3.197201e-002
5.168373e+002,3.204998e-002
5.187658e+002,3.182335e-002
5.206943e+002,3.199662e-002
5.226228e+002,3.236654e-002
5.245513e+002,3.211470e-002
5.264798e+002,3.178153e-002
5.284083e+002,3.164968e-002
5.303368e+002,3.162003e-002
5.322653e+002,3.122564e-002
5.341938e+002,3.123212e-002
5.361223e+002,3.147929e-002
5.380508e+002,3.145602e-002
5.399792e+002,3.148869e-002
5.419078e+002,3.193895e-002
5.438363e+002,3.120193e-002
5.457648e+002,3.060757e-002
5.476932e+002,3.077986e-002
5.496218e+002,3.118545e-002
5.515503e+002,3.142963e-002
5.534788e+002,3.152304e-002
5.554072e+002,3.138097e-002
5.573358e+002,3.163632e-002
5.592643e+002,3.168895e-002
5.611927e+002,3.154363e-002
5.631212e+002,3.109770e-002
5.650497e+002,3.086964e-002
5.669783e+002,3.063526e-002
5.689067e+002,3.058396e-002
5.708352e+002,3.043499e-002
5.727637e+002,3.041725e-002
5.746923e+002,3.029420e-002
5.766207e+002,3.047181e-002
5.785492e+002,3.027001e-002
5.804777e+002,3.000056e-002
5.824063e+002,2.968419e-002
5.843347e+002,2.938398e-002
5.862632e+002,2.928773e-002
5.881917e+002,2.955377e-002
5.901202e+002,2.952017e-002
5.920487e+002,2.947796e-002
5.939772e+002,2.931698e-002
5.959057e+002,2.911408e-002
5.978342e+002,2.881359e-002
5.997627e+002,2.911804e-002
6.016912e+002,2.906361e-002
6.036197e+002,2.902296e-002
6.055482e+002,2.878678e-002
6.074767e+002,2.866032e-002
6.094052e+002,2.849834e-002
6.113337e+002,2.842345e-002
6.132622e+002,2.826524e-002
6.151907e+002,2.794195e-002
6.171192e+002,2.766782e-002
6.190477e+002,2.717387e-002
6.209762e+002,2.668163e-002
6.229047e+002,2.638483e-002
6.248332e+002,2.612475e-002
6.267617e+002,2.613022e-002
6.286902e+002,2.580960e-002
6.306187e+002,2.552198e-002
6.325472e+002,2.546887e-002
6.344756e+002,2.561799e-002
6.364042e+002,2.547160e-002
6.383326e+002,2.504380e-002
6.402612e+002,2.479322e-002
6.421896e+002,2.476144e-002
6.441182e+002,2.446292e-002
6.460466e+002,2.435451e-002
6.479752e+002,2.417646e-002
6.499036e+002,2.413164e-002
6.518322e+002,2.406155e-002
6.537606e+002,2.384599e-002
6.556891e+002,2.361428e-002
6.576177e+002,2.367385e-002
6.595461e+002,2.377875e-002
6.614746e+002,2.382486e-002
6.634031e+002,2.389957e-002
6.653317e+002,2.382496e-002
6.672601e+002,2.346104e-002
6.691886e+002,2.324300e-002
6.711171e+002,2.282461e-002
6.730457e+002,2.242678e-002
6.749741e+002,2.195599e-002
6.769026e+002,2.145682e-002
6.788311e+002,2.111251e-002
6.807596e+002,2.060828e-002
6.826881e+002,2.012067e-002
6.846166e+002,2.007836e-002
6.865451e+002,2.005908e-002
6.884736e+002,1.989611e-002
6.904021e+002,1.978577e-002
6.923306e+002,1.984730e-002
6.942591e+002,1.983664e-002
6.961876e+002,1.972424e-002
6.981161e+002,1.969587e-002
7.000446e+002,1.980280e-002
7.019731e+002,1.969978e-002
7.039016e+002,1.957587e-002
7.058301e+002,1.937037e-002
7.077585e+002,1.923514e-002
7.096871e+002,1.927467e-002
7.116156e+002,1.918077e-002
7.135441e+002,1.886426e-002
7.154725e+002,1.881694e-002
7.174011e+002,1.858341e-002
7.193296e+002,1.845816e-002
7.212581e+002,1.833460e-002
7.231865e+002,1.819203e-002
7.251151e+002,1.803234e-002
7.270436e+002,1.796014e-002
7.289720e+002,1.780085e-002
7.309005e+002,1.762057e-002
7.328290e+002,1.741395e-002
7.347576e+002,1.730206e-002
7.366860e+002,1.717173e-002
7.386145e+002,1.705530e-002
7.405430e+002,1.689460e-002
7.424716e+002,1.670996e-002
7.444000e+002,1.666489e-002
7.463285e+002,1.666287e-002
7.482570e+002,1.655683e-002
7.501855e+002,1.650489e-002
7.521140e+002,1.627806e-002
7.540425e+002,1.625682e-002
7.559710e+002,1.617543e-002
7.578995e+002,1.607541e-002
7.598280e+002,1.585938e-002
7.617565e+002,1.573066e-002
7.636850e+002,1.572317e-002
7.656135e+002,1.572750e-002
7.675420e+002,1.559422e-002
7.694705e+002,1.556757e-002
7.713990e+002,1.552220e-002
7.733275e+002,1.552756e-002
7.752560e+002,1.542843e-002
7.771844e+002,1.536118e-002
7.791130e+002,1.529205e-002
7.810415e+002,1.531024e-002
7.829700e+002,1.539334e-002
7.848984e+002,1.546084e-002
7.868270e+002,1.538885e-002
7.887555e+002,1.533066e-002
7.906840e+002,1.530104e-002
7.926124e+002,1.526003e-002
7.945410e+002,1.512387e-002
7.964695e+002,1.511979e-002
7.983979e+002,1.520155e-002
8.003264e+002,1.522506e-002
8.022549e+002,1.515804e-002
8.041835e+002,1.503180e-002
8.061119e+002,1.496125e-002
8.080404e+002,1.499445e-002
8.099689e+002,1.502902e-002
8.118975e+002,1.504151e-002
8.138259e+002,1.496307e-002
8.157545e+002,1.495182e-002
8.176830e+002,1.496286e-002
8.196115e+002,1.491248e-002
8.215399e+002,1.487956e-002
8.234684e+002,1.484356e-002
8.253970e+002,1.484260e-002
8.273254e+002,1.493254e-002
8.292539e+002,1.496447e-002
8.311824e+002,1.491845e-002
8.331110e+002,1.487017e-002
8.350394e+002,1.497994e-002
8.369679e+002,1.495099e-002
8.388964e+002,1.478823e-002
8.408250e+002,1.463289e-002
8.427534e+002,1.470113e-002
8.446819e+002,1.465068e-002
8.466104e+002,1.458166e-002
8.485389e+002,1.465619e-002
8.504674e+002,1.470952e-002
8.523959e+002,1.470620e-002
8.543244e+002,1.471491e-002
8.562529e+002,1.467700e-002
8.581814e+002,1.471922e-002
8.601099e+002,1.487432e-002
8.620384e+002,1.495240e-002
8.639669e+002,1.492949e-002
8.658954e+002,1.490775e-002
8.678239e+002,1.492366e-002
8.697524e+002,1.507241e-002
8.716809e+002,1.522873e-002
8.736094e+002,1.537985e-002
8.755378e+002,1.546084e-002
8.774664e+002,1.551540e-002
8.793949e+002,1.569201e-002
8.813234e+002,1.596063e-002
8.832518e+002,1.610943e-002
8.851804e+002,1.647125e-002
8.871089e+002,1.685567e-002
8.890374e+002,1.715889e-002
8.909658e+002,1.753698e-002
8.928943e+002,1.795566e-002
8.948229e+002,1.814048e-002
8.967513e+002,1.820098e-002
8.986798e+002,1.811357e-002
9.006083e+002,1.797168e-002
9.025369e+002,1.769291e-002
9.044653e+002,1.748157e-002
9.063938e+002,1.722370e-002
9.083223e+002,1.703837e-002
9.102509e+002,1.702606e-002
9.121793e+002,1.703313e-002
9.141078e+002,1.706938e-002
9.160364e+002,1.719460e-002
9.179648e+002,1.730262e-002
9.198933e+002,1.739910e-002
9.218218e+002,1.746484e-002
9.237504e+002,1.768501e-002
9.256788e+002,1.785124e-002
9.276073e+002,1.803274e-002
9.295358e+002,1.823688e-002
9.314644e+002,1.845695e-002
9.333928e+002,1.872469e-002
9.353213e+002,1.901759e-002
9.372498e+002,1.930646e-002
9.391783e+002,1.956367e-002
9.411068e+002,1.987726e-002
9.430353e+002,2.035587e-002
9.449637e+002,2.083811e-002
9.468923e+002,2.130230e-002
9.488208e+002,2.168851e-002
9.507493e+002,2.211215e-002
9.526777e+002,2.263327e-002
9.546063e+002,2.321598e-002
9.565348e+002,2.375001e-002
9.584633e+002,2.427555e-002
9.603917e+002,2.477367e-002
9.623203e+002,2.538016e-002
9.642488e+002,2.590479e-002
9.661772e+002,2.643672e-002
9.681057e+002,2.691829e-002
9.700343e+002,2.743537e-002
9.719628e+002,2.793242e-002
9.738912e+002,2.853669e-002
9.758197e+002,2.913889e-002
9.777483e+002,2.976204e-002
9.796768e+002,3.042639e-002
9.816052e+002,3.126150e-002
9.835337e+002,3.206871e-002
9.854623e+002,3.278241e-002
9.873907e+002,3.330097e-002
9.893192e+002,3.378370e-002
9.912477e+002,3.405042e-002
9.931763e+002,3.416174e-002
9.951047e+002,3.422867e-002
9.970332e+002,3.432917e-002
9.989617e+002,3.455669e-002
1.000890e+003,3.501804e-002
1.002819e+003,3.547323e-002
1.004747e+003,3.588661e-002
1.006676e+003,3.623439e-002
1.008604e+003,3.663898e-002
1.010533e+003,3.709418e-002
1.012461e+003,3.754166e-002
1.014390e+003,3.805758e-002
1.016318e+003,3.875069e-002
1.018247e+003,3.933502e-002
1.020175e+003,3.990622e-002
1.022104e+003,4.045457e-002
1.024032e+003,4.108035e-002
1.025961e+003,4.173343e-002
1.027889e+003,4.229407e-002
1.029818e+003,4.280357e-002
1.031746e+003,4.326594e-002
1.033675e+003,4.343974e-002
1.035603e+003,4.338298e-002
1.037532e+003,4.308347e-002
1.039460e+003,4.258979e-002
1.041389e+003,4.207024e-002
1.043317e+003,4.168817e-002
1.045246e+003,4.132043e-002
1.047174e+003,4.090567e-002
1.049103e+003,4.050887e-002
1.051031e+003,4.023031e-002
1.052960e+003,3.973354e-002
1.054888e+003,3.915187e-002
1.056817e+003,3.846956e-002
1.058745e+003,3.786619e-002
1.060674e+003,3.711840e-002
1.062602e+003,3.626818e-002
1.064531e+003,3.545831e-002
1.066459e+003,3.470245e-002
1.068388e+003,3.400612e-002
1.070316e+003,3.342416e-002
1.072245e+003,3.296525e-002
1.074173e+003,3.251832e-002
1.076102e+003,3.191003e-002
1.078030e+003,3.128806e-002
1.079959e+003,3.068160e-002
1.081887e+003,3.013098e-002
1.083816e+003,2.953809e-002
1.085744e+003,2.903898e-002
1.087673e+003,2.866593e-002
1.089601e+003,2.839234e-002
1.091530e+003,2.809387e-002
1.093458e+003,2.782452e-002
1.095387e+003,2.752683e-002
1.097315e+003,2.737113e-002
1.099244e+003,2.720069e-002
1.101172e+003,2.711318e-002
1.103101e+003,2.698732e-002
1.105029e+003,2.680081e-002
1.106958e+003,2.648874e-002
1.108886e+003,2.601633e-002
1.110815e+003,2.543640e-002
1.112743e+003,2.479244e-002
1.114672e+003,2.405150e-002
1.116600e+003,2.335693e-002
1.118529e+003,2.276985e-002
1.120457e+003,2.223866e-002
1.122386e+003,2.166043e-002
1.124314e+003,2.111230e-002
1.126243e+003,2.048010e-002
1.128171e+003,1.980304e-002
1.130100e+003,1.916539e-002
1.132028e+003,1.862670e-002
1.133957e+003,1.804821e-002
1.135885e+003,1.760812e-002
1.137814e+003,1.733206e-002
1.139742e+003,1.718616e-002
1.141671e+003,1.709420e-002
1.143599e+003,1.712704e-002
1.145528e+003,1.728282e-002
1.147456e+003,1.750272e-002
1.149385e+003,1.770840e-002
1.151313e+003,1.797037e-002
1.153242e+003,1.823086e-002
1.155170e+003,1.852215e-002
1.157099e+003,1.874333e-002
1.159027e+003,1.883174e-002
1.160956e+003,1.876029e-002
1.162884e+003,1.853308e-002
1.164813e+003,1.811205e-002
1.166741e+003,1.758535e-002
1.168670e+003,1.688246e-002
1.170598e+003,1.612910e-002
1.172526e+003,1.538164e-002
1.174455e+003,1.465328e-002
1.176384e+003,1.402185e-002
1.178312e+003,1.347189e-002
1.180240e+003,1.294146e-002
1.182169e+003,1.253277e-002
1.184098e+003,1.222918e-002
1.186026e+003,1.201400e-002
1.187954e+003,1.188187e-002
1.189883e+003,1.180555e-002
1.191812e+003,1.182622e-002
1.193740e+003,1.192161e-002
1.195668e+003,1.209698e-002
1.197597e+003,1.225123e-002
1.199526e+003,1.240389e-002
1.201454e+003,1.251276e-002
1.203382e+003,1.262002e-002
1.205311e+003,1.262454e-002
1.207240e+003,1.259570e-002
1.209168e+003,1.262198e-002
1.211096e+003,1.266307e-002
1.213025e+003,1.276630e-002
1.214953e+003,1.292935e-002
1.216882e+003,1.307272e-002
1.218810e+003,1.327015e-002
1.220739e+003,1.345943e-002
1.222667e+003,1.365412e-002
1.224596e+003,1.389219e-002
1.226524e+003,1.422816e-002
1.228453e+003,1.449370e-002
1.230381e+003,1.465698e-002
1.232310e+003,1.484900e-002
1.234238e+003,1.496553e-002
1.236167e+003,1.503746e-002
1.238095e+003,1.503355e-002
1.240024e+003,1.504741e-002
1.241952e+003,1.502562e-002
1.243881e+003,1.496859e-002
1.245809e+003,1.484316e-002
1.247738e+003,1.465375e-002
1.249666e+003,1.448627e-002
1.251595e+003,1.424723e-002
1.253523e+003,1.403790e-002
1.255452e+003,1.385323e-002
1.257380e+003,1.362246e-002
1.259309e+003,1.338086e-002
1.261237e+003,1.307615e-002
1.263166e+003,1.279811e-002
1.265094e+003,1.250695e-002
1.267023e+003,1.222588e-002
1.268951e+003,1.200245e-002
1.270880e+003,1.174180e-002
1.272808e+003,1.151026e-002
1.274737e+003,1.131983e-002
1.276665e+003,1.110731e-002
1.278594e+003,1.094830e-002
1.280522e+003,1.083916e-002
1.282451e+003,1.070291e-002
1.284379e+003,1.063963e-002
1.286308e+003,1.054495e-002
1.288236e+003,1.041739e-002
1.290165e+003,1.037277e-002
1.292093e+003,1.041385e-002
1.294022e+003,1.044930e-002
1.295950e+003,1.047673e-002
1.297879e+003,1.056607e-002
1.299807e+003,1.069109e-002
1.301736e+003,1.079664e-002
1.303664e+003,1.092379e-002
1.305593e+003,1.110658e-002
1.307521e+003,1.126801e-002
1.309450e+003,1.143699e-002
1.311378e+003,1.159436e-002
1.313307e+003,1.169109e-002
1.315235e+003,1.171832e-002
1.317164e+003,1.174688e-002
1.319092e+003,1.174245e-002
1.321021e+003,1.165915e-002
1.322949e+003,1.155710e-002
1.324878e+003,1.147242e-002
1.326806e+003,1.142539e-002
1.328735e+003,1.137332e-002
1.330663e+003,1.132563e-002
1.332592e+003,1.133134e-002
1.334520e+003,1.132263e-002
1.336449e+003,1.127438e-002
1.338377e+003,1.118028e-002
1.340306e+003,1.110255e-002
1.342234e+003,1.105306e-002
1.344163e+003,1.098830e-002
1.346091e+003,1.096121e-002
1.348020e+003,1.099548e-002
1.349948e+003,1.107946e-002
1.351877e+003,1.117238e-002
1.353805e+003,1.127504e-002
1.355734e+003,1.140539e-002
1.357662e+003,1.149929e-002
1.359591e+003,1.160013e-002
1.361519e+003,1.170862e-002
1.363448e+003,1.180841e-002
1.365376e+003,1.195287e-002
1.367305e+003,1.205365e-002
1.369233e+003,1.203851e-002
1.371162e+003,1.195320e-002
1.373090e+003,1.184493e-002
1.375019e+003,1.177111e-002
1.376947e+003,1.158422e-002
1.378876e+003,1.131240e-002
1.380804e+003,1.103048e-002
1.382733e+003,1.079596e-002
1.384661e+003,1.057896e-002
1.386590e+003,1.037447e-002
1.388518e+003,1.021788e-002
1.390447e+003,1.006566e-002
1.392375e+003,9.966472e-003
1.394304e+003,9.902082e-003
1.396232e+003,9.831062e-003
1.398161e+003,9.792375e-003
1.400089e+003,9.809477e-003
1.402018e+003,9.815459e-003
1.403946e+003,9.825359e-003
1.405875e+003,9.886009e-003
1.407803e+003,9.944662e-003
1.409732e+003,1.003616e-002
1.411660e+003,1.013634e-002
1.413589e+003,1.020421e-002
1.415517e+003,1.026386e-002
1.417446e+003,1.038934e-002
1.419374e+003,1.049780e-002
1.421303e+003,1.056657e-002
1.423231e+003,1.049706e-002
1.425160e+003,1.050127e-002
1.427088e+003,1.045368e-002
1.429017e+003,1.033625e-002
1.430945e+003,1.024718e-002
1.432874e+003,1.017979e-002
1.434802e+003,1.000695e-002
1.436731e+003,9.902682e-003
1.438659e+003,9.879852e-003
1.440588e+003,9.773040e-003
1.442516e+003,9.682172e-003
1.444445e+003,9.615718e-003
1.446373e+003,9.599677e-003
1.448302e+003,9.637359e-003
1.450230e+003,9.636988e-003
1.452159e+003,9.589008e-003
1.454087e+003,9.531492e-003
1.456016e+003,9.487393e-003
1.457944e+003,9.415373e-003
1.459873e+003,9.342371e-003
1.461801e+003,9.276932e-003
1.463730e+003,9.144205e-003
1.465658e+003,8.974194e-003
1.467587e+003,8.735364e-003
1.469515e+003,8.406016e-003
1.471444e+003,8.103756e-003
1.473372e+003,7.866930e-003
1.475301e+003,7.587879e-003
1.477229e+003,7.386688e-003
1.479158e+003,7.270555e-003
1.481086e+003,7.195567e-003
1.483015e+003,7.172910e-003
1.484943e+003,7.182010e-003
1.486872e+003,7.219770e-003
1.488800e+003,7.265871e-003
1.490729e+003,7.403746e-003
1.492657e+003,7.604014e-003
1.494586e+003,7.753770e-003
1.496514e+003,7.840396e-003
1.498443e+003,7.942441e-003
1.500371e+003,8.072430e-003
1.502300e+003,8.192456e-003
1.504228e+003,8.305479e-003
1.506157e+003,8.370086e-003
1.508085e+003,8.471280e-003
1.510014e+003,8.519453e-003
1.511942e+003,8.578695e-003
1.513871e+003,8.595261e-003
1.515799e+003,8.516035e-003
1.517728e+003,8.361201e-003
1.519656e+003,8.253972e-003
1.521585e+003,8.157995e-003
1.523513e+003,8.028460e-003
1.525442e+003,7.949914e-003
1.527370e+003,7.947098e-003
1.529299e+003,7.955867e-003
1.531227e+003,7.893201e-003
1.533156e+003,7.836023e-003
1.535084e+003,7.852473e-003
1.537013e+003,7.859435e-003
1.538941e+003,7.904544e-003
1.540870e+003,7.884800e-003
1.542798e+003,7.822435e-003
1.544727e+003,7.795994e-003
1.546655e+003,7.793357e-003
1.548584e+003,7.762456e-003
1.550512e+003,7.739225e-003
1.552441e+003,7.720075e-003
1.554369e+003,7.685321e-003
1.556298e+003,7.646173e-003
1.558226e+003,7.593341e-003
1.560155e+003,7.709331e-003
1.562083e+003,7.684054e-003
1.564012e+003,7.664238e-003
1.565940e+003,7.691872e-003
1.567869e+003,7.672227e-003
1.569797e+003,7.693588e-003
1.571726e+003,7.773853e-003
1.573654e+003,7.859113e-003
1.575583e+003,8.052499e-003
1.577511e+003,8.140594e-003
1.579440e+003,8.178779e-003
1.581368e+003,8.343573e-003
1.583297e+003,8.495801e-003
1.585225e+003,8.651545e-003
1.587154e+003,8.785030e-003
1.589082e+003,8.906778e-003
1.591010e+003,9.054948e-003
1.592939e+003,9.195778e-003
1.594868e+003,9.265938e-003
1.596796e+003,9.345645e-003
1.598724e+003,9.438328e-003
1.600653e+003,9.485305e-003
1.602582e+003,9.532490e-003
1.604510e+003,9.591886e-003
1.606438e+003,9.556362e-003
1.608367e+003,9.517884e-003
1.610296e+003,9.596661e-003
1.612224e+003,9.743908e-003
1.614152e+003,9.849083e-003
1.616081e+003,9.994355e-003
1.618010e+003,1.012378e-002
1.619938e+003,1.019144e-002
1.621866e+003,1.027715e-002
1.623795e+003,1.036063e-002
1.625724e+003,1.042133e-002
1.627652e+003,1.051350e-002
1.629580e+003,1.053603e-002
1.631509e+003,1.048096e-002
1.633438e+003,1.042157e-002
1.635366e+003,1.037909e-002
1.637294e+003,1.034641e-002
1.639223e+003,1.023033e-002
1.641151e+003,1.018241e-002
1.643080e+003,1.014393e-002
1.645008e+003,1.013599e-002
1.646937e+003,1.010848e-002
1.648865e+003,1.013362e-002
1.650794e+003,1.012031e-002
1.652722e+003,1.007865e-002
1.654651e+003,1.001850e-002
1.656579e+003,9.876089e-003
1.658508e+003,9.757392e-003
1.660436e+003,9.590709e-003
1.662365e+003,9.389845e-003
1.664293e+003,9.275258e-003
1.666222e+003,9.088883e-003
1.668150e+003,8.885052e-003
1.670079e+003,8.723475e-003
1.672007e+003,8.572556e-003
1.673936e+003,8.386328e-003
1.675864e+003,8.327813e-003
1.677793e+003,8.226002e-003
1.679721e+003,8.083963e-003
1.681650e+003,7.845525e-003
1.683578e+003,7.806389e-003
1.685507e+003,7.890475e-003
1.687435e+003,7.717561e-003
1.689364e+003,7.599962e-003
1.691292e+003,7.538006e-003
1.693221e+003,7.483264e-003
1.695149e+003,7.508847e-003
1.697078e+003,7.448552e-003
1.699006e+003,7.316407e-003
1.700935e+003,7.331147e-003
1.702863e+003,7.242276e-003
1.704792e+003,7.218428e-003
1.706720e+003,7.285817e-003
1.708649e+003,7.362520e-003
1.710577e+003,7.393397e-003
1.712506e+003,7.507315e-003
1.714434e+003,7.606919e-003
1.716363e+003,7.684838e-003
1.718291e+003,7.758340e-003
1.720220e+003,7.833778e-003
1.722148e+003,7.942499e-003
1.724077e+003,8.005893e-003
1.726005e+003,8.056555e-003
1.727934e+003,8.076929e-003
1.729862e+003,8.054899e-003
1.731791e+003,8.062470e-003
1.733719e+003,8.000213e-003
1.735648e+003,7.888127e-003
1.737576e+003,7.686280e-003
1.739505e+003,7.492008e-003
1.741433e+003,7.241356e-003
1.743362e+003,6.986605e-003
1.745290e+003,6.716957e-003
1.747219e+003,6.539868e-003
1.749147e+003,6.403831e-003
1.751076e+003,6.258995e-003
1.753004e+003,6.081985e-003
1.754933e+003,5.832743e-003
1.756861e+003,5.700284e-003
1.758790e+003,5.646258e-003
1.760718e+003,5.563265e-003
1.762647e+003,5.466718e-003
1.764575e+003,5.356734e-003
1.766504e+003,5.291778e-003
1.768432e+003,5.233819e-003
1.770361e+003,5.149118e-003
1.772289e+003,5.170203e-003
1.774218e+003,5.197314e-003
1.776146e+003,5.163827e-003
1.778075e+003,5.196864e-003
1.780003e+003,5.197655e-003
1.781932e+003,5.210001e-003
1.783860e+003,5.200441e-003
1.785789e+003,5.220437e-003
1.787717e+003,5.170192e-003
1.789646e+003,5.159677e-003
1.791574e+003,5.227732e-003
1.793503e+003,5.239819e-003
1.795431e+003,5.308043e-003
1.797360e+003,5.339984e-003
1.799288e+003,5.361460e-003
1.801217e+003,5.410748e-003
1.803145e+003,5.379233e-003
1.805074e+003,5.354917e-003
1.807002e+003,5.361433e-003
1.808931e+003,5.373900e-003
1.810859e+003,5.364338e-003
1.812788e+003,5.407519e-003
1.814716e+003,5.347046e-003
1.816645e+003,5.262792e-003
1.818573e+003,5.250412e-003
1.820502e+003,5.257595e-003
1.822430e+003,5.307216e-003
1.824359e+003,5.334379e-003
1.826287e+003,5.316417e-003
1.828216e+003,5.389441e-003
1.830144e+003,5.353927e-003
1.832073e+003,5.359218e-003
1.834001e+003,5.416946e-003
1.835930e+003,5.434161e-003
1.837858e+003,5.405360e-003
1.839787e+003,5.361272e-003
1.841715e+003,5.254441e-003
1.843644e+003,5.264710e-003
1.845572e+003,5.358636e-003
1.847501e+003,5.441759e-003
1.849429e+003,5.414311e-003
1.851358e+003,5.392337e-003
1.853286e+003,5.281545e-003
1.855215e+003,5.365105e-003
1.857143e+003,5.537325e-003
1.859072e+003,5.435641e-003
1.861000e+003,5.349122e-003
1.862929e+003,5.462626e-003
1.864857e+003,5.490898e-003
1.866786e+003,5.387094e-003
1.868714e+003,5.410158e-003
1.870643e+003,5.616591e-003
1.872571e+003,5.709579e-003
1.874500e+003,5.613166e-003
1.876428e+003,5.627409e-003
1.878357e+003,5.717105e-003
1.880285e+003,5.746418e-003
1.882214e+003,5.683964e-003
1.884142e+003,5.731107e-003
1.886071e+003,5.811844e-003
1.887999e+003,5.863183e-003
1.889928e+003,5.866206e-003
1.891856e+003,5.759544e-003
1.893785e+003,5.823902e-003
1.895713e+003,5.784025e-003
1.897642e+003,5.947219e-003
1.899570e+003,6.030812e-003
1.901499e+003,6.056446e-003
1.903427e+003,6.199473e-003
1.905356e+003,6.193942e-003
1.907284e+003,6.290792e-003
1.909213e+003,6.248622e-003
1.911141e+003,6.086058e-003
1.913070e+003,6.066282e-003
1.914998e+003,6.056712e-003
1.916927e+003,6.141406e-003
1.918855e+003,6.122289e-003
1.920784e+003,6.217223e-003
1.922712e+003,6.276391e-003
1.924641e+003,6.474046e-003
1.926569e+003,6.730135e-003
1.928498e+003,6.698912e-003
1.930426e+003,6.677323e-003
1.932355e+003,6.618230e-003
1.934283e+003,6.383690e-003
1.936212e+003,6.461853e-003
1.938140e+003,7.058623e-003
1.940069e+003,7.225075e-003
1.941997e+003,6.733554e-003
1.943926e+003,6.775297e-003
1.945854e+003,7.023911e-003
1.947783e+003,7.339962e-003
1.949711e+003,7.037845e-003
1.951640e+003,6.796446e-003
1.953568e+003,6.715457e-003
1.955497e+003,6.898498e-003
1.957425e+003,7.111289e-003
1.959354e+003,7.748732e-003
1.961282e+003,7.912076e-003
1.963211e+003,7.384379e-003
1.965139e+003,6.908036e-003
1.967068e+003,6.144796e-003
1.968996e+003,6.347941e-003
1.970925e+003,7.076337e-003
1.972853e+003,6.768348e-003
1.974782e+003,6.332913e-003
1.976710e+003,6.180002e-003
1.978639e+003,6.842269e-003
1.980567e+003,7.360529e-003
1.982496e+003,6.948817e-003
1.984424e+003,6.539511e-003
1.986353e+003,6.320559e-003
1.988281e+003,6.161801e-003
1.990210e+003,6.272134e-003
1.992138e+003,6.828467e-003
1.994067e+003,6.952580e-003
1.995995e+003,6.305503e-003
1.997924e+003,6.276175e-003
1.999852e+003,6.458457e-003
2.001781e+003,6.568056e-003
2.003709e+003,6.482047e-003
2.005638e+003,6.564070e-003
2.007566e+003,5.968010e-003
2.009495e+003,5.859033e-003
2.011423e+003,5.645873e-003
2.013352e+003,5.967284e-003
2.015280e+003,6.973248e-003
2.017208e+003,6.386690e-003
2.019137e+003,6.842883e-003
2.021066e+003,6.866994e-003
2.022994e+003,5.456998e-003
2.024922e+003,4.258361e-003
2.026851e+003,4.771631e-003
2.028780e+003,6.096939e-003
2.030708e+003,5.334194e-003
2.032636e+003,4.568391e-003
2.034565e+003,4.191258e-003
2.036494e+003,4.480408e-003
2.038422e+003,4.872251e-003
2.040350e+003,5.095967e-003
2.042279e+003,5.150719e-003
2.044208e+003,4.613392e-003
2.046136e+003,3.543912e-003
2.048064e+003,3.352506e-003
2.049993e+003,4.130276e-003
2.051921e+003,4.707736e-003
2.053850e+003,4.784960e-003
2.055778e+003,4.603108e-003
2.057707e+003,4.550734e-003
2.059635e+003,4.567930e-003
2.061564e+003,4.828739e-003
2.063492e+003,4.831110e-003
2.065421e+003,4.572595e-003
2.067349e+003,4.611192e-003
2.069278e+003,4.948924e-003
2.071206e+003,4.955049e-003
2.073135e+003,4.917446e-003
2.075063e+003,5.138903e-003
2.076992e+003,5.145217e-003
2.078920e+003,4.945236e-003
2.080849e+003,5.451438e-003
2.082777e+003,5.616140e-003
2.084706e+003,5.646481e-003
2.086634e+003,5.858275e-003
2.088563e+003,5.668913e-003
2.090491e+003,5.597846e-003
2.092420e+003,5.603965e-003
2.094348e+003,5.624736e-003
2.096277e+003,5.631451e-003
2.098205e+003,6.111700e-003
2.100134e+003,6.344030e-003
2.102062e+003,6.196658e-003
2.103991e+003,6.291080e-003
2.105919e+003,6.396046e-003
2.107848e+003,6.261901e-003
2.109776e+003,6.374056e-003
2.111705e+003,6.530603e-003
2.113633e+003,6.669677e-003
2.115562e+003,6.452742e-003
2.117490e+003,6.381924e-003
2.119419e+003,6.490208e-003
2.121347e+003,6.773927e-003
2.123276e+003,7.004255e-003
2.125204e+003,7.252662e-003
2.127133e+003,7.615239e-003
2.129061e+003,7.465513e-003
2.130990e+003,6.833871e-003
2.132918e+003,7.191145e-003
2.134847e+003,7.312066e-003
2.136775e+003,7.295352e-003
2.138704e+003,7.717120e-003
2.140632e+003,8.120222e-003
2.142561e+003,8.023985e-003
2.144489e+003,7.603201e-003
2.146418e+003,7.508966e-003
2.148346e+003,8.285674e-003
2.150275e+003,7.927971e-003
2.152203e+003,7.423178e-003
2.154132e+003,6.733375e-003
2.156060e+003,7.370668e-003
2.157989e+003,7.355334e-003
2.159917e+003,8.156785e-003
2.161846e+003,9.004842e-003
2.163774e+003,7.912382e-003
2.165703e+003,6.105080e-003
2.167631e+003,5.900418e-003
2.169560e+003,6.108474e-003
2.171488e+003,6.462697e-003
2.173417e+003,6.184861e-003
2.175345e+003,5.816190e-003
2.177274e+003,5.489571e-003
2.179202e+003,5.420486e-003
2.181131e+003,5.331520e-003
2.183059e+003,4.476639e-003
2.184988e+003,4.692186e-003
2.186916e+003,5.340510e-003
2.188845e+003,5.593908e-003
2.190773e+003,4.886126e-003
2.192702e+003,5.252969e-003
2.194630e+003,5.889536e-003
2.196559e+003,5.029300e-003
2.198487e+003,5.147809e-003
2.200416e+003,5.786337e-003
2.202344e+003,5.475210e-003
2.204273e+003,5.254579e-003
2.206201e+003,5.218729e-003
2.208130e+003,5.338363e-003
2.210058e+003,5.332325e-003
2.211987e+003,4.854695e-003
2.213915e+003,4.937197e-003
2.215844e+003,5.455547e-003
2.217772e+003,5.549606e-003
2.219701e+003,5.096747e-003
2.221629e+003,5.138454e-003
2.223558e+003,5.411092e-003
2.225486e+003,5.455816e-003
2.227415e+003,5.433269e-003
2.229343e+003,5.388347e-003
2.231272e+003,5.246865e-003
2.233200e+003,5.237868e-003
2.235129e+003,5.029495e-003
2.237057e+003,5.145266e-003
2.238986e+003,5.500347e-003
2.240914e+003,5.444783e-003
2.242843e+003,5.148101e-003
2.244771e+003,5.065503e-003
2.246700e+003,4.870212e-003
2.248628e+003,4.968324e-003
2.250557e+003,4.856052e-003
2.252485e+003,4.705609e-003
2.254414e+003,4.348017e-003
2.256342e+003,4.141515e-003
2.258271e+003,4.381042e-003
2.260199e+003,4.578678e-003
2.262128e+003,4.351036e-003
2.264056e+003,4.391378e-003
2.265985e+003,4.382595e-003
2.267913e+003,4.291291e-003
2.269842e+003,4.378839e-003
2.271770e+003,4.669345e-003
2.273699e+003,4.714807e-003
2.275627e+003,4.635705e-003
2.277556e+003,4.773995e-003
2.279484e+003,4.953970e-003
2.281413e+003,5.114941e-003
2.283341e+003,5.158892e-003
2.285270e+003,5.190216e-003
2.287198e+003,5.323577e-003
2.289127e+003,5.538150e-003
2.291055e+003,5.595020e-003
2.292984e+003,5.606563e-003
2.294912e+003,5.712419e-003
2.296841e+003,5.750082e-003
2.298769e+003,5.836793e-003
2.300698e+003,6.024030e-003
2.302626e+003,6.205556e-003
2.304555e+003,6.154387e-003
2.306483e+003,6.249879e-003
2.308412e+003,6.228190e-003
2.310340e+003,6.477003e-003
2.312269e+003,6.612209e-003
2.314197e+003,6.351961e-003
2.316125e+003,6.336556e-003
2.318054e+003,6.779425e-003
2.319983e+003,6.895125e-003
2.321911e+003,6.850753e-003
2.323840e+003,7.009189e-003
2.325768e+003,7.112902e-003
2.327697e+003,7.070512e-003
2.329625e+003,7.121423e-003
2.331553e+003,7.286240e-003
2.333482e+003,7.444742e-003
2.335411e+003,7.232253e-003
2.337339e+003,6.923177e-003
2.339268e+003,6.834037e-003
2.341196e+003,6.653353e-003
2.343125e+003,6.645254e-003
2.345053e+003,6.141961e-003
2.346981e+003,5.698679e-003
2.348910e+003,5.482894e-003
2.350839e+003,5.193755e-003
2.352767e+003,5.054629e-003
2.354696e+003,4.732077e-003
2.356624e+003,4.689795e-003
2.358552e+003,4.624424e-003
2.360481e+003,4.342107e-003
2.362409e+003,4.297479e-003
2.364338e+003,4.843544e-003
2.366267e+003,4.330155e-003
2.368195e+003,4.161713e-003
2.370124e+003,4.412219e-003
2.372052e+003,4.636878e-003
2.373980e+003,4.800033e-003
2.375909e+003,5.029133e-003
2.377838e+003,5.065726e-003
2.379766e+003,4.958257e-003
2.381695e+003,4.923552e-003
2.383623e+003,4.884341e-003
2.385552e+003,4.798909e-003
2.387480e+003,4.875859e-003
2.389408e+003,4.971324e-003
2.391337e+003,4.993890e-003
2.393266e+003,5.110675e-003
2.395194e+003,5.138951e-003
2.397123e+003,5.096718e-003
2.399051e+003,5.171979e-003
2.400979e+003,5.213665e-003
2.402908e+003,5.345843e-003
2.404836e+003,5.430317e-003
2.406765e+003,5.452796e-003
2.408694e+003,5.442261e-003
2.410622e+003,5.372277e-003
2.412551e+003,5.469103e-003
2.414479e+003,5.510645e-003
2.416407e+003,5.459272e-003
2.418336e+003,5.433873e-003
2.420264e+003,5.365971e-003
2.422193e+003,5.169268e-003
2.424122e+003,5.163668e-003
2.426050e+003,5.378752e-003
2.427979e+003,5.374995e-003
2.429907e+003,5.279498e-003
2.431835e+003,5.239588e-003
2.433764e+003,5.242908e-003
2.435692e+003,5.159779e-003
2.437621e+003,5.087260e-003
2.439550e+003,5.042339e-003
2.441478e+003,5.071235e-003
2.443406e+003,5.051055e-003
2.445335e+003,5.070263e-003
2.447263e+003,4.951574e-003
2.449192e+003,4.965549e-003
2.451121e+003,5.020417e-003
2.453049e+003,5.049546e-003
2.454978e+003,5.073582e-003
2.456906e+003,5.009758e-003
2.458834e+003,4.958143e-003
2.460763e+003,5.004495e-003
2.462691e+003,4.936995e-003
2.464620e+003,4.879156e-003
2.466549e+003,4.849167e-003
2.468477e+003,4.847961e-003
2.470406e+003,4.826283e-003
2.472334e+003,4.770837e-003
2.474262e+003,4.874063e-003
2.476191e+003,4.864580e-003
2.478119e+003,4.956601e-003
2.480048e+003,4.945374e-003
2.481977e+003,4.856371e-003
2.483905e+003,4.992295e-003
2.485833e+003,5.067883e-003
2.487762e+003,5.017736e-003
2.489690e+003,5.021825e-003
2.491619e+003,4.902211e-003
2.493547e+003,4.979760e-003
2.495476e+003,5.137750e-003
2.497405e+003,5.169704e-003
2.499333e+003,5.102178e-003
2.501261e+003,5.024674e-003
2.503190e+003,5.034965e-003
2.505118e+003,5.045993e-003
2.507047e+003,4.980665e-003
2.508975e+003,4.879424e-003
2.510904e+003,4.881033e-003
2.512833e+003,4.907304e-003
2.514761e+003,5.058396e-003
2.516689e+003,4.975738e-003
2.518618e+003,4.758308e-003
2.520546e+003,4.902579e-003
2.522475e+003,4.955428e-003
2.524403e+003,4.871818e-003
2.526332e+003,4.856337e-003
2.528260e+003,4.885757e-003
2.530189e+003,5.016495e-003
2.532117e+003,4.879391e-003
2.534046e+003,4.815461e-003
2.535974e+003,4.798945e-003
2.537903e+003,4.857074e-003
2.539831e+003,4.919000e-003
2.541760e+003,4.876141e-003
2.543688e+003,4.704043e-003
2.545617e+003,4.611841e-003
2.547545e+003,4.688602e-003
2.549474e+003,4.805679e-003
2.551402e+003,4.809799e-003
2.553331e+003,4.780988e-003
2.555259e+003,4.794220e-003
2.557188e+003,4.752915e-003
2.559116e+003,4.661741e-003
2.561045e+003,4.679358e-003
2.562973e+003,4.632571e-003
2.564902e+003,4.606651e-003
2.566830e+003,4.682975e-003
2.568759e+003,4.634748e-003
2.570687e+003,4.582641e-003
2.572616e+003,4.556724e-003
2.574544e+003,4.480288e-003
2.576473e+003,4.449891e-003
2.578401e+003,4.384820e-003
2.580330e+003,4.295966e-003
2.582258e+003,4.218237e-003
2.584187e+003,4.272977e-003
2.586115e+003,4.204921e-003
2.588044e+003,4.221717e-003
2.589972e+003,4.289574e-003
2.591901e+003,4.226501e-003
2.593829e+003,4.220211e-003
2.595758e+003,4.200170e-003
2.597686e+003,4.106403e-003
2.599615e+003,4.122760e-003
2.601543e+003,4.116639e-003
2.603472e+003,4.102256e-003
2.605400e+003,4.077270e-003
2.607329e+003,4.098409e-003
2.609257e+003,4.115936e-003
2.611186e+003,3.991455e-003
2.613114e+003,3.955509e-003
2.615043e+003,4.047303e-003
2.616971e+003,4.027505e-003
2.618900e+003,4.043524e-003
2.620828e+003,4.054026e-003
2.622757e+003,3.993328e-003
2.624685e+003,4.006068e-003
2.626614e+003,4.113829e-003
2.628542e+003,4.159322e-003
2.630471e+003,4.145340e-003
2.632399e+003,4.124299e-003
2.634328e+003,4.167418e-003
2.636256e+003,4.255577e-003
2.638185e+003,4.390443e-003
2.640113e+003,4.482631e-003
2.642042e+003,4.543565e-003
2.643970e+003,4.632135e-003
2.645899e+003,4.683344e-003
2.647827e+003,4.769932e-003
2.649756e+003,4.819314e-003
2.651684e+003,4.869774e-003
2.653613e+003,4.960757e-003
2.655541e+003,5.068486e-003
2.657470e+003,5.104559e-003
2.659398e+003,5.132989e-003
2.661327e+003,5.199279e-003
2.663255e+003,5.253137e-003
2.665184e+003,5.301970e-003
2.667112e+003,5.322497e-003
2.669041e+003,5.340611e-003
2.670969e+003,5.381871e-003
2.672898e+003,5.391768e-003
2.674826e+003,5.445281e-003
2.676755e+003,5.470076e-003
2.678683e+003,5.491887e-003
2.680612e+003,5.537760e-003
2.682540e+003,5.561118e-003
2.684469e+003,5.540780e-003
2.686397e+003,5.560044e-003
2.688326e+003,5.595284e-003
2.690254e+003,5.566286e-003
2.692183e+003,5.517289e-003
2.694111e+003,5.510611e-003
2.696040e+003,5.549372e-003
2.697968e+003,5.560648e-003
2.699897e+003,5.528900e-003
2.701825e+003,5.566823e-003
2.703754e+003,5.597432e-003
2.705682e+003,5.565783e-003
2.707611e+003,5.548935e-003
2.709539e+003,5.542760e-003
2.711468e+003,5.520578e-003
2.713396e+003,5.468231e-003
2.715325e+003,5.477995e-003
2.717253e+003,5.551016e-003
2.719182e+003,5.544908e-003
2.721110e+003,5.525477e-003
2.723039e+003,5.517826e-003
2.724967e+003,5.502591e-003
2.726896e+003,5.509034e-003
2.728824e+003,5.505444e-003
2.730753e+003,5.505477e-003
2.732681e+003,5.524269e-003
2.734610e+003,5.548163e-003
2.736538e+003,5.547996e-003
2.738467e+003,5.508631e-003
2.740395e+003,5.508229e-003
2.742324e+003,5.528498e-003
2.744252e+003,5.491082e-003
2.746181e+003,5.528095e-003
2.748109e+003,5.587028e-003
2.750038e+003,5.607132e-003
2.751966e+003,5.579241e-003
2.753895e+003,5.551049e-003
2.755823e+003,5.541015e-003
2.757752e+003,5.566823e-003
2.759680e+003,5.615490e-003
2.761609e+003,5.609616e-003
2.763537e+003,5.611597e-003
2.765466e+003,5.673528e-003
2.767394e+003,5.727277e-003
2.769323e+003,5.710591e-003
2.771251e+003,5.691858e-003
2.773180e+003,5.712941e-003
2.775108e+003,5.703373e-003
2.777037e+003,5.686956e-003
2.778965e+003,5.676785e-003
2.780894e+003,5.672152e-003
2.782822e+003,5.726102e-003
2.784750e+003,5.777170e-003
2.786679e+003,5.733186e-003
2.788608e+003,5.708979e-003
2.790536e+003,5.707032e-003
2.792465e+003,5.735704e-003
2.794393e+003,5.782006e-003
2.796322e+003,5.790132e-003
2.798250e+003,5.835767e-003
2.800178e+003,5.874087e-003
2.802107e+003,5.882046e-003
2.804036e+003,5.823073e-003
2.805964e+003,5.811757e-003
2.807893e+003,5.856052e-003
2.809821e+003,5.869552e-003
2.811750e+003,5.842451e-003
2.813678e+003,5.900888e-003
2.815606e+003,5.974283e-003
2.817535e+003,5.998672e-003
2.819464e+003,6.031798e-003
2.821392e+003,6.039290e-003
2.823321e+003,6.039055e-003
2.825249e+003,6.082768e-003
2.827177e+003,6.133980e-003
2.829106e+003,6.187886e-003
2.831034e+003,6.209128e-003
2.832963e+003,6.241059e-003
2.834892e+003,6.316226e-003
2.836820e+003,6.356370e-003
2.838749e+003,6.356807e-003
2.840677e+003,6.435457e-003
2.842605e+003,6.506184e-003
2.844534e+003,6.608982e-003
2.846462e+003,6.700296e-003
2.848391e+003,6.774230e-003
2.850320e+003,6.807180e-003
2.852248e+003,6.847503e-003
2.854177e+003,6.920553e-003
2.856105e+003,6.958092e-003
2.858033e+003,6.883622e-003
2.859962e+003,6.847032e-003
2.861890e+003,6.889177e-003
2.863819e+003,6.975432e-003
2.865748e+003,7.014121e-003
2.867676e+003,7.010384e-003
2.869604e+003,6.965163e-003
2.871533e+003,6.935602e-003
2.873461e+003,7.000349e-003
2.875390e+003,7.100368e-003
2.877319e+003,7.077971e-003
2.879247e+003,7.009238e-003
2.881176e+003,7.006915e-003
2.883104e+003,7.023449e-003
2.885032e+003,6.973143e-003
2.886961e+003,7.041229e-003
2.888889e+003,7.103938e-003
2.890818e+003,7.132803e-003
2.892747e+003,7.127245e-003
2.894675e+003,7.124888e-003
2.896604e+003,7.144053e-003
2.898532e+003,7.145805e-003
2.900460e+003,7.141695e-003
2.902389e+003,7.140988e-003
2.904317e+003,7.140180e-003
2.906246e+003,7.108249e-003
2.908175e+003,7.066554e-003
2.910103e+003,7.034157e-003
2.912031e+003,7.080833e-003
2.913960e+003,7.120374e-003
2.915888e+003,7.121217e-003
2.917817e+003,7.123136e-003
2.919745e+003,7.141796e-003
2.921674e+003,7.124921e-003
2.923603e+003,7.114951e-003
2.925531e+003,7.077600e-003
2.927459e+003,7.006006e-003
2.929388e+003,6.920250e-003
2.931316e+003,6.860126e-003
2.933245e+003,6.831683e-003
2.935173e+003,6.832711e-003
2.937102e+003,6.762862e-003
2.939031e+003,6.689765e-003
2.940959e+003,6.620101e-003
2.942887e+003,6.539967e-003
2.944816e+003,6.426036e-003
2.946744e+003,6.336572e-003
2.948673e+003,6.301743e-003
2.950601e+003,6.262124e-003
2.952530e+003,6.188605e-003
2.954458e+003,6.035555e-003
2.956387e+003,5.967016e-003
2.958315e+003,6.003159e-003
2.960244e+003,5.972836e-003
2.962172e+003,5.899201e-003
2.964101e+003,5.850566e-003
2.966029e+003,5.858212e-003
2.967958e+003,5.872605e-003
2.969886e+003,5.844460e-003
2.971815e+003,5.848977e-003
2.973743e+003,5.775136e-003
2.975672e+003,5.730578e-003
2.977600e+003,5.660188e-003
2.979529e+003,5.609761e-003
2.981457e+003,5.546957e-003
2.983386e+003,5.572647e-003
2.985314e+003,5.583717e-003
2.987243e+003,5.544723e-003
2.989171e+003,5.532236e-003
2.991100e+003,5.559355e-003
2.993028e+003,5.561500e-003
2.994957e+003,5.543514e-003
2.996885e+003,5.490935e-003
2.998814e+003,5.495376e-003
3.000742e+003,5.573647e-003
3.002671e+003,5.540076e-003
3.004599e+003,5.472001e-003
3.006528e+003,5.524465e-003
3.008456e+003,5.539327e-003
3.010385e+003,5.524763e-003
3.012313e+003,5.528882e-003
3.014242e+003,5.533289e-003
3.016170e+003,5.569953e-003
3.018099e+003,5.560953e-003
3.020027e+003,5.560834e-003
3.021956e+003,5.617179e-003
3.023884e+003,5.645554e-003
3.025813e+003,5.663650e-003
3.027741e+003,5.613794e-003
3.029670e+003,5.563640e-003
3.031598e+003,5.578087e-003
3.033527e+003,5.615487e-003
3.035455e+003,5.666804e-003
3.037384e+003,5.654849e-003
3.039312e+003,5.694422e-003
3.041241e+003,5.696422e-003
3.043169e+003,5.716802e-003
3.045098e+003,5.789177e-003
3.047026e+003,5.734660e-003
3.048955e+003,5.772496e-003
3.050883e+003,5.820611e-003
3.052812e+003,5.792118e-003
3.054740e+003,5.815023e-003
3.056669e+003,5.920820e-003
3.058597e+003,5.945262e-003
3.060526e+003,5.922250e-003
3.062454e+003,5.943700e-003
3.064383e+003,5.903588e-003
3.066311e+003,5.910282e-003
3.068240e+003,5.995701e-003
3.070168e+003,6.047552e-003
3.072097e+003,6.003656e-003
3.074025e+003,5.984991e-003
3.075954e+003,6.075624e-003
3.077882e+003,6.150824e-003
3.079811e+003,6.135799e-003
3.081739e+003,6.139480e-003
3.083668e+003,6.184679e-003
3.085596e+003,6.190084e-003
3.087525e+003,6.259852e-003
3.089453e+003,6.276093e-003
3.091382e+003,6.241766e-003
3.093310e+003,6.216594e-003
3.095239e+003,6.250550e-003
3.097167e+003,6.333393e-003
3.099096e+003,6.422468e-003
3.101024e+003,6.396779e-003
3.102953e+003,6.364928e-003
3.104881e+003,6.338459e-003
3.106810e+003,6.355431e-003
3.108738e+003,6.420074e-003
3.110667e+003,6.500853e-003
3.112595e+003,6.466229e-003
3.114524e+003,6.471881e-003
3.116452e+003,6.496555e-003
3.118381e+003,6.466324e-003
3.120309e+003,6.486372e-003
3.122238e+003,6.505470e-003
3.124166e+003,6.561965e-003
3.126095e+003,6.608203e-003
3.128023e+003,6.592142e-003
3.129952e+003,6.688624e-003
3.131880e+003,6.805476e-003
3.133809e+003,6.791208e-003
3.135737e+003,6.746858e-003
3.137666e+003,6.733835e-003
3.139594e+003,6.737050e-003
3.141523e+003,6.804374e-003
3.143451e+003,6.886048e-003
3.145380e+003,6.892402e-003
3.147308e+003,6.912167e-003
3.149237e+003,6.988890e-003
3.151165e+003,7.070225e-003
3.153094e+003,7.082005e-003
3.155022e+003,7.049314e-003
3.156951e+003,7.085053e-003
3.158879e+003,7.184632e-003
3.160808e+003,7.170994e-003
3.162736e+003,7.212095e-003
3.164665e+003,7.351473e-003
3.166593e+003,7.402786e-003
3.168522e+003,7.384075e-003
3.170450e+003,7.391533e-003
3.172379e+003,7.389755e-003
3.174307e+003,7.480069e-003
3.176236e+003,7.537649e-003
3.178164e+003,7.576680e-003
3.180093e+003,7.568506e-003
3.182021e+003,7.523478e-003
3.183950e+003,7.553446e-003
3.185878e+003,7.556832e-003
3.187807e+003,7.623191e-003
3.189735e+003,7.652126e-003
3.191664e+003,7.725421e-003
3.193592e+003,7.778753e-003
3.195521e+003,7.795806e-003
3.197449e+003,7.828332e-003
3.199378e+003,7.860931e-003
3.201306e+003,7.877943e-003
3.203235e+003,7.907349e-003
3.205163e+003,7.951074e-003
3.207092e+003,8.022997e-003
3.209020e+003,8.041572e-003
3.210948e+003,8.064047e-003
3.212877e+003,8.062048e-003
3.214806e+003,8.085698e-003
3.216734e+003,8.144470e-003
3.218663e+003,8.222498e-003
3.220591e+003,8.227622e-003
3.222520e+003,8.278034e-003
3.224448e+003,8.306615e-003
3.226376e+003,8.351385e-003
3.228305e+003,8.403117e-003
3.230234e+003,8.444124e-003
3.232162e+003,8.386642e-003
3.234091e+003,8.462079e-003
3.236019e+003,8.584584e-003
3.237948e+003,8.627729e-003
3.239876e+003,8.539756e-003
3.241804e+003,8.604114e-003
3.243733e+003,8.664891e-003
3.245662e+003,8.721448e-003
3.247590e+003,8.779876e-003
3.249519e+003,8.764756e-003
3.251447e+003,8.724119e-003
3.253375e+003,8.757785e-003
3.255304e+003,8.850687e-003
3.257232e+003,8.955463e-003
3.259161e+003,8.990346e-003
3.261090e+003,9.003440e-003
3.263018e+003,9.015966e-003
3.264947e+003,9.003704e-003
3.266875e+003,9.124620e-003
3.268803e+003,9.217234e-003
3.270732e+003,9.163338e-003
3.272660e+003,9.154317e-003
3.274589e+003,9.209278e-003
3.276518e+003,9.245104e-003
3.278446e+003,9.307423e-003
3.280375e+003,9.292458e-003
3.282303e+003,9.165735e-003
3.284231e+003,9.251417e-003
3.286160e+003,9.372123e-003
3.288088e+003,9.388822e-003
3.290017e+003,9.356791e-003
3.291946e+003,9.336296e-003
3.293874e+003,9.308073e-003
3.295802e+003,9.306367e-003
3.297731e+003,9.359242e-003
3.299659e+003,9.362280e-003
3.301588e+003,9.361940e-003
3.303516e+003,9.410322e-003
3.305445e+003,9.367044e-003
3.307374e+003,9.363065e-003
3.309302e+003,9.366796e-003
3.311230e+003,9.314424e-003
3.313159e+003,9.348195e-003
3.315087e+003,9.406355e-003
3.317016e+003,9.502540e-003
3.318944e+003,9.508952e-003
3.320873e+003,9.391787e-003
3.322802e+003,9.327504e-003
3.324730e+003,9.394557e-003
3.326658e+003,9.404738e-003
3.328587e+003,9.414381e-003
3.330515e+003,9.459724e-003
3.332444e+003,9.440891e-003
3.334372e+003,9.384907e-003
3.336301e+003,9.389846e-003
3.338229e+003,9.358350e-003
3.340158e+003,9.274258e-003
3.342086e+003,9.316180e-003
3.344015e+003,9.308122e-003
3.345943e+003,9.257060e-003
3.347872e+003,9.225640e-003
3.349800e+003,9.214241e-003
3.351729e+003,9.174765e-003
3.353657e+003,9.133202e-003
3.355586e+003,9.113273e-003
3.357514e+003,9.109262e-003
3.359443e+003,9.122616e-003
3.361371e+003,9.081344e-003
3.363300e+003,9.004712e-003
3.365229e+003,8.983290e-003
3.367157e+003,8.866344e-003
3.369085e+003,8.851047e-003
3.371014e+003,8.893436e-003
3.372942e+003,8.921588e-003
3.374871e+003,8.890552e-003
3.376799e+003,8.831080e-003
3.378728e+003,8.771818e-003
3.380656e+003,8.700198e-003
3.382585e+003,8.673206e-003
3.384513e+003,8.688188e-003
3.386442e+003,8.584457e-003
3.388370e+003,8.507552e-003
3.390299e+003,8.561699e-003
3.392227e+003,8.473809e-003
3.394156e+003,8.446409e-003
3.396084e+003,8.509491e-003
3.398013e+003,8.486695e-003
3.399941e+003,8.398406e-003
3.401870e+003,8.391892e-003
3.403798e+003,8.289501e-003
3.405727e+003,8.209979e-003
3.407655e+003,8.105080e-003
3.409584e+003,8.018348e-003
3.411512e+003,8.103758e-003
3.413441e+003,8.138466e-003
3.415369e+003,8.081283e-003
3.417298e+003,7.996263e-003
3.419226e+003,7.892860e-003
3.421155e+003,7.817229e-003
3.423083e+003,7.784582e-003
3.425012e+003,7.741781e-003
3.426940e+003,7.634209e-003
3.428869e+003,7.543661e-003
3.430797e+003,7.523874e-003
3.432726e+003,7.577143e-003
3.434654e+003,7.467562e-003
3.436583e+003,7.345504e-003
3.438511e+003,7.281150e-003
3.440440e+003,7.213663e-003
3.442368e+003,7.128153e-003
3.444297e+003,7.062744e-003
3.446225e+003,7.019719e-003
3.448154e+003,6.904592e-003
3.450082e+003,6.874488e-003
3.452011e+003,6.813544e-003
3.453939e+003,6.729347e-003
3.455868e+003,6.641585e-003
3.457796e+003,6.603041e-003
3.459725e+003,6.524989e-003
3.461653e+003,6.393754e-003
3.463582e+003,6.286468e-003
3.465510e+003,6.251023e-003
3.467439e+003,6.193352e-003
3.469367e+003,6.122027e-003
3.471296e+003,6.021409e-003
3.473224e+003,6.027190e-003
3.475153e+003,6.001933e-003
3.477081e+003,5.943607e-003
3.479010e+003,5.870700e-003
3.480938e+003,5.767437e-003
3.482867e+003,5.682236e-003
3.484795e+003,5.601328e-003
3.486724e+003,5.550483e-003
3.488652e+003,5.476504e-003
3.490581e+003,5.403195e-003
3.492509e+003,5.455317e-003
3.494438e+003,5.407354e-003
3.496366e+003,5.186456e-003
3.498295e+003,5.106076e-003
3.500223e+003,5.125777e-003
3.502152e+003,5.113965e-003
3.504080e+003,5.083003e-003
3.506009e+003,5.028114e-003
3.507937e+003,4.909404e-003
3.509866e+003,4.800396e-003
3.511794e+003,4.830283e-003
3.513723e+003,4.745291e-003
3.515651e+003,4.748638e-003
3.517580e+003,4.732616e-003
3.519508e+003,4.652370e-003
3.521437e+003,4.545838e-003
3.523365e+003,4.473577e-003
3.525294e+003,4.442853e-003
3.527222e+003,4.364577e-003
3.529151e+003,4.267081e-003
3.531079e+003,4.275101e-003
3.533008e+003,4.416429e-003
3.534936e+003,4.316768e-003
3.536865e+003,4.150639e-003
3.538793e+003,4.195073e-003
3.540722e+003,4.301521e-003
3.542650e+003,4.232636e-003
3.544579e+003,4.046780e-003
3.546507e+003,3.991627e-003
3.548436e+003,3.953862e-003
3.550364e+003,3.805279e-003
3.552293e+003,3.771678e-003
3.554221e+003,3.830163e-003
3.556150e+003,3.742981e-003
3.558078e+003,3.654249e-003
3.560007e+003,3.587987e-003
3.561935e+003,3.617234e-003
3.563864e+003,3.604905e-003
3.565792e+003,3.496937e-003
3.567721e+003,3.410156e-003
3.569649e+003,3.413382e-003
3.571578e+003,3.420464e-003
3.573506e+003,3.330735e-003
3.575435e+003,3.206997e-003
3.577363e+003,3.181274e-003
3.579292e+003,3.206087e-003
3.581220e+003,3.150341e-003
3.583149e+003,3.014118e-003
3.585077e+003,2.851780e-003
3.587006e+003,2.795024e-003
3.588934e+003,2.713084e-003
3.590863e+003,2.490652e-003
3.592791e+003,2.508134e-003
3.594720e+003,2.581670e-003
3.596648e+003,2.442962e-003
3.598577e+003,2.399991e-003
3.600505e+003,2.371402e-003
3.602434e+003,2.321736e-003
3.604362e+003,2.179257e-003
3.606291e+003,2.126265e-003
3.608219e+003,2.260444e-003
3.610148e+003,2.435117e-003
3.612076e+003,2.453765e-003
3.614005e+003,2.324381e-003
3.615933e+003,2.151437e-003
3.617862e+003,2.007849e-003
3.619790e+003,1.838327e-003
3.621719e+003,1.798212e-003
3.623647e+003,1.783508e-003
3.625576e+003,1.669768e-003
3.627504e+003,1.589421e-003
3.629433e+003,1.543493e-003
3.631361e+003,1.574476e-003
3.633290e+003,1.702287e-003
3.635218e+003,1.818029e-003
3.637146e+003,1.898810e-003
3.639075e+003,2.014667e-003
3.641004e+003,2.045740e-003
3.642932e+003,2.106640e-003
3.644861e+003,2.239766e-003
3.646789e+003,2.230686e-003
3.648718e+003,2.136136e-003
3.650646e+003,2.005452e-003
3.652574e+003,2.002586e-003
3.654503e+003,2.130547e-003
3.656432e+003,2.052677e-003
3.658360e+003,2.137279e-003
3.660289e+003,2.213916e-003
3.662217e+003,2.182316e-003
3.664146e+003,2.099743e-003
3.666074e+003,2.024744e-003
3.668002e+003,2.020003e-003
3.669931e+003,2.163145e-003
3.671860e+003,2.023761e-003
3.673788e+003,1.902485e-003
3.675717e+003,2.044173e-003
3.677645e+003,2.072479e-003
3.679573e+003,1.856694e-003
3.681502e+003,1.695090e-003
3.683430e+003,1.689844e-003
3.685359e+003,1.748119e-003
3.687288e+003,1.734588e-003
3.689216e+003,1.571012e-003
3.691145e+003,1.429623e-003
3.693073e+003,1.460126e-003
3.695001e+003,1.469617e-003
3.696930e+003,1.237491e-003
3.698858e+003,1.039764e-003
3.700787e+003,1.227856e-003
3.702716e+003,1.258011e-003
3.704644e+003,1.135267e-003
3.706573e+003,1.101003e-003
3.708501e+003,1.184672e-003
3.710429e+003,1.244726e-003
3.712358e+003,1.437463e-003
3.714286e+003,1.549606e-003
3.716215e+003,1.423861e-003
3.718144e+003,1.222341e-003
3.720072e+003,1.012029e-003
3.722000e+003,7.185302e-004
3.723929e+003,5.456610e-004
3.725857e+003,5.748643e-004
3.727786e+003,5.714557e-004
3.729714e+003,4.327832e-004
3.731643e+003,4.049397e-004
3.733572e+003,4.517841e-004
3.735500e+003,6.659974e-004
3.737428e+003,9.862301e-004
3.739357e+003,1.127357e-003
3.741285e+003,1.327841e-003
3.743214e+003,1.562068e-003
3.745142e+003,1.596635e-003
3.747071e+003,1.625212e-003
3.749000e+003,1.705701e-003
3.750928e+003,1.738952e-003
3.752856e+003,1.693407e-003
3.754785e+003,1.554780e-003
3.756713e+003,1.538809e-003
3.758642e+003,1.502026e-003
3.760570e+003,1.620144e-003
3.762499e+003,1.666352e-003
3.764427e+003,1.600354e-003
3.766356e+003,1.560254e-003
3.768284e+003,1.632118e-003
3.770213e+003,1.689460e-003
3.772141e+003,1.697716e-003
3.774070e+003,1.649329e-003
3.775998e+003,1.701206e-003
3.777927e+003,1.690741e-003
3.779855e+003,1.700007e-003
3.781784e+003,1.718728e-003
3.783712e+003,1.644166e-003
3.785641e+003,1.653278e-003
3.787569e+003,1.750387e-003
3.789498e+003,1.705367e-003
3.791426e+003,1.793143e-003
3.793355e+003,1.877656e-003
3.795283e+003,1.787271e-003
3.797212e+003,1.746510e-003
3.799140e+003,1.803652e-003
3.801069e+003,1.842350e-003
3.802997e+003,1.840920e-003
3.804926e+003,1.864023e-003
3.806854e+003,1.757530e-003
3.808783e+003,1.727262e-003
3.810711e+003,1.798888e-003
3.812640e+003,1.803985e-003
3.814568e+003,1.858343e-003
3.816497e+003,1.833167e-003
3.818425e+003,1.754217e-003
3.820354e+003,1.738964e-003
3.822282e+003,1.715722e-003
3.824211e+003,1.780057e-003
3.826139e+003,1.791217e-003
3.828068e+003,1.862981e-003
3.829996e+003,1.765587e-003
3.831925e+003,1.696566e-003
3.833853e+003,1.751119e-003
3.835782e+003,1.791189e-003
3.837710e+003,1.820236e-003
3.839639e+003,1.733046e-003
3.841567e+003,1.739587e-003
3.843496e+003,1.704700e-003
3.845424e+003,1.714623e-003
3.847353e+003,1.776899e-003
3.849281e+003,1.812930e-003
3.851210e+003,1.829435e-003
3.853138e+003,1.822039e-003
3.855067e+003,1.807021e-003
3.856995e+003,1.737596e-003
3.858924e+003,1.778610e-003
3.860852e+003,1.791675e-003
3.862781e+003,1.829799e-003
3.864709e+003,1.765553e-003
3.866638e+003,1.785103e-003
3.868566e+003,1.851446e-003
3.870495e+003,1.805565e-003
3.872423e+003,1.727851e-003
3.874352e+003,1.764640e-003
3.876280e+003,1.808256e-003
3.878209e+003,1.815859e-003
3.880137e+003,1.683565e-003
3.882066e+003,1.701298e-003
3.883994e+003,1.699440e-003
3.885923e+003,1.657850e-003
3.887851e+003,1.597249e-003
3.889780e+003,1.640561e-003
3.891708e+003,1.713754e-003
3.893637e+003,1.742232e-003
3.895565e+003,1.792072e-003
3.897494e+003,1.779401e-003
3.899422e+003,1.734845e-003
3.901351e+003,1.725054e-003
3.903279e+003,1.676054e-003
3.905208e+003,1.658050e-003
3.907136e+003,1.706635e-003
3.909065e+003,1.764783e-003
3.910993e+003,1.760812e-003
3.912922e+003,1.789300e-003
3.914850e+003,1.770967e-003
3.916779e+003,1.703546e-003
3.918707e+003,1.736754e-003
3.920636e+003,1.807286e-003
3.922564e+003,1.780829e-003
3.924493e+003,1.764389e-003
3.926421e+003,1.800280e-003
3.928350e+003,1.774127e-003
3.930278e+003,1.721561e-003
3.932207e+003,1.690077e-003
3.934135e+003,1.728947e-003
3.936064e+003,1.712536e-003
3.937992e+003,1.732819e-003
3.939921e+003,1.740495e-003
3.941849e+003,1.677936e-003
3.943778e+003,1.667301e-003
3.945706e+003,1.743688e-003
3.947635e+003,1.740188e-003
3.949563e+003,1.658432e-003
3.951492e+003,1.747417e-003
3.953420e+003,1.799185e-003
3.955349e+003,1.751011e-003
3.957277e+003,1.759633e-003
3.959206e+003,1.771099e-003
3.961134e+003,1.740332e-003
3.963063e+003,1.718172e-003
3.964991e+003,1.735834e-003
3.966920e+003,1.716366e-003
3.968848e+003,1.743797e-003
3.970777e+003,1.723823e-003
3.972705e+003,1.718785e-003
3.974634e+003,1.755445e-003
3.976562e+003,1.797483e-003
3.978491e+003,1.775315e-003
3.980419e+003,1.740253e-003
3.982348e+003,1.764877e-003
3.984276e+003,1.772395e-003
3.986205e+003,1.765902e-003
3.988133e+003,1.782214e-003
3.990062e+003,1.777936e-003
3.991990e+003,1.688638e-003
3.993919e+003,1.641234e-003
3.995847e+003,1.632948e-003
3.997776e+003,1.655033e-003
3.999704e+003,1.655613e-003
4.001633e+003,0.000000e+000
