3.991989e+002,4.679660e-002
4.011274e+002,4.392987e-002
4.030559e+002,4.392987e-002
4.049844e+002,4.335409e-002
4.069129e+002,4.372495e-002
4.088414e+002,4.673018e-002
4.107699e+002,4.855356e-002
4.126984e+002,4.627646e-002
4.146269e+002,4.566572e-002
4.165554e+002,4.865495e-002
4.184839e+002,5.033678e-002
4.204124e+002,5.019163e-002
4.223409e+002,5.143362e-002
4.242694e+002,5.217577e-002
4.261979e+002,5.184082e-002
4.281264e+002,5.138938e-002
4.300549e+002,5.137524e-002
4.319834e+002,5.139852e-002
4.339119e+002,5.330019e-002
4.358404e+002,5.350695e-002
4.377689e+002,5.290288e-002
4.396974e+002,5.312207e-002
4.416259e+002,5.360692e-002
4.435544e+002,5.336388e-002
4.454829e+002,5.367807e-002
4.474114e+002,5.335485e-002
4.493399e+002,5.285718e-002
4.512684e+002,5.215982e-002
4.531969e+002,5.171252e-002
4.551254e+002,5.170913e-002
4.570539e+002,5.182906e-002
4.589824e+002,5.132385e-002
4.609109e+002,5.149897e-002
4.628394e+002,5.137968e-002
4.647679e+002,5.079685e-002
4.666964e+002,5.097831e-002
4.686249e+002,5.134765e-002
4.705533e+002,5.087019e-002
4.724819e+002,5.063434e-002
4.744103e+002,5.075584e-002
4.763389e+002,5.063125e-002
4.782673e+002,5.010490e-002
4.801959e+002,5.018448e-002
4.821243e+002,5.045161e-002
4.840529e+002,5.087138e-002
4.859813e+002,5.028313e-002
4.879099e+002,4.993830e-002
4.898383e+002,5.004273e-002
4.917668e+002,5.030330e-002
4.936953e+002,5.035456e-002
4.956238e+002,5.027179e-002
4.975523e+002,4.978110e-002
4.994808e+002,4.958587e-002
5.014093e+002,4.991856e-002
5.033378e+002,5.010947e-002
5.052663e+002,5.001354e-002
5.071948e+002,5.009586e-002
5.091233e+002,5.051209e-002
5.110518e+002,5.042307e-002
5.129803e+002,5.069529e-002
5.149088e+002,5.133497e-002
5.168373e+002,5.176172e-002
5.187658e+002,5.177889e-002
5.206943e+002,5.196057e-002
5.226228e+002,5.251386e-002
5.245513e+002,5.260806e-002
5.264798e+002,5.271624e-002
5.284083e+002,5.254048e-002
5.303368e+002,5.268369e-002
5.322653e+002,5.244775e-002
5.341938e+002,5.184310e-002
5.361223e+002,5.179210e-002
5.380508e+002,5.177964e-002
5.399792e+002,5.219546e-002
5.419078e+002,5.269622e-002
5.438363e+002,5.184807e-002
5.457648e+002,5.168442e-002
5.476932e+002,5.232697e-002
5.496218e+002,5.243725e-002
5.515503e+002,5.249479e-002
5.534788e+002,5.295895e-002
5.554072e+002,5.331222e-002
5.573358e+002,5.411625e-002
5.592643e+002,5.457377e-002
5.611927e+002,5.404480e-002
5.631212e+002,5.327521e-002
5.650497e+002,5.284472e-002
5.669783e+002,5.214603e-002
5.689067e+002,5.179972e-002
5.708352e+002,5.165889e-002
5.727637e+002,5.156810e-002
5.746923e+002,5.123854e-002
5.766207e+002,5.103875e-002
5.785492e+002,5.061632e-002
5.804777e+002,5.067280e-002
5.824063e+002,5.080851e-002
5.843347e+002,5.039092e-002
5.862632e+002,5.014324e-002
5.881917e+002,5.024431e-002
5.901202e+002,5.038998e-002
5.920487e+002,5.045233e-002
5.939772e+002,5.031967e-002
5.959057e+002,5.002806e-002
5.978342e+002,4.986139e-002
5.997627e+002,4.970282e-002
6.016912e+002,4.953025e-002
6.036197e+002,4.970960e-002
6.055482e+002,4.968724e-002
6.074767e+002,4.954233e-002
6.094052e+002,4.911319e-002
6.113337e+002,4.869856e-002
6.132622e+002,4.824344e-002
6.151907e+002,4.767388e-002
6.171192e+002,4.735295e-002
6.190477e+002,4.715195e-002
6.209762e+002,4.649160e-002
6.229047e+002,4.557100e-002
6.248332e+002,4.487310e-002
6.267617e+002,4.446720e-002
6.286902e+002,4.375722e-002
6.306187e+002,4.318217e-002
6.325472e+002,4.281741e-002
6.344756e+002,4.266888e-002
6.364042e+002,4.240964e-002
6.383326e+002,4.207243e-002
6.402612e+002,4.159288e-002
6.421896e+002,4.119373e-002
6.441182e+002,4.074782e-002
6.460466e+002,4.070597e-002
6.479752e+002,4.059320e-002
6.499036e+002,4.043881e-002
6.518322e+002,4.025483e-002
6.537606e+002,4.009039e-002
6.556891e+002,3.990931e-002
6.576177e+002,4.018625e-002
6.595461e+002,4.018170e-002
6.614746e+002,4.031828e-002
6.634031e+002,4.062727e-002
6.653317e+002,4.084962e-002
6.672601e+002,4.025998e-002
6.691886e+002,3.990775e-002
6.711171e+002,3.931624e-002
6.730457e+002,3.832442e-002
6.749741e+002,3.734429e-002
6.769026e+002,3.625904e-002
6.788311e+002,3.529967e-002
6.807596e+002,3.438825e-002
6.826881e+002,3.363066e-002
6.846166e+002,3.332633e-002
6.865451e+002,3.294641e-002
6.884736e+002,3.259721e-002
6.904021e+002,3.232193e-002
6.923306e+002,3.217906e-002
6.942591e+002,3.200369e-002
6.961876e+002,3.180126e-002
6.981161e+002,3.163528e-002
7.000446e+002,3.152963e-002
7.019731e+002,3.139561e-002
7.039016e+002,3.118606e-002
7.058301e+002,3.088382e-002
7.077585e+002,3.052892e-002
7.096871e+002,3.042626e-002
7.116156e+002,3.019668e-002
7.135441e+002,2.999783e-002
7.154725e+002,2.979726e-002
7.174011e+002,2.952969e-002
7.193296e+002,2.923739e-002
7.212581e+002,2.889225e-002
7.231865e+002,2.863068e-002
7.251151e+002,2.838271e-002
7.270436e+002,2.800904e-002
7.289720e+002,2.767869e-002
7.309005e+002,2.742709e-002
7.328290e+002,2.726481e-002
7.347576e+002,2.697433e-002
7.366860e+002,2.665750e-002
7.386145e+002,2.643983e-002
7.405430e+002,2.614653e-002
7.424716e+002,2.591186e-002
7.444000e+002,2.577638e-002
7.463285e+002,2.564455e-002
7.482570e+002,2.537510e-002
7.501855e+002,2.508961e-002
7.521140e+002,2.485421e-002
7.540425e+002,2.465598e-002
7.559710e+002,2.454046e-002
7.578995e+002,2.435991e-002
7.598280e+002,2.407994e-002
7.617565e+002,2.383747e-002
7.636850e+002,2.358758e-002
7.656135e+002,2.343848e-002
7.675420e+002,2.322527e-002
7.694705e+002,2.308170e-002
7.713990e+002,2.296274e-002
7.733275e+002,2.284626e-002
7.752560e+002,2.279482e-002
7.771844e+002,2.274055e-002
7.791130e+002,2.262922e-002
7.810415e+002,2.259941e-002
7.829700e+002,2.248882e-002
7.848984e+002,2.236531e-002
7.868270e+002,2.228592e-002
7.887555e+002,2.232941e-002
7.906840e+002,2.237162e-002
7.926124e+002,2.221836e-002
7.945410e+002,2.200760e-002
7.964695e+002,2.193884e-002
7.983979e+002,2.206801e-002
8.003264e+002,2.218283e-002
8.022549e+002,2.211463e-002
8.041835e+002,2.206739e-002
8.061119e+002,2.196825e-002
8.080404e+002,2.195839e-002
8.099689e+002,2.195717e-002
8.118975e+002,2.204738e-002
8.138259e+002,2.206456e-002
8.157545e+002,2.205264e-002
8.176830e+002,2.201241e-002
8.196115e+002,2.210253e-002
8.215399e+002,2.222234e-002
8.234684e+002,2.220410e-002
8.253970e+002,2.223437e-002
8.273254e+002,2.232397e-002
8.292539e+002,2.250142e-002
8.311824e+002,2.271346e-002
8.331110e+002,2.285928e-002
8.350394e+002,2.283676e-002
8.369679e+002,2.272935e-002
8.388964e+002,2.248114e-002
8.408250e+002,2.222806e-002
8.427534e+002,2.209217e-002
8.446819e+002,2.193176e-002
8.466104e+002,2.174880e-002
8.485389e+002,2.166994e-002
8.504674e+002,2.159618e-002
8.523959e+002,2.155324e-002
8.543244e+002,2.167054e-002
8.562529e+002,2.169018e-002
8.581814e+002,2.166545e-002
8.601099e+002,2.177385e-002
8.620384e+002,2.184785e-002
8.639669e+002,2.184485e-002
8.658954e+002,2.191852e-002
8.678239e+002,2.210134e-002
8.697524e+002,2.224870e-002
8.716809e+002,2.234888e-002
8.736094e+002,2.251230e-002
8.755378e+002,2.271423e-002
8.774664e+002,2.295418e-002
8.793949e+002,2.315617e-002
8.813234e+002,2.342785e-002
8.832518e+002,2.385169e-002
8.851804e+002,2.446978e-002
8.871089e+002,2.507949e-002
8.890374e+002,2.577521e-002
8.909658e+002,2.659211e-002
8.928943e+002,2.726115e-002
8.948229e+002,2.771379e-002
8.967513e+002,2.787476e-002
8.986798e+002,2.781121e-002
9.006083e+002,2.740893e-002
9.025369e+002,2.689153e-002
9.044653e+002,2.641922e-002
9.063938e+002,2.597781e-002
9.083223e+002,2.553513e-002
9.102509e+002,2.524286e-002
9.121793e+002,2.510017e-002
9.141078e+002,2.498237e-002
9.160364e+002,2.493577e-002
9.179648e+002,2.505836e-002
9.198933e+002,2.525508e-002
9.218218e+002,2.536575e-002
9.237504e+002,2.554807e-002
9.256788e+002,2.578062e-002
9.276073e+002,2.604237e-002
9.295358e+002,2.635292e-002
9.314644e+002,2.668325e-002
9.333928e+002,2.705150e-002
9.353213e+002,2.741775e-002
9.372498e+002,2.786787e-002
9.391783e+002,2.837780e-002
9.411068e+002,2.900100e-002
9.430353e+002,2.975661e-002
9.449637e+002,3.055993e-002
9.468923e+002,3.146479e-002
9.488208e+002,3.234698e-002
9.507493e+002,3.328419e-002
9.526777e+002,3.424071e-002
9.546063e+002,3.528753e-002
9.565348e+002,3.647026e-002
9.584633e+002,3.767874e-002
9.603917e+002,3.878312e-002
9.623203e+002,3.992304e-002
9.642488e+002,4.102138e-002
9.661772e+002,4.204549e-002
9.681057e+002,4.311632e-002
9.700343e+002,4.423654e-002
9.719628e+002,4.534977e-002
9.738912e+002,4.659158e-002
9.758197e+002,4.802069e-002
9.777483e+002,4.960998e-002
9.796768e+002,5.136969e-002
9.816052e+002,5.341491e-002
9.835337e+002,5.549997e-002
9.854623e+002,5.737144e-002
9.873907e+002,5.892627e-002
9.893192e+002,6.009565e-002
9.912477e+002,6.077227e-002
9.931763e+002,6.116411e-002
9.951047e+002,6.144709e-002
9.970332e+002,6.179247e-002
9.989617e+002,6.242339e-002
1.000890e+003,6.343341e-002
1.002819e+003,6.442422e-002
1.004747e+003,6.538868e-002
1.006676e+003,6.640740e-002
1.008604e+003,6.741904e-002
1.010533e+003,6.847167e-002
1.012461e+003,6.965625e-002
1.014390e+003,7.097848e-002
1.016318e+003,7.254208e-002
1.018247e+003,7.408060e-002
1.020175e+003,7.569093e-002
1.022104e+003,7.726561e-002
1.024032e+003,7.883628e-002
1.025961e+003,8.039093e-002
1.027889e+003,8.202912e-002
1.029818e+003,8.359638e-002
1.031746e+003,8.491691e-002
1.033675e+003,8.564503e-002
1.035603e+003,8.568773e-002
1.037532e+003,8.494523e-002
1.039460e+003,8.372401e-002
1.041389e+003,8.239820e-002
1.043317e+003,8.149742e-002
1.045246e+003,8.098806e-002
1.047174e+003,8.072307e-002
1.049103e+003,8.054794e-002
1.051031e+003,8.043770e-002
1.052960e+003,8.011052e-002
1.054888e+003,7.938780e-002
1.056817e+003,7.821576e-002
1.058745e+003,7.689156e-002
1.060674e+003,7.520330e-002
1.062602e+003,7.318313e-002
1.064531e+003,7.091130e-002
1.066459e+003,6.864635e-002
1.068388e+003,6.654247e-002
1.070316e+003,6.469072e-002
1.072245e+003,6.301423e-002
1.074173e+003,6.147442e-002
1.076102e+003,5.991076e-002
1.078030e+003,5.835502e-002
1.079959e+003,5.678497e-002
1.081887e+003,5.536125e-002
1.083816e+003,5.423918e-002
1.085744e+003,5.343777e-002
1.087673e+003,5.288630e-002
1.089601e+003,5.249000e-002
1.091530e+003,5.209201e-002
1.093458e+003,5.179830e-002
1.095387e+003,5.161086e-002
1.097315e+003,5.159810e-002
1.099244e+003,5.172043e-002
1.101172e+003,5.191445e-002
1.103101e+003,5.201159e-002
1.105029e+003,5.192099e-002
1.106958e+003,5.145197e-002
1.108886e+003,5.064249e-002
1.110815e+003,4.949113e-002
1.112743e+003,4.807594e-002
1.114672e+003,4.645589e-002
1.116600e+003,4.484642e-002
1.118529e+003,4.347548e-002
1.120457e+003,4.234067e-002
1.122386e+003,4.119418e-002
1.124314e+003,3.987836e-002
1.126243e+003,3.839394e-002
1.128171e+003,3.682995e-002
1.130100e+003,3.523025e-002
1.132028e+003,3.372081e-002
1.133957e+003,3.230932e-002
1.135885e+003,3.111411e-002
1.137814e+003,3.020912e-002
1.139742e+003,2.968952e-002
1.141671e+003,2.953443e-002
1.143599e+003,2.974770e-002
1.145528e+003,3.019520e-002
1.147456e+003,3.078558e-002
1.149385e+003,3.148766e-002
1.151313e+003,3.233352e-002
1.153242e+003,3.318797e-002
1.155170e+003,3.399319e-002
1.157099e+003,3.472836e-002
1.159027e+003,3.521329e-002
1.160956e+003,3.527546e-002
1.162884e+003,3.490847e-002
1.164813e+003,3.399405e-002
1.166741e+003,3.260885e-002
1.168670e+003,3.089532e-002
1.170598e+003,2.904231e-002
1.172526e+003,2.710027e-002
1.174455e+003,2.527110e-002
1.176384e+003,2.371186e-002
1.178312e+003,2.245246e-002
1.180240e+003,2.135130e-002
1.182169e+003,2.044783e-002
1.184098e+003,1.974287e-002
1.186026e+003,1.925249e-002
1.187954e+003,1.896617e-002
1.189883e+003,1.892237e-002
1.191812e+003,1.907846e-002
1.193740e+003,1.932698e-002
1.195668e+003,1.970728e-002
1.197597e+003,2.015541e-002
1.199526e+003,2.058615e-002
1.201454e+003,2.088166e-002
1.203382e+003,2.101319e-002
1.205311e+003,2.098091e-002
1.207240e+003,2.088047e-002
1.209168e+003,2.083500e-002
1.211096e+003,2.092228e-002
1.213025e+003,2.115687e-002
1.214953e+003,2.148486e-002
1.216882e+003,2.191719e-002
1.218810e+003,2.236031e-002
1.220739e+003,2.287221e-002
1.222667e+003,2.345796e-002
1.224596e+003,2.405587e-002
1.226524e+003,2.464876e-002
1.228453e+003,2.519302e-002
1.230381e+003,2.566283e-002
1.232310e+003,2.605244e-002
1.234238e+003,2.632199e-002
1.236167e+003,2.649019e-002
1.238095e+003,2.660451e-002
1.240024e+003,2.668963e-002
1.241952e+003,2.664184e-002
1.243881e+003,2.649226e-002
1.245809e+003,2.627588e-002
1.247738e+003,2.604281e-002
1.249666e+003,2.575835e-002
1.251595e+003,2.545963e-002
1.253523e+003,2.512546e-002
1.255452e+003,2.474604e-002
1.257380e+003,2.437762e-002
1.259309e+003,2.400197e-002
1.261237e+003,2.354760e-002
1.263166e+003,2.310819e-002
1.265094e+003,2.256334e-002
1.267023e+003,2.194442e-002
1.268951e+003,2.141953e-002
1.270880e+003,2.095091e-002
1.272808e+003,2.047454e-002
1.274737e+003,2.001397e-002
1.276665e+003,1.960723e-002
1.278594e+003,1.926546e-002
1.280522e+003,1.901743e-002
1.282451e+003,1.872417e-002
1.284379e+003,1.844417e-002
1.286308e+003,1.817782e-002
1.288236e+003,1.794075e-002
1.290165e+003,1.785615e-002
1.292093e+003,1.788650e-002
1.294022e+003,1.798929e-002
1.295950e+003,1.811768e-002
1.297879e+003,1.832578e-002
1.299807e+003,1.861710e-002
1.301736e+003,1.900112e-002
1.303664e+003,1.942499e-002
1.305593e+003,1.988320e-002
1.307521e+003,2.034387e-002
1.309450e+003,2.078164e-002
1.311378e+003,2.117112e-002
1.313307e+003,2.159464e-002
1.315235e+003,2.188241e-002
1.317164e+003,2.195792e-002
1.319092e+003,2.190130e-002
1.321021e+003,2.176501e-002
1.322949e+003,2.155296e-002
1.324878e+003,2.131348e-002
1.326806e+003,2.114706e-002
1.328735e+003,2.103940e-002
1.330663e+003,2.095692e-002
1.332592e+003,2.085434e-002
1.334520e+003,2.072642e-002
1.336449e+003,2.051624e-002
1.338377e+003,2.023070e-002
1.340306e+003,1.996440e-002
1.342234e+003,1.973138e-002
1.344163e+003,1.956995e-002
1.346091e+003,1.946243e-002
1.348020e+003,1.950368e-002
1.349948e+003,1.964479e-002
1.351877e+003,1.981806e-002
1.353805e+003,2.006419e-002
1.355734e+003,2.029552e-002
1.357662e+003,2.055863e-002
1.359591e+003,2.085917e-002
1.361519e+003,2.108958e-002
1.363448e+003,2.133415e-002
1.365376e+003,2.157906e-002
1.367305e+003,2.167970e-002
1.369233e+003,2.166010e-002
1.371162e+003,2.149967e-002
1.373090e+003,2.123755e-002
1.375019e+003,2.094591e-002
1.376947e+003,2.050288e-002
1.378876e+003,1.996205e-002
1.380804e+003,1.935471e-002
1.382733e+003,1.872846e-002
1.384661e+003,1.814547e-002
1.386590e+003,1.766655e-002
1.388518e+003,1.730884e-002
1.390447e+003,1.699362e-002
1.392375e+003,1.675543e-002
1.394304e+003,1.662088e-002
1.396232e+003,1.654203e-002
1.398161e+003,1.652923e-002
1.400089e+003,1.655948e-002
1.402018e+003,1.656673e-002
1.403946e+003,1.660523e-002
1.405875e+003,1.673280e-002
1.407803e+003,1.690181e-002
1.409732e+003,1.708977e-002
1.411660e+003,1.736605e-002
1.413589e+003,1.765469e-002
1.415517e+003,1.794926e-002
1.417446e+003,1.824085e-002
1.419374e+003,1.849972e-002
1.421303e+003,1.869467e-002
1.423231e+003,1.872736e-002
1.425160e+003,1.872254e-002
1.427088e+003,1.856766e-002
1.429017e+003,1.831795e-002
1.430945e+003,1.802026e-002
1.432874e+003,1.765648e-002
1.434802e+003,1.727390e-002
1.436731e+003,1.701383e-002
1.438659e+003,1.678623e-002
1.440588e+003,1.658665e-002
1.442516e+003,1.644942e-002
1.444445e+003,1.640994e-002
1.446373e+003,1.644095e-002
1.448302e+003,1.654405e-002
1.450230e+003,1.657325e-002
1.452159e+003,1.656648e-002
1.454087e+003,1.651624e-002
1.456016e+003,1.641587e-002
1.457944e+003,1.629622e-002
1.459873e+003,1.615053e-002
1.461801e+003,1.602077e-002
1.463730e+003,1.578407e-002
1.465658e+003,1.541596e-002
1.467587e+003,1.486038e-002
1.469515e+003,1.413972e-002
1.471444e+003,1.339980e-002
1.473372e+003,1.280373e-002
1.475301e+003,1.228200e-002
1.477229e+003,1.188967e-002
1.479158e+003,1.160439e-002
1.481086e+003,1.143053e-002
1.483015e+003,1.138063e-002
1.484943e+003,1.136833e-002
1.486872e+003,1.141585e-002
1.488800e+003,1.154387e-002
1.490729e+003,1.184021e-002
1.492657e+003,1.212502e-002
1.494586e+003,1.237338e-002
1.496514e+003,1.264983e-002
1.498443e+003,1.289923e-002
1.500371e+003,1.309521e-002
1.502300e+003,1.322899e-002
1.504228e+003,1.334072e-002
1.506157e+003,1.336911e-002
1.508085e+003,1.341460e-002
1.510014e+003,1.337484e-002
1.511942e+003,1.335588e-002
1.513871e+003,1.328965e-002
1.515799e+003,1.301275e-002
1.517728e+003,1.255818e-002
1.519656e+003,1.213920e-002
1.521585e+003,1.176971e-002
1.523513e+003,1.145092e-002
1.525442e+003,1.122675e-002
1.527370e+003,1.113222e-002
1.529299e+003,1.109102e-002
1.531227e+003,1.101188e-002
1.533156e+003,1.097188e-002
1.535084e+003,1.102331e-002
1.537013e+003,1.103616e-002
1.538941e+003,1.107244e-002
1.540870e+003,1.107909e-002
1.542798e+003,1.104708e-002
1.544727e+003,1.108383e-002
1.546655e+003,1.115366e-002
1.548584e+003,1.115693e-002
1.550512e+003,1.121485e-002
1.552441e+003,1.129519e-002
1.554369e+003,1.129839e-002
1.556298e+003,1.131185e-002
1.558226e+003,1.136679e-002
1.560155e+003,1.154584e-002
1.562083e+003,1.151236e-002
1.564012e+003,1.157485e-002
1.565940e+003,1.176010e-002
1.567869e+003,1.187640e-002
1.569797e+003,1.202636e-002
1.571726e+003,1.228459e-002
1.573654e+003,1.251813e-002
1.575583e+003,1.287220e-002
1.577511e+003,1.315724e-002
1.579440e+003,1.341194e-002
1.581368e+003,1.383299e-002
1.583297e+003,1.423711e-002
1.585225e+003,1.464525e-002
1.587154e+003,1.506809e-002
1.589082e+003,1.542915e-002
1.591010e+003,1.570137e-002
1.592939e+003,1.589006e-002
1.594868e+003,1.597833e-002
1.596796e+003,1.603413e-002
1.598724e+003,1.612018e-002
1.600653e+003,1.617654e-002
1.602582e+003,1.622260e-002
1.604510e+003,1.617500e-002
1.606438e+003,1.602594e-002
1.608367e+003,1.582509e-002
1.610296e+003,1.568524e-002
1.612224e+003,1.560906e-002
1.614152e+003,1.556646e-002
1.616081e+003,1.562974e-002
1.618010e+003,1.571457e-002
1.619938e+003,1.576295e-002
1.621866e+003,1.583817e-002
1.623795e+003,1.596158e-002
1.625724e+003,1.601911e-002
1.627652e+003,1.604286e-002
1.629580e+003,1.607047e-002
1.631509e+003,1.599693e-002
1.633438e+003,1.588317e-002
1.635366e+003,1.579216e-002
1.637294e+003,1.564725e-002
1.639223e+003,1.546489e-002
1.641151e+003,1.540197e-002
1.643080e+003,1.532389e-002
1.645008e+003,1.529034e-002
1.646937e+003,1.523379e-002
1.648865e+003,1.521649e-002
1.650794e+003,1.522643e-002
1.652722e+003,1.519028e-002
1.654651e+003,1.510220e-002
1.656579e+003,1.488460e-002
1.658508e+003,1.465148e-002
1.660436e+003,1.435513e-002
1.662365e+003,1.403498e-002
1.664293e+003,1.379235e-002
1.666222e+003,1.351191e-002
1.668150e+003,1.321904e-002
1.670079e+003,1.298582e-002
1.672007e+003,1.275653e-002
1.673936e+003,1.249735e-002
1.675864e+003,1.238154e-002
1.677793e+003,1.223216e-002
1.679721e+003,1.209966e-002
1.681650e+003,1.191843e-002
1.683578e+003,1.184078e-002
1.685507e+003,1.189806e-002
1.687435e+003,1.171002e-002
1.689364e+003,1.162810e-002
1.691292e+003,1.160939e-002
1.693221e+003,1.163095e-002
1.695149e+003,1.167686e-002
1.697078e+003,1.165065e-002
1.699006e+003,1.151246e-002
1.700935e+003,1.152366e-002
1.702863e+003,1.148653e-002
1.704792e+003,1.150060e-002
1.706720e+003,1.152469e-002
1.708649e+003,1.157061e-002
1.710577e+003,1.163085e-002
1.712506e+003,1.177224e-002
1.714434e+003,1.185377e-002
1.716363e+003,1.197024e-002
1.718291e+003,1.208396e-002
1.720220e+003,1.221132e-002
1.722148e+003,1.234445e-002
1.724077e+003,1.247235e-002
1.726005e+003,1.257778e-002
1.727934e+003,1.263951e-002
1.729862e+003,1.266246e-002
1.731791e+003,1.268070e-002
1.733719e+003,1.259399e-002
1.735648e+003,1.241222e-002
1.737576e+003,1.207397e-002
1.739505e+003,1.182021e-002
1.741433e+003,1.150731e-002
1.743362e+003,1.109931e-002
1.745290e+003,1.071771e-002
1.747219e+003,1.035279e-002
1.749147e+003,1.006473e-002
1.751076e+003,9.806498e-003
1.753004e+003,9.470695e-003
1.754933e+003,9.112652e-003
1.756861e+003,8.837896e-003
1.758790e+003,8.631364e-003
1.760718e+003,8.385528e-003
1.762647e+003,8.206764e-003
1.764575e+003,8.059205e-003
1.766504e+003,7.888833e-003
1.768432e+003,7.837331e-003
1.770361e+003,7.716261e-003
1.772289e+003,7.662531e-003
1.774218e+003,7.669751e-003
1.776146e+003,7.535733e-003
1.778075e+003,7.519319e-003
1.780003e+003,7.527608e-003
1.781932e+003,7.557135e-003
1.783860e+003,7.552514e-003
1.785789e+003,7.550931e-003
1.787717e+003,7.601898e-003
1.789646e+003,7.558775e-003
1.791574e+003,7.501160e-003
1.793503e+003,7.574809e-003
1.795431e+003,7.567996e-003
1.797360e+003,7.625670e-003
1.799288e+003,7.650420e-003
1.801217e+003,7.665418e-003
1.803145e+003,7.666524e-003
1.805074e+003,7.660745e-003
1.807002e+003,7.596854e-003
1.808931e+003,7.551834e-003
1.810859e+003,7.525854e-003
1.812788e+003,7.607050e-003
1.814716e+003,7.621929e-003
1.816645e+003,7.565869e-003
1.818573e+003,7.537398e-003
1.820502e+003,7.531694e-003
1.822430e+003,7.492171e-003
1.824359e+003,7.587000e-003
1.826287e+003,7.612684e-003
1.828216e+003,7.597049e-003
1.830144e+003,7.555925e-003
1.832073e+003,7.587982e-003
1.834001e+003,7.615927e-003
1.835930e+003,7.617220e-003
1.837858e+003,7.539537e-003
1.839787e+003,7.572768e-003
1.841715e+003,7.498115e-003
1.843644e+003,7.384260e-003
1.845572e+003,7.319121e-003
1.847501e+003,7.431856e-003
1.849429e+003,7.550543e-003
1.851358e+003,7.510853e-003
1.853286e+003,7.432002e-003
1.855215e+003,7.524031e-003
1.857143e+003,7.659763e-003
1.859072e+003,7.613488e-003
1.861000e+003,7.517044e-003
1.862929e+003,7.609825e-003
1.864857e+003,7.541323e-003
1.866786e+003,7.532906e-003
1.868714e+003,7.505131e-003
1.870643e+003,7.462978e-003
1.872571e+003,7.659109e-003
1.874500e+003,7.747977e-003
1.876428e+003,7.650297e-003
1.878357e+003,7.629575e-003
1.880285e+003,7.554278e-003
1.882214e+003,7.593609e-003
1.884142e+003,7.740618e-003
1.886071e+003,7.731424e-003
1.887999e+003,7.719681e-003
1.889928e+003,7.869148e-003
1.891856e+003,7.822366e-003
1.893785e+003,7.756437e-003
1.895713e+003,7.645116e-003
1.897642e+003,7.617443e-003
1.899570e+003,7.746983e-003
1.901499e+003,7.878688e-003
1.903427e+003,7.911255e-003
1.905356e+003,7.666391e-003
1.907284e+003,7.628534e-003
1.909213e+003,7.738627e-003
1.911141e+003,7.679542e-003
1.913070e+003,7.604391e-003
1.914998e+003,7.473107e-003
1.916927e+003,7.447547e-003
1.918855e+003,7.513045e-003
1.920784e+003,7.672344e-003
1.922712e+003,7.717557e-003
1.924641e+003,7.942686e-003
1.926569e+003,7.818922e-003
1.928498e+003,7.596374e-003
1.930426e+003,7.498986e-003
1.932355e+003,7.344485e-003
1.934283e+003,7.108879e-003
1.936212e+003,7.401957e-003
1.938140e+003,7.842069e-003
1.940069e+003,7.938068e-003
1.941997e+003,7.379086e-003
1.943926e+003,6.985621e-003
1.945854e+003,7.425758e-003
1.947783e+003,7.480915e-003
1.949711e+003,6.850884e-003
1.951640e+003,6.587521e-003
1.953568e+003,6.936498e-003
1.955497e+003,6.711788e-003
1.957425e+003,5.571784e-003
1.959354e+003,5.655219e-003
1.961282e+003,6.160089e-003
1.963211e+003,5.890844e-003
1.965139e+003,5.079058e-003
1.967068e+003,4.559309e-003
1.968996e+003,3.790491e-003
1.970925e+003,3.908005e-003
1.972853e+003,4.665040e-003
1.974782e+003,4.805697e-003
1.976710e+003,4.227598e-003
1.978639e+003,4.015348e-003
1.980567e+003,5.182197e-003
1.982496e+003,5.400981e-003
1.984424e+003,4.977612e-003
1.986353e+003,4.914166e-003
1.988281e+003,4.656796e-003
1.990210e+003,4.613806e-003
1.992138e+003,4.825566e-003
1.994067e+003,5.596079e-003
1.995995e+003,5.595683e-003
1.997924e+003,4.384484e-003
1.999852e+003,4.448744e-003
2.001781e+003,5.229102e-003
2.003709e+003,4.843625e-003
2.005638e+003,3.459405e-003
2.007566e+003,2.902882e-003
2.009495e+003,3.390003e-003
2.011423e+003,2.809644e-003
2.013352e+003,2.565185e-003
2.015280e+003,3.191467e-003
2.017208e+003,2.468118e-003
2.019137e+003,1.471610e-003
2.021066e+003,1.273675e-003
2.022994e+003,1.052307e-003
2.024922e+003,9.446988e-004
2.026851e+003,1.044246e-003
2.028780e+003,1.242872e-003
2.030708e+003,5.741168e-004
2.032636e+003,2.438044e-004
2.034565e+003,2.608295e-004
2.036494e+003,6.845237e-004
2.038422e+003,1.278108e-003
2.040350e+003,1.228519e-003
2.042279e+003,8.344452e-004
2.044208e+003,6.225331e-004
2.046136e+003,1.138373e-003
2.048064e+003,1.792932e-003
2.049993e+003,2.350412e-003
2.051921e+003,3.057486e-003
2.053850e+003,3.419659e-003
2.055778e+003,3.600975e-003
2.057707e+003,3.464221e-003
2.059635e+003,3.295545e-003
2.061564e+003,3.586667e-003
2.063492e+003,3.935562e-003
2.065421e+003,4.084816e-003
2.067349e+003,3.892044e-003
2.069278e+003,4.054659e-003
2.071206e+003,4.512120e-003
2.073135e+003,4.825706e-003
2.075063e+003,4.857499e-003
2.076992e+003,4.790419e-003
2.078920e+003,4.783399e-003
2.080849e+003,4.892685e-003
2.082777e+003,5.211006e-003
2.084706e+003,5.459954e-003
2.086634e+003,5.453292e-003
2.088563e+003,5.632580e-003
2.090491e+003,5.583800e-003
2.092420e+003,5.437777e-003
2.094348e+003,5.351710e-003
2.096277e+003,5.459489e-003
2.098205e+003,5.838085e-003
2.100134e+003,5.741882e-003
2.102062e+003,5.881946e-003
2.103991e+003,5.887554e-003
2.105919e+003,6.144397e-003
2.107848e+003,6.216757e-003
2.109776e+003,6.309402e-003
2.111705e+003,6.461251e-003
2.113633e+003,6.509951e-003
2.115562e+003,6.595761e-003
2.117490e+003,6.590950e-003
2.119419e+003,6.321639e-003
2.121347e+003,6.420257e-003
2.123276e+003,6.397997e-003
2.125204e+003,6.243547e-003
2.127133e+003,6.460411e-003
2.129061e+003,6.358959e-003
2.130990e+003,5.749470e-003
2.132918e+003,5.932630e-003
2.134847e+003,5.733421e-003
2.136775e+003,5.129167e-003
2.138704e+003,5.120584e-003
2.140632e+003,5.434074e-003
2.142561e+003,5.525142e-003
2.144489e+003,4.967929e-003
2.146418e+003,4.192476e-003
2.148346e+003,3.442951e-003
2.150275e+003,3.146881e-003
2.152203e+003,2.401556e-003
2.154132e+003,1.200514e-003
2.156060e+003,1.508260e-003
2.157989e+003,1.588465e-003
2.159917e+003,6.030272e-004
2.161846e+003,9.262219e-004
2.163774e+003,1.999131e-003
2.165703e+003,2.123342e-003
2.167631e+003,2.187442e-003
2.169560e+003,1.902543e-003
2.171488e+003,1.941415e-003
2.173417e+003,2.103464e-003
2.175345e+003,2.621809e-003
2.177274e+003,2.844275e-003
2.179202e+003,2.679949e-003
2.181131e+003,2.685583e-003
2.183059e+003,2.971064e-003
2.184988e+003,3.294423e-003
2.186916e+003,2.833069e-003
2.188845e+003,2.385464e-003
2.190773e+003,2.646178e-003
2.192702e+003,2.991815e-003
2.194630e+003,3.593935e-003
2.196559e+003,3.729365e-003
2.198487e+003,3.863566e-003
2.200416e+003,3.992592e-003
2.202344e+003,3.929963e-003
2.204273e+003,3.944341e-003
2.206201e+003,4.208702e-003
2.208130e+003,4.012656e-003
2.210058e+003,3.407251e-003
2.211987e+003,3.178722e-003
2.213915e+003,3.390019e-003
2.215844e+003,3.863533e-003
2.217772e+003,3.950459e-003
2.219701e+003,3.537978e-003
2.221629e+003,3.678570e-003
2.223558e+003,3.884560e-003
2.225486e+003,4.321901e-003
2.227415e+003,4.379699e-003
2.229343e+003,4.397673e-003
2.231272e+003,4.653481e-003
2.233200e+003,4.597934e-003
2.235129e+003,4.799187e-003
2.237057e+003,4.977584e-003
2.238986e+003,5.171645e-003
2.240914e+003,5.314886e-003
2.242843e+003,5.293216e-003
2.244771e+003,5.292729e-003
2.246700e+003,5.279522e-003
2.248628e+003,5.499306e-003
2.250557e+003,5.333513e-003
2.252485e+003,5.263438e-003
2.254414e+003,5.371626e-003
2.256342e+003,5.369146e-003
2.258271e+003,5.516194e-003
2.260199e+003,5.299327e-003
2.262128e+003,5.354005e-003
2.264056e+003,5.421678e-003
2.265985e+003,5.193914e-003
2.267913e+003,5.177555e-003
2.269842e+003,5.464252e-003
2.271770e+003,5.939645e-003
2.273699e+003,6.268646e-003
2.275627e+003,6.407482e-003
2.277556e+003,6.708913e-003
2.279484e+003,6.754693e-003
2.281413e+003,6.784101e-003
2.283341e+003,6.936776e-003
2.285270e+003,6.936056e-003
2.287198e+003,7.060949e-003
2.289127e+003,7.317805e-003
2.291055e+003,7.329425e-003
2.292984e+003,7.423321e-003
2.294912e+003,7.671700e-003
2.296841e+003,7.671461e-003
2.298769e+003,7.574326e-003
2.300698e+003,7.687954e-003
2.302626e+003,7.984513e-003
2.304555e+003,8.009499e-003
2.306483e+003,8.104054e-003
2.308412e+003,8.166629e-003
2.310340e+003,8.228298e-003
2.312269e+003,8.465225e-003
2.314197e+003,8.555913e-003
2.316125e+003,8.577187e-003
2.318054e+003,8.469327e-003
2.319983e+003,8.454107e-003
2.321911e+003,8.643927e-003
2.323840e+003,8.974358e-003
2.325768e+003,9.154400e-003
2.327697e+003,9.030154e-003
2.329625e+003,8.975887e-003
2.331553e+003,9.015532e-003
2.333482e+003,9.044741e-003
2.335411e+003,8.951311e-003
2.337339e+003,8.862117e-003
2.339268e+003,8.734491e-003
2.341196e+003,8.424676e-003
2.343125e+003,8.598340e-003
2.345053e+003,8.347533e-003
2.346981e+003,7.991164e-003
2.348910e+003,7.937839e-003
2.350839e+003,7.721012e-003
2.352767e+003,7.603718e-003
2.354696e+003,7.542000e-003
2.356624e+003,7.518386e-003
2.358552e+003,7.317236e-003
2.360481e+003,7.273572e-003
2.362409e+003,7.179024e-003
2.364338e+003,7.291400e-003
2.366267e+003,7.146642e-003
2.368195e+003,6.867772e-003
2.370124e+003,6.988998e-003
2.372052e+003,7.317596e-003
2.373980e+003,7.424108e-003
2.375909e+003,7.619792e-003
2.377838e+003,7.657681e-003
2.379766e+003,7.527770e-003
2.381695e+003,7.527363e-003
2.383623e+003,7.571494e-003
2.385552e+003,7.524334e-003
2.387480e+003,7.556006e-003
2.389408e+003,7.599511e-003
2.391337e+003,7.611242e-003
2.393266e+003,7.700216e-003
2.395194e+003,7.755718e-003
2.397123e+003,7.675633e-003
2.399051e+003,7.631247e-003
2.400979e+003,7.725484e-003
2.402908e+003,7.743901e-003
2.404836e+003,7.754256e-003
2.406765e+003,7.800470e-003
2.408694e+003,7.832350e-003
2.410622e+003,7.753783e-003
2.412551e+003,7.705517e-003
2.414479e+003,7.660764e-003
2.416407e+003,7.629638e-003
2.418336e+003,7.585634e-003
2.420264e+003,7.677255e-003
2.422193e+003,7.526227e-003
2.424122e+003,7.452637e-003
2.426050e+003,7.564257e-003
2.427979e+003,7.591332e-003
2.429907e+003,7.511461e-003
2.431835e+003,7.493560e-003
2.433764e+003,7.579295e-003
2.435692e+003,7.595615e-003
2.437621e+003,7.480312e-003
2.439550e+003,7.247811e-003
2.441478e+003,7.200039e-003
2.443406e+003,7.269610e-003
2.445335e+003,7.277191e-003
2.447263e+003,7.158099e-003
2.449192e+003,7.139203e-003
2.451121e+003,7.184711e-003
2.453049e+003,7.320557e-003
2.454978e+003,7.402618e-003
2.456906e+003,7.340001e-003
2.458834e+003,7.223520e-003
2.460763e+003,7.308090e-003
2.462691e+003,7.408853e-003
2.464620e+003,7.418728e-003
2.466549e+003,7.390788e-003
2.468477e+003,7.378150e-003
2.470406e+003,7.349572e-003
2.472334e+003,7.301620e-003
2.474262e+003,7.296936e-003
2.476191e+003,7.320221e-003
2.478119e+003,7.346741e-003
2.480048e+003,7.256807e-003
2.481977e+003,7.228439e-003
2.483905e+003,7.242353e-003
2.485833e+003,7.367399e-003
2.487762e+003,7.352874e-003
2.489690e+003,7.304787e-003
2.491619e+003,7.216445e-003
2.493547e+003,7.292792e-003
2.495476e+003,7.318535e-003
2.497405e+003,7.280190e-003
2.499333e+003,7.431840e-003
2.501261e+003,7.431099e-003
2.503190e+003,7.370095e-003
2.505118e+003,7.373836e-003
2.507047e+003,7.424155e-003
2.508975e+003,7.430997e-003
2.510904e+003,7.369185e-003
2.512833e+003,7.368983e-003
2.514761e+003,7.485908e-003
2.516689e+003,7.442120e-003
2.518618e+003,7.247204e-003
2.520546e+003,7.230528e-003
2.522475e+003,7.442491e-003
2.524403e+003,7.589140e-003
2.526332e+003,7.537757e-003
2.528260e+003,7.424492e-003
2.530189e+003,7.507483e-003
2.532117e+003,7.527845e-003
2.534046e+003,7.539881e-003
2.535974e+003,7.419403e-003
2.537903e+003,7.386508e-003
2.539831e+003,7.541904e-003
2.541760e+003,7.480312e-003
2.543688e+003,7.392777e-003
2.545617e+003,7.407303e-003
2.547545e+003,7.375656e-003
2.549474e+003,7.429009e-003
2.551402e+003,7.549894e-003
2.553331e+003,7.577171e-003
2.555259e+003,7.501752e-003
2.557188e+003,7.567797e-003
2.559116e+003,7.566482e-003
2.561045e+003,7.506472e-003
2.562973e+003,7.411785e-003
2.564902e+003,7.433862e-003
2.566830e+003,7.527306e-003
2.568759e+003,7.527980e-003
2.570687e+003,7.477446e-003
2.572616e+003,7.436997e-003
2.574544e+003,7.411482e-003
2.576473e+003,7.370129e-003
2.578401e+003,7.360457e-003
2.580330e+003,7.318367e-003
2.582258e+003,7.249698e-003
2.584187e+003,7.357626e-003
2.586115e+003,7.376027e-003
2.588044e+003,7.342023e-003
2.589972e+003,7.358098e-003
2.591901e+003,7.331711e-003
2.593829e+003,7.436896e-003
2.595758e+003,7.418999e-003
2.597686e+003,7.294375e-003
2.599615e+003,7.273822e-003
2.601543e+003,7.232515e-003
2.603472e+003,7.300474e-003
2.605400e+003,7.368781e-003
2.607329e+003,7.317457e-003
2.609257e+003,7.297105e-003
2.611186e+003,7.264994e-003
2.613114e+003,7.195154e-003
2.615043e+003,7.221431e-003
2.616971e+003,7.271362e-003
2.618900e+003,7.311088e-003
2.620828e+003,7.352571e-003
2.622757e+003,7.400630e-003
2.624685e+003,7.400630e-003
2.626614e+003,7.415729e-003
2.628542e+003,7.501212e-003
2.630471e+003,7.482233e-003
2.632399e+003,7.438177e-003
2.634328e+003,7.546557e-003
2.636256e+003,7.646836e-003
2.638185e+003,7.735434e-003
2.640113e+003,7.807554e-003
2.642042e+003,7.916026e-003
2.643970e+003,8.018348e-003
2.645899e+003,8.116002e-003
2.647827e+003,8.181129e-003
2.649756e+003,8.239781e-003
2.651684e+003,8.297022e-003
2.653613e+003,8.408724e-003
2.655541e+003,8.503797e-003
2.657470e+003,8.506331e-003
2.659398e+003,8.571246e-003
2.661327e+003,8.644822e-003
2.663255e+003,8.697622e-003
2.665184e+003,8.756208e-003
2.667112e+003,8.771895e-003
2.669041e+003,8.802292e-003
2.670969e+003,8.838709e-003
2.672898e+003,8.820720e-003
2.674826e+003,8.886256e-003
2.676755e+003,8.914733e-003
2.678683e+003,8.921362e-003
2.680612e+003,8.931746e-003
2.682540e+003,8.946662e-003
2.684469e+003,8.963912e-003
2.686397e+003,8.990804e-003
2.688326e+003,8.955793e-003
2.690254e+003,8.954746e-003
2.692183e+003,8.998347e-003
2.694111e+003,9.020505e-003
2.696040e+003,9.040904e-003
2.697968e+003,9.046520e-003
2.699897e+003,9.044253e-003
2.701825e+003,9.039450e-003
2.703754e+003,9.030823e-003
2.705682e+003,9.022061e-003
2.707611e+003,9.053219e-003
2.709539e+003,9.100418e-003
2.711468e+003,9.135608e-003
2.713396e+003,9.107591e-003
2.715325e+003,9.102718e-003
2.717253e+003,9.174050e-003
2.719182e+003,9.157942e-003
2.721110e+003,9.138856e-003
2.723039e+003,9.140312e-003
2.724967e+003,9.121735e-003
2.726896e+003,9.094699e-003
2.728824e+003,9.084414e-003
2.730753e+003,9.147857e-003
2.732681e+003,9.167044e-003
2.734610e+003,9.181834e-003
2.736538e+003,9.176419e-003
2.738467e+003,9.174998e-003
2.740395e+003,9.188602e-003
2.742324e+003,9.164643e-003
2.744252e+003,9.143932e-003
2.746181e+003,9.202071e-003
2.748109e+003,9.247898e-003
2.750038e+003,9.228538e-003
2.751966e+003,9.216557e-003
2.753895e+003,9.250606e-003
2.755823e+003,9.236221e-003
2.757752e+003,9.248745e-003
2.759680e+003,9.289600e-003
2.761609e+003,9.303818e-003
2.763537e+003,9.281442e-003
2.765466e+003,9.335774e-003
2.767394e+003,9.398240e-003
2.769323e+003,9.397224e-003
2.771251e+003,9.394041e-003
2.773180e+003,9.412630e-003
2.775108e+003,9.429527e-003
2.777037e+003,9.414188e-003
2.778965e+003,9.396004e-003
2.780894e+003,9.413240e-003
2.782822e+003,9.468705e-003
2.784750e+003,9.525703e-003
2.786679e+003,9.525296e-003
2.788608e+003,9.538438e-003
2.790536e+003,9.567973e-003
2.792465e+003,9.616074e-003
2.794393e+003,9.644091e-003
2.796322e+003,9.615499e-003
2.798250e+003,9.638907e-003
2.800178e+003,9.689354e-003
2.802107e+003,9.734995e-003
2.804036e+003,9.760342e-003
2.805964e+003,9.813176e-003
2.807893e+003,9.868761e-003
2.809821e+003,9.894183e-003
2.811750e+003,9.923573e-003
2.813678e+003,9.991107e-003
2.815606e+003,1.003434e-002
2.817535e+003,1.007822e-002
2.819464e+003,1.013112e-002
2.821392e+003,1.017749e-002
2.823321e+003,1.024289e-002
2.825249e+003,1.033158e-002
2.827177e+003,1.038173e-002
2.829106e+003,1.045440e-002
2.831034e+003,1.055318e-002
2.832963e+003,1.060067e-002
2.834892e+003,1.071725e-002
2.836820e+003,1.084405e-002
2.838749e+003,1.090822e-002
2.840677e+003,1.100572e-002
2.842605e+003,1.110799e-002
2.844534e+003,1.120981e-002
2.846462e+003,1.132155e-002
2.848391e+003,1.141865e-002
2.850320e+003,1.148210e-002
2.852248e+003,1.161188e-002
2.854177e+003,1.167862e-002
2.856105e+003,1.173182e-002
2.858033e+003,1.176100e-002
2.859962e+003,1.179981e-002
2.861890e+003,1.188902e-002
2.863819e+003,1.202239e-002
2.865748e+003,1.210845e-002
2.867676e+003,1.210140e-002
2.869604e+003,1.209100e-002
2.871533e+003,1.217257e-002
2.873461e+003,1.227795e-002
2.875390e+003,1.229779e-002
2.877319e+003,1.229213e-002
2.879247e+003,1.227952e-002
2.881176e+003,1.231217e-002
2.883104e+003,1.233419e-002
2.885032e+003,1.232062e-002
2.886961e+003,1.238669e-002
2.888889e+003,1.246665e-002
2.890818e+003,1.252578e-002
2.892747e+003,1.245045e-002
2.894675e+003,1.241738e-002
2.896604e+003,1.248960e-002
2.898532e+003,1.245969e-002
2.900460e+003,1.242665e-002
2.902389e+003,1.235536e-002
2.904317e+003,1.227843e-002
2.906246e+003,1.227873e-002
2.908175e+003,1.227519e-002
2.910103e+003,1.221688e-002
2.912031e+003,1.212814e-002
2.913960e+003,1.205871e-002
2.915888e+003,1.201326e-002
2.917817e+003,1.195897e-002
2.919745e+003,1.193969e-002
2.921674e+003,1.187513e-002
2.923603e+003,1.181108e-002
2.925531e+003,1.173114e-002
2.927459e+003,1.165156e-002
2.929388e+003,1.160235e-002
2.931316e+003,1.148064e-002
2.933245e+003,1.142515e-002
2.935173e+003,1.137570e-002
2.937102e+003,1.135044e-002
2.939031e+003,1.125905e-002
2.940959e+003,1.115832e-002
2.942887e+003,1.112386e-002
2.944816e+003,1.098131e-002
2.946744e+003,1.081806e-002
2.948673e+003,1.064508e-002
2.950601e+003,1.056261e-002
2.952530e+003,1.049972e-002
2.954458e+003,1.034273e-002
2.956387e+003,1.028086e-002
2.958315e+003,1.024796e-002
2.960244e+003,1.012336e-002
2.962172e+003,9.997872e-003
2.964101e+003,9.916030e-003
2.966029e+003,9.877204e-003
2.967958e+003,9.891315e-003
2.969886e+003,9.818614e-003
2.971815e+003,9.771666e-003
2.973743e+003,9.728796e-003
2.975672e+003,9.669972e-003
2.977600e+003,9.564561e-003
2.979529e+003,9.508656e-003
2.981457e+003,9.450896e-003
2.983386e+003,9.424819e-003
2.985314e+003,9.391849e-003
2.987243e+003,9.414026e-003
2.989171e+003,9.384791e-003
2.991100e+003,9.369319e-003
2.993028e+003,9.368697e-003
2.994957e+003,9.321705e-003
2.996885e+003,9.307896e-003
2.998814e+003,9.298984e-003
3.000742e+003,9.369905e-003
3.002671e+003,9.354264e-003
3.004599e+003,9.256303e-003
3.006528e+003,9.297859e-003
3.008456e+003,9.338874e-003
3.010385e+003,9.306321e-003
3.012313e+003,9.325540e-003
3.014242e+003,9.415347e-003
3.016170e+003,9.384228e-003
3.018099e+003,9.325928e-003
3.020027e+003,9.372991e-003
3.021956e+003,9.464225e-003
3.023884e+003,9.453611e-003
3.025813e+003,9.465259e-003
3.027741e+003,9.490717e-003
3.029670e+003,9.519505e-003
3.031598e+003,9.566783e-003
3.033527e+003,9.565372e-003
3.035455e+003,9.616246e-003
3.037384e+003,9.654068e-003
3.039312e+003,9.691957e-003
3.041241e+003,9.675547e-003
3.043169e+003,9.628331e-003
3.045098e+003,9.753629e-003
3.047026e+003,9.799085e-003
3.048955e+003,9.861969e-003
3.050883e+003,9.901467e-003
3.052812e+003,9.843556e-003
3.054740e+003,9.901525e-003
3.056669e+003,9.951584e-003
3.058597e+003,9.978406e-003
3.060526e+003,1.000886e-002
3.062454e+003,1.008354e-002
3.064383e+003,1.013792e-002
3.066311e+003,1.015721e-002
3.068240e+003,1.024351e-002
3.070168e+003,1.025060e-002
3.072097e+003,1.029908e-002
3.074025e+003,1.035768e-002
3.075954e+003,1.033662e-002
3.077882e+003,1.032804e-002
3.079811e+003,1.031355e-002
3.081739e+003,1.043625e-002
3.083668e+003,1.057294e-002
3.085596e+003,1.061216e-002
3.087525e+003,1.062859e-002
3.089453e+003,1.060088e-002
3.091382e+003,1.064515e-002
3.093310e+003,1.077734e-002
3.095239e+003,1.080838e-002
3.097167e+003,1.082408e-002
3.099096e+003,1.082780e-002
3.101024e+003,1.079397e-002
3.102953e+003,1.088192e-002
3.104881e+003,1.094412e-002
3.106810e+003,1.099687e-002
3.108738e+003,1.100519e-002
3.110667e+003,1.106923e-002
3.112595e+003,1.113283e-002
3.114524e+003,1.116922e-002
3.116452e+003,1.120284e-002
3.118381e+003,1.116137e-002
3.120309e+003,1.117794e-002
3.122238e+003,1.128129e-002
3.124166e+003,1.144098e-002
3.126095e+003,1.153538e-002
3.128023e+003,1.154257e-002
3.129952e+003,1.159084e-002
3.131880e+003,1.167967e-002
3.133809e+003,1.169723e-002
3.135737e+003,1.169268e-002
3.137666e+003,1.177638e-002
3.139594e+003,1.181841e-002
3.141523e+003,1.183936e-002
3.143451e+003,1.192410e-002
3.145380e+003,1.197057e-002
3.147308e+003,1.210193e-002
3.149237e+003,1.220297e-002
3.151165e+003,1.225665e-002
3.153094e+003,1.232283e-002
3.155022e+003,1.232187e-002
3.156951e+003,1.233263e-002
3.158879e+003,1.245763e-002
3.160808e+003,1.260803e-002
3.162736e+003,1.265743e-002
3.164665e+003,1.274009e-002
3.166593e+003,1.284162e-002
3.168522e+003,1.284974e-002
3.170450e+003,1.287522e-002
3.172379e+003,1.295491e-002
3.174307e+003,1.304676e-002
3.176236e+003,1.312733e-002
3.178164e+003,1.322246e-002
3.180093e+003,1.323198e-002
3.182021e+003,1.323646e-002
3.183950e+003,1.333721e-002
3.185878e+003,1.338192e-002
3.187807e+003,1.347836e-002
3.189735e+003,1.355165e-002
3.191664e+003,1.359228e-002
3.193592e+003,1.371313e-002
3.195521e+003,1.377004e-002
3.197449e+003,1.381772e-002
3.199378e+003,1.391484e-002
3.201306e+003,1.411453e-002
3.203235e+003,1.420375e-002
3.205163e+003,1.421752e-002
3.207092e+003,1.425659e-002
3.209020e+003,1.429707e-002
3.210948e+003,1.440442e-002
3.212877e+003,1.451545e-002
3.214806e+003,1.464743e-002
3.216734e+003,1.480354e-002
3.218663e+003,1.492620e-002
3.220591e+003,1.486159e-002
3.222520e+003,1.495918e-002
3.224448e+003,1.505174e-002
3.226376e+003,1.516386e-002
3.228305e+003,1.527984e-002
3.230234e+003,1.536483e-002
3.232162e+003,1.541303e-002
3.234091e+003,1.551850e-002
3.236019e+003,1.564927e-002
3.237948e+003,1.573550e-002
3.239876e+003,1.579297e-002
3.241804e+003,1.592285e-002
3.243733e+003,1.602253e-002
3.245662e+003,1.612321e-002
3.247590e+003,1.623825e-002
3.249519e+003,1.630791e-002
3.251447e+003,1.634219e-002
3.253375e+003,1.648881e-002
3.255304e+003,1.663417e-002
3.257232e+003,1.671286e-002
3.259161e+003,1.685262e-002
3.261090e+003,1.696835e-002
3.263018e+003,1.709357e-002
3.264947e+003,1.718745e-002
3.266875e+003,1.729642e-002
3.268803e+003,1.733687e-002
3.270732e+003,1.736210e-002
3.272660e+003,1.747459e-002
3.274589e+003,1.754231e-002
3.276518e+003,1.770113e-002
3.278446e+003,1.776585e-002
3.280375e+003,1.762298e-002
3.282303e+003,1.758489e-002
3.284231e+003,1.780138e-002
3.286160e+003,1.787781e-002
3.288088e+003,1.787830e-002
3.290017e+003,1.794525e-002
3.291946e+003,1.793034e-002
3.293874e+003,1.794832e-002
3.295802e+003,1.797343e-002
3.297731e+003,1.796966e-002
3.299659e+003,1.802848e-002
3.301588e+003,1.804095e-002
3.303516e+003,1.807746e-002
3.305445e+003,1.806713e-002
3.307374e+003,1.809709e-002
3.309302e+003,1.815492e-002
3.311230e+003,1.813889e-002
3.313159e+003,1.814275e-002
3.315087e+003,1.826809e-002
3.317016e+003,1.844155e-002
3.318944e+003,1.852895e-002
3.320873e+003,1.854880e-002
3.322802e+003,1.852794e-002
3.324730e+003,1.849017e-002
3.326658e+003,1.847596e-002
3.328587e+003,1.860319e-002
3.330515e+003,1.869166e-002
3.332444e+003,1.868102e-002
3.334372e+003,1.863054e-002
3.336301e+003,1.863071e-002
3.338229e+003,1.862785e-002
3.340158e+003,1.856874e-002
3.342086e+003,1.851854e-002
3.344015e+003,1.842818e-002
3.345943e+003,1.836720e-002
3.347872e+003,1.829389e-002
3.349800e+003,1.827056e-002
3.351729e+003,1.824477e-002
3.353657e+003,1.821982e-002
3.355586e+003,1.805373e-002
3.357514e+003,1.792979e-002
3.359443e+003,1.793829e-002
3.361371e+003,1.793843e-002
3.363300e+003,1.787237e-002
3.365229e+003,1.781683e-002
3.367157e+003,1.771625e-002
3.369085e+003,1.765793e-002
3.371014e+003,1.758819e-002
3.372942e+003,1.754012e-002
3.374871e+003,1.749616e-002
3.376799e+003,1.746392e-002
3.378728e+003,1.739997e-002
3.380656e+003,1.727341e-002
3.382585e+003,1.716573e-002
3.384513e+003,1.710619e-002
3.386442e+003,1.698463e-002
3.388370e+003,1.691958e-002
3.390299e+003,1.683456e-002
3.392227e+003,1.679138e-002
3.394156e+003,1.677114e-002
3.396084e+003,1.673959e-002
3.398013e+003,1.667488e-002
3.399941e+003,1.650126e-002
3.401870e+003,1.645263e-002
3.403798e+003,1.645343e-002
3.405727e+003,1.632287e-002
3.407655e+003,1.621199e-002
3.409584e+003,1.614375e-002
3.411512e+003,1.604507e-002
3.413441e+003,1.590299e-002
3.415369e+003,1.582909e-002
3.417298e+003,1.570566e-002
3.419226e+003,1.559384e-002
3.421155e+003,1.542844e-002
3.423083e+003,1.524420e-002
3.425012e+003,1.517547e-002
3.426940e+003,1.505021e-002
3.428869e+003,1.484585e-002
3.430797e+003,1.466176e-002
3.432726e+003,1.450449e-002
3.434654e+003,1.438933e-002
3.436583e+003,1.433008e-002
3.438511e+003,1.414069e-002
3.440440e+003,1.401627e-002
3.442368e+003,1.396123e-002
3.444297e+003,1.383129e-002
3.446225e+003,1.363212e-002
3.448154e+003,1.337267e-002
3.450082e+003,1.317728e-002
3.452011e+003,1.314033e-002
3.453939e+003,1.298898e-002
3.455868e+003,1.281976e-002
3.457796e+003,1.270472e-002
3.459725e+003,1.242037e-002
3.461653e+003,1.228159e-002
3.463582e+003,1.215026e-002
3.465510e+003,1.197891e-002
3.467439e+003,1.184561e-002
3.469367e+003,1.175070e-002
3.471296e+003,1.159519e-002
3.473224e+003,1.150698e-002
3.475153e+003,1.141591e-002
3.477081e+003,1.134769e-002
3.479010e+003,1.114669e-002
3.480938e+003,1.092304e-002
3.482867e+003,1.078149e-002
3.484795e+003,1.063001e-002
3.486724e+003,1.052151e-002
3.488652e+003,1.039684e-002
3.490581e+003,1.017749e-002
3.492509e+003,1.017195e-002
3.494438e+003,1.007288e-002
3.496366e+003,9.856493e-003
3.498295e+003,9.729125e-003
3.500223e+003,9.672335e-003
3.502152e+003,9.568866e-003
3.504080e+003,9.536538e-003
3.506009e+003,9.416238e-003
3.507937e+003,9.272668e-003
3.509866e+003,9.141567e-003
3.511794e+003,9.018968e-003
3.513723e+003,8.945649e-003
3.515651e+003,8.918971e-003
3.517580e+003,8.858538e-003
3.519508e+003,8.761107e-003
3.521437e+003,8.637408e-003
3.523365e+003,8.504783e-003
3.525294e+003,8.412777e-003
3.527222e+003,8.320933e-003
3.529151e+003,8.179204e-003
3.531079e+003,8.035383e-003
3.533008e+003,7.984271e-003
3.534936e+003,7.879728e-003
3.536865e+003,7.833065e-003
3.538793e+003,7.760679e-003
3.540722e+003,7.710500e-003
3.542650e+003,7.590060e-003
3.544579e+003,7.408507e-003
3.546507e+003,7.295930e-003
3.548436e+003,7.179929e-003
3.550364e+003,7.075402e-003
3.552293e+003,6.977552e-003
3.554221e+003,6.988005e-003
3.556150e+003,6.957482e-003
3.558078e+003,6.844103e-003
3.560007e+003,6.736285e-003
3.561935e+003,6.566649e-003
3.563864e+003,6.449035e-003
3.565792e+003,6.359550e-003
3.567721e+003,6.216863e-003
3.569649e+003,6.217316e-003
3.571578e+003,6.247981e-003
3.573506e+003,6.121133e-003
3.575435e+003,6.050636e-003
3.577363e+003,5.967615e-003
3.579292e+003,5.837709e-003
3.581220e+003,5.763019e-003
3.583149e+003,5.689527e-003
3.585077e+003,5.631329e-003
3.587006e+003,5.522894e-003
3.588934e+003,5.434753e-003
3.590863e+003,5.355560e-003
3.592791e+003,5.245326e-003
3.594720e+003,5.144709e-003
3.596648e+003,5.040827e-003
3.598577e+003,4.969004e-003
3.600505e+003,4.936076e-003
3.602434e+003,4.871210e-003
3.604362e+003,4.727496e-003
3.606291e+003,4.686575e-003
3.608219e+003,4.701166e-003
3.610148e+003,4.636810e-003
3.612076e+003,4.460593e-003
3.614005e+003,4.389652e-003
3.615933e+003,4.334462e-003
3.617862e+003,4.378954e-003
3.619790e+003,4.351237e-003
3.621719e+003,4.276353e-003
3.623647e+003,4.261348e-003
3.625576e+003,4.075014e-003
3.627504e+003,3.938337e-003
3.629433e+003,3.933841e-003
3.631361e+003,3.976665e-003
3.633290e+003,3.975699e-003
3.635218e+003,3.953215e-003
3.637146e+003,3.911400e-003
3.639075e+003,3.945075e-003
3.641004e+003,3.978667e-003
3.642932e+003,4.000374e-003
3.644861e+003,4.005651e-003
3.646789e+003,3.922838e-003
3.648718e+003,3.816528e-003
3.650646e+003,3.803440e-003
3.652574e+003,3.867136e-003
3.654503e+003,3.797192e-003
3.656432e+003,3.763128e-003
3.658360e+003,3.827749e-003
3.660289e+003,3.820472e-003
3.662217e+003,3.790505e-003
3.664146e+003,3.727704e-003
3.666074e+003,3.670852e-003
3.668002e+003,3.687642e-003
3.669931e+003,3.898070e-003
3.671860e+003,3.819109e-003
3.673788e+003,3.700059e-003
3.675717e+003,3.758212e-003
3.677645e+003,3.696551e-003
3.679573e+003,3.560097e-003
3.681502e+003,3.557767e-003
3.683430e+003,3.587260e-003
3.685359e+003,3.613729e-003
3.687288e+003,3.664207e-003
3.689216e+003,3.496775e-003
3.691145e+003,3.369574e-003
3.693073e+003,3.365338e-003
3.695001e+003,3.418356e-003
3.696930e+003,3.319456e-003
3.698858e+003,3.331825e-003
3.700787e+003,3.445069e-003
3.702716e+003,3.519189e-003
3.704644e+003,3.398425e-003
3.706573e+003,3.310132e-003
3.708501e+003,3.286208e-003
3.710429e+003,3.262087e-003
3.712358e+003,3.456712e-003
3.714286e+003,3.550585e-003
3.716215e+003,3.395949e-003
3.718144e+003,3.179566e-003
3.720072e+003,3.132446e-003
3.722000e+003,2.998050e-003
3.723929e+003,2.949444e-003
3.725857e+003,2.979554e-003
3.727786e+003,3.053947e-003
3.729714e+003,2.992553e-003
3.731643e+003,2.905292e-003
3.733572e+003,2.912387e-003
3.735500e+003,2.951118e-003
3.737428e+003,3.174924e-003
3.739357e+003,3.257905e-003
3.741285e+003,3.281628e-003
3.743214e+003,3.459421e-003
3.745142e+003,3.514625e-003
3.747071e+003,3.415234e-003
3.749000e+003,3.448758e-003
3.750928e+003,3.451730e-003
3.752856e+003,3.409928e-003
3.754785e+003,3.376937e-003
3.756713e+003,3.465921e-003
3.758642e+003,3.343145e-003
3.760570e+003,3.411828e-003
3.762499e+003,3.473530e-003
3.764427e+003,3.463320e-003
3.766356e+003,3.538671e-003
3.768284e+003,3.469766e-003
3.770213e+003,3.415421e-003
3.772141e+003,3.435137e-003
3.774070e+003,3.486058e-003
3.775998e+003,3.613092e-003
3.777927e+003,3.584331e-003
3.779855e+003,3.518227e-003
3.781784e+003,3.506339e-003
3.783712e+003,3.417504e-003
3.785641e+003,3.489444e-003
3.787569e+003,3.530988e-003
3.789498e+003,3.592113e-003
3.791426e+003,3.613064e-003
3.793355e+003,3.609865e-003
3.795283e+003,3.655472e-003
3.797212e+003,3.650904e-003
3.799140e+003,3.637512e-003
3.801069e+003,3.593604e-003
3.802997e+003,3.571207e-003
3.804926e+003,3.609494e-003
3.806854e+003,3.601359e-003
3.808783e+003,3.595297e-003
3.810711e+003,3.596503e-003
3.812640e+003,3.608364e-003
3.814568e+003,3.663879e-003
3.816497e+003,3.567238e-003
3.818425e+003,3.553503e-003
3.820354e+003,3.606307e-003
3.822282e+003,3.592867e-003
3.824211e+003,3.569543e-003
3.826139e+003,3.562802e-003
3.828068e+003,3.646707e-003
3.829996e+003,3.578541e-003
3.831925e+003,3.549482e-003
3.833853e+003,3.662559e-003
3.835782e+003,3.801617e-003
3.837710e+003,3.807567e-003
3.839639e+003,3.639226e-003
3.841567e+003,3.628881e-003
3.843496e+003,3.637096e-003
3.845424e+003,3.685906e-003
3.847353e+003,3.640878e-003
3.849281e+003,3.677920e-003
3.851210e+003,3.807119e-003
3.853138e+003,3.804266e-003
3.855067e+003,3.745502e-003
3.856995e+003,3.647717e-003
3.858924e+003,3.704356e-003
3.860852e+003,3.724567e-003
3.862781e+003,3.757735e-003
3.864709e+003,3.733405e-003
3.866638e+003,3.710290e-003
3.868566e+003,3.670250e-003
3.870495e+003,3.695946e-003
3.872423e+003,3.684054e-003
3.874352e+003,3.729141e-003
3.876280e+003,3.818124e-003
3.878209e+003,3.813260e-003
3.880137e+003,3.645336e-003
3.882066e+003,3.673554e-003
3.883994e+003,3.749615e-003
3.885923e+003,3.675084e-003
3.887851e+003,3.640049e-003
3.889780e+003,3.668181e-003
3.891708e+003,3.660925e-003
3.893637e+003,3.750895e-003
3.895565e+003,3.790586e-003
3.897494e+003,3.712122e-003
3.899422e+003,3.716732e-003
3.901351e+003,3.682156e-003
3.903279e+003,3.704656e-003
3.905208e+003,3.720907e-003
3.907136e+003,3.739091e-003
3.909065e+003,3.776164e-003
3.910993e+003,3.815143e-003
3.912922e+003,3.821616e-003
3.914850e+003,3.753989e-003
3.916779e+003,3.696838e-003
3.918707e+003,3.686959e-003
3.920636e+003,3.710722e-003
3.922564e+003,3.670461e-003
3.924493e+003,3.724374e-003
3.926421e+003,3.772162e-003
3.928350e+003,3.730206e-003
3.930278e+003,3.739779e-003
3.932207e+003,3.786257e-003
3.934135e+003,3.768766e-003
3.936064e+003,3.754712e-003
3.937992e+003,3.788858e-003
3.939921e+003,3.772231e-003
3.941849e+003,3.695213e-003
3.943778e+003,3.673003e-003
3.945706e+003,3.721426e-003
3.947635e+003,3.802944e-003
3.949563e+003,3.821274e-003
3.951492e+003,3.827317e-003
3.953420e+003,3.833346e-003
3.955349e+003,3.842101e-003
3.957277e+003,3.794891e-003
3.959206e+003,3.782701e-003
3.961134e+003,3.751044e-003
3.963063e+003,3.682580e-003
3.964991e+003,3.696074e-003
3.966920e+003,3.708787e-003
3.968848e+003,3.779070e-003
3.970777e+003,3.815751e-003
3.972705e+003,3.750223e-003
3.974634e+003,3.770234e-003
3.976562e+003,3.825500e-003
3.978491e+003,3.791095e-003
3.980419e+003,3.754529e-003
3.982348e+003,3.807815e-003
3.984276e+003,3.819633e-003
3.986205e+003,3.799823e-003
3.988133e+003,3.799762e-003
3.990062e+003,3.793365e-003
3.991990e+003,3.767483e-003
3.993919e+003,3.738431e-003
3.995847e+003,3.680220e-003
3.997776e+003,3.678376e-003
3.999704e+003,3.679004e-003
4.001633e+003,0.000000e+000
