3.991989e+002,4.479586e-002
4.011274e+002,4.211671e-002
4.030559e+002,4.211671e-002
4.049844e+002,4.024612e-002
4.069129e+002,4.004409e-002
4.088414e+002,4.402018e-002
4.107699e+002,4.607964e-002
4.126984e+002,4.338401e-002
4.146269e+002,4.273520e-002
4.165554e+002,4.414968e-002
4.184839e+002,4.628840e-002
4.204124e+002,4.623757e-002
4.223409e+002,4.577664e-002
4.242694e+002,4.633699e-002
4.261979e+002,4.643978e-002
4.281264e+002,4.609754e-002
4.300549e+002,4.582601e-002
4.319834e+002,4.612477e-002
4.339119e+002,4.761172e-002
4.358404e+002,4.786325e-002
4.377689e+002,4.753774e-002
4.396974e+002,4.805255e-002
4.416259e+002,4.903311e-002
4.435544e+002,4.930770e-002
4.454829e+002,4.920237e-002
4.474114e+002,4.772125e-002
4.493399e+002,4.665506e-002
4.512684e+002,4.670003e-002
4.531969e+002,4.708628e-002
4.551254e+002,4.734815e-002
4.570539e+002,4.722855e-002
4.589824e+002,4.712602e-002
4.609109e+002,4.733540e-002
4.628394e+002,4.696145e-002
4.647679e+002,4.680199e-002
4.666964e+002,4.677162e-002
4.686249e+002,4.742242e-002
4.705533e+002,4.709153e-002
4.724819e+002,4.663901e-002
4.744103e+002,4.658250e-002
4.763389e+002,4.636622e-002
4.782673e+002,4.637699e-002
4.801959e+002,4.662149e-002
4.821243e+002,4.597969e-002
4.840529e+002,4.611261e-002
4.859813e+002,4.631760e-002
4.879099e+002,4.595719e-002
4.898383e+002,4.586235e-002
4.917668e+002,4.610145e-002
4.936953e+002,4.587436e-002
4.956238e+002,4.538967e-002
4.975523e+002,4.532141e-002
4.994808e+002,4.529412e-002
5.014093e+002,4.533693e-002
5.033378e+002,4.550968e-002
5.052663e+002,4.541447e-002
5.071948e+002,4.546833e-002
5.091233e+002,4.558291e-002
5.110518e+002,4.571589e-002
5.129803e+002,4.626787e-002
5.149088e+002,4.690899e-002
5.168373e+002,4.775761e-002
5.187658e+002,4.781453e-002
5.206943e+002,4.772598e-002
5.226228e+002,4.818889e-002
5.245513e+002,4.833737e-002
5.264798e+002,4.812488e-002
5.284083e+002,4.776985e-002
5.303368e+002,4.781405e-002
5.322653e+002,4.763176e-002
5.341938e+002,4.727673e-002
5.361223e+002,4.709293e-002
5.380508e+002,4.723579e-002
5.399792e+002,4.700479e-002
5.419078e+002,4.644922e-002
5.438363e+002,4.680727e-002
5.457648e+002,4.683236e-002
5.476932e+002,4.731312e-002
5.496218e+002,4.761775e-002
5.515503e+002,4.775513e-002
5.534788e+002,4.821210e-002
5.554072e+002,4.848165e-002
5.573358e+002,4.909272e-002
5.592643e+002,4.957882e-002
5.611927e+002,4.941925e-002
5.631212e+002,4.891725e-002
5.650497e+002,4.820918e-002
5.669783e+002,4.737091e-002
5.689067e+002,4.715715e-002
5.708352e+002,4.696506e-002
5.727637e+002,4.676225e-002
5.746923e+002,4.680856e-002
5.766207e+002,4.702255e-002
5.785492e+002,4.653636e-002
5.804777e+002,4.602655e-002
5.824063e+002,4.613391e-002
5.843347e+002,4.621273e-002
5.862632e+002,4.622460e-002
5.881917e+002,4.636062e-002
5.901202e+002,4.645711e-002
5.920487e+002,4.641031e-002
5.939772e+002,4.646603e-002
5.959057e+002,4.641839e-002
5.978342e+002,4.601056e-002
5.997627e+002,4.586979e-002
6.016912e+002,4.585182e-002
6.036197e+002,4.595634e-002
6.055482e+002,4.585683e-002
6.074767e+002,4.575186e-002
6.094052e+002,4.545699e-002
6.113337e+002,4.507017e-002
6.132622e+002,4.468314e-002
6.151907e+002,4.433157e-002
6.171192e+002,4.413948e-002
6.190477e+002,4.370125e-002
6.209762e+002,4.310520e-002
6.229047e+002,4.223753e-002
6.248332e+002,4.174212e-002
6.267617e+002,4.135097e-002
6.286902e+002,4.065857e-002
6.306187e+002,4.005463e-002
6.325472e+002,3.973147e-002
6.344756e+002,3.941621e-002
6.364042e+002,3.914476e-002
6.383326e+002,3.884797e-002
6.402612e+002,3.856297e-002
6.421896e+002,3.823568e-002
6.441182e+002,3.785722e-002
6.460466e+002,3.750170e-002
6.479752e+002,3.728553e-002
6.499036e+002,3.718347e-002
6.518322e+002,3.712612e-002
6.537606e+002,3.714911e-002
6.556891e+002,3.704178e-002
6.576177e+002,3.718235e-002
6.595461e+002,3.731015e-002
6.614746e+002,3.745695e-002
6.634031e+002,3.776363e-002
6.653317e+002,3.798211e-002
6.672601e+002,3.750210e-002
6.691886e+002,3.720293e-002
6.711171e+002,3.671809e-002
6.730457e+002,3.588668e-002
6.749741e+002,3.482144e-002
6.769026e+002,3.371060e-002
6.788311e+002,3.290405e-002
6.807596e+002,3.203072e-002
6.826881e+002,3.129639e-002
6.846166e+002,3.097413e-002
6.865451e+002,3.075923e-002
6.884736e+002,3.021687e-002
6.904021e+002,2.975643e-002
6.923306e+002,2.976357e-002
6.942591e+002,2.977350e-002
6.961876e+002,2.947968e-002
6.981161e+002,2.933800e-002
7.000446e+002,2.925098e-002
7.019731e+002,2.904610e-002
7.039016e+002,2.874639e-002
7.058301e+002,2.839408e-002
7.077585e+002,2.817839e-002
7.096871e+002,2.805838e-002
7.116156e+002,2.783858e-002
7.135441e+002,2.758727e-002
7.154725e+002,2.729273e-002
7.174011e+002,2.694921e-002
7.193296e+002,2.668663e-002
7.212581e+002,2.635965e-002
7.231865e+002,2.602615e-002
7.251151e+002,2.591049e-002
7.270436e+002,2.550330e-002
7.289720e+002,2.515480e-002
7.309005e+002,2.491236e-002
7.328290e+002,2.466361e-002
7.347576e+002,2.435265e-002
7.366860e+002,2.406054e-002
7.386145e+002,2.386103e-002
7.405430e+002,2.366984e-002
7.424716e+002,2.336151e-002
7.444000e+002,2.319354e-002
7.463285e+002,2.306077e-002
7.482570e+002,2.280445e-002
7.501855e+002,2.256633e-002
7.521140e+002,2.235592e-002
7.540425e+002,2.212781e-002
7.559710e+002,2.188228e-002
7.578995e+002,2.167346e-002
7.598280e+002,2.144330e-002
7.617565e+002,2.119910e-002
7.636850e+002,2.106187e-002
7.656135e+002,2.082949e-002
7.675420e+002,2.051574e-002
7.694705e+002,2.039435e-002
7.713990e+002,2.031403e-002
7.733275e+002,2.020929e-002
7.752560e+002,2.009413e-002
7.771844e+002,2.001627e-002
7.791130e+002,2.006509e-002
7.810415e+002,1.997939e-002
7.829700e+002,1.994494e-002
7.848984e+002,1.983186e-002
7.868270e+002,1.962371e-002
7.887555e+002,1.942976e-002
7.906840e+002,1.928758e-002
7.926124e+002,1.917502e-002
7.945410e+002,1.906388e-002
7.964695e+002,1.908101e-002
7.983979e+002,1.913323e-002
8.003264e+002,1.907114e-002
8.022549e+002,1.897768e-002
8.041835e+002,1.892202e-002
8.061119e+002,1.891195e-002
8.080404e+002,1.891150e-002
8.099689e+002,1.891102e-002
8.118975e+002,1.892936e-002
8.138259e+002,1.882540e-002
8.157545e+002,1.877876e-002
8.176830e+002,1.878679e-002
8.196115e+002,1.887596e-002
8.215399e+002,1.895982e-002
8.234684e+002,1.897328e-002
8.253970e+002,1.888492e-002
8.273254e+002,1.895255e-002
8.292539e+002,1.911758e-002
8.311824e+002,1.921381e-002
8.331110e+002,1.937066e-002
8.350394e+002,1.930241e-002
8.369679e+002,1.916072e-002
8.388964e+002,1.901475e-002
8.408250e+002,1.877395e-002
8.427534e+002,1.855196e-002
8.446819e+002,1.830468e-002
8.466104e+002,1.819496e-002
8.485389e+002,1.810783e-002
8.504674e+002,1.797717e-002
8.523959e+002,1.793352e-002
8.543244e+002,1.788031e-002
8.562529e+002,1.783802e-002
8.581814e+002,1.790687e-002
8.601099e+002,1.801416e-002
8.620384e+002,1.804901e-002
8.639669e+002,1.806517e-002
8.658954e+002,1.795987e-002
8.678239e+002,1.804852e-002
8.697524e+002,1.817841e-002
8.716809e+002,1.822199e-002
8.736094e+002,1.835151e-002
8.755378e+002,1.847976e-002
8.774664e+002,1.854435e-002
8.793949e+002,1.870971e-002
8.813234e+002,1.902164e-002
8.832518e+002,1.942432e-002
8.851804e+002,1.990248e-002
8.871089e+002,2.038028e-002
8.890374e+002,2.090934e-002
8.909658e+002,2.161923e-002
8.928943e+002,2.231790e-002
8.948229e+002,2.281922e-002
8.967513e+002,2.300613e-002
8.986798e+002,2.297514e-002
9.006083e+002,2.265041e-002
9.025369e+002,2.221149e-002
9.044653e+002,2.171895e-002
9.063938e+002,2.118577e-002
9.083223e+002,2.075135e-002
9.102509e+002,2.048253e-002
9.121793e+002,2.034751e-002
9.141078e+002,2.022825e-002
9.160364e+002,2.010920e-002
9.179648e+002,2.014813e-002
9.198933e+002,2.019635e-002
9.218218e+002,2.031028e-002
9.237504e+002,2.042477e-002
9.256788e+002,2.051400e-002
9.276073e+002,2.065693e-002
9.295358e+002,2.085101e-002
9.314644e+002,2.109960e-002
9.333928e+002,2.141642e-002
9.353213e+002,2.167590e-002
9.372498e+002,2.203922e-002
9.391783e+002,2.242796e-002
9.411068e+002,2.288188e-002
9.430353e+002,2.347740e-002
9.449637e+002,2.408036e-002
9.468923e+002,2.475834e-002
9.488208e+002,2.544335e-002
9.507493e+002,2.623693e-002
9.526777e+002,2.709663e-002
9.546063e+002,2.802593e-002
9.565348e+002,2.899282e-002
9.584633e+002,2.994702e-002
9.603917e+002,3.094514e-002
9.623203e+002,3.196880e-002
9.642488e+002,3.298283e-002
9.661772e+002,3.392544e-002
9.681057e+002,3.484539e-002
9.700343e+002,3.578873e-002
9.719628e+002,3.677665e-002
9.738912e+002,3.793680e-002
9.758197e+002,3.923941e-002
9.777483e+002,4.070599e-002
9.796768e+002,4.239302e-002
9.816052e+002,4.433201e-002
9.835337e+002,4.628807e-002
9.854623e+002,4.817323e-002
9.873907e+002,4.983085e-002
9.893192e+002,5.115977e-002
9.912477e+002,5.214315e-002
9.931763e+002,5.272686e-002
9.951047e+002,5.306429e-002
9.970332e+002,5.343211e-002
9.989617e+002,5.407489e-002
1.000890e+003,5.500165e-002
1.002819e+003,5.601455e-002
1.004747e+003,5.701629e-002
1.006676e+003,5.800376e-002
1.008604e+003,5.907870e-002
1.010533e+003,6.019726e-002
1.012461e+003,6.138335e-002
1.014390e+003,6.281293e-002
1.016318e+003,6.450828e-002
1.018247e+003,6.618001e-002
1.020175e+003,6.786492e-002
1.022104e+003,6.959095e-002
1.024032e+003,7.131743e-002
1.025961e+003,7.315729e-002
1.027889e+003,7.512719e-002
1.029818e+003,7.702919e-002
1.031746e+003,7.874916e-002
1.033675e+003,7.986470e-002
1.035603e+003,8.026647e-002
1.037532e+003,7.983181e-002
1.039460e+003,7.885492e-002
1.041389e+003,7.782346e-002
1.043317e+003,7.706844e-002
1.045246e+003,7.674936e-002
1.047174e+003,7.671136e-002
1.049103e+003,7.678894e-002
1.051031e+003,7.688825e-002
1.052960e+003,7.676767e-002
1.054888e+003,7.628238e-002
1.056817e+003,7.532400e-002
1.058745e+003,7.413786e-002
1.060674e+003,7.263070e-002
1.062602e+003,7.071094e-002
1.064531e+003,6.848932e-002
1.066459e+003,6.623586e-002
1.068388e+003,6.408741e-002
1.070316e+003,6.227253e-002
1.072245e+003,6.061083e-002
1.074173e+003,5.906393e-002
1.076102e+003,5.748217e-002
1.078030e+003,5.592616e-002
1.079959e+003,5.437315e-002
1.081887e+003,5.300458e-002
1.083816e+003,5.187831e-002
1.085744e+003,5.102895e-002
1.087673e+003,5.043587e-002
1.089601e+003,5.004819e-002
1.091530e+003,4.973811e-002
1.093458e+003,4.946718e-002
1.095387e+003,4.924965e-002
1.097315e+003,4.924504e-002
1.099244e+003,4.938687e-002
1.101172e+003,4.963906e-002
1.103101e+003,4.979469e-002
1.105029e+003,4.977838e-002
1.106958e+003,4.941535e-002
1.108886e+003,4.872923e-002
1.110815e+003,4.767624e-002
1.112743e+003,4.635074e-002
1.114672e+003,4.478731e-002
1.116600e+003,4.315870e-002
1.118529e+003,4.183131e-002
1.120457e+003,4.066156e-002
1.122386e+003,3.947140e-002
1.124314e+003,3.822085e-002
1.126243e+003,3.680099e-002
1.128171e+003,3.528376e-002
1.130100e+003,3.374914e-002
1.132028e+003,3.223537e-002
1.133957e+003,3.075784e-002
1.135885e+003,2.950450e-002
1.137814e+003,2.860750e-002
1.139742e+003,2.807340e-002
1.141671e+003,2.791483e-002
1.143599e+003,2.802650e-002
1.145528e+003,2.843663e-002
1.147456e+003,2.906275e-002
1.149385e+003,2.978344e-002
1.151313e+003,3.056942e-002
1.153242e+003,3.140876e-002
1.155170e+003,3.227109e-002
1.157099e+003,3.299027e-002
1.159027e+003,3.348378e-002
1.160956e+003,3.360477e-002
1.162884e+003,3.327718e-002
1.164813e+003,3.240113e-002
1.166741e+003,3.102431e-002
1.168670e+003,2.935171e-002
1.170598e+003,2.749848e-002
1.172526e+003,2.561871e-002
1.174455e+003,2.390749e-002
1.176384e+003,2.239995e-002
1.178312e+003,2.111654e-002
1.180240e+003,2.004909e-002
1.182169e+003,1.915476e-002
1.184098e+003,1.845052e-002
1.186026e+003,1.794771e-002
1.187954e+003,1.764949e-002
1.189883e+003,1.749234e-002
1.191812e+003,1.754315e-002
1.193740e+003,1.779131e-002
1.195668e+003,1.810600e-002
1.197597e+003,1.849709e-002
1.199526e+003,1.889485e-002
1.201454e+003,1.915328e-002
1.203382e+003,1.928055e-002
1.205311e+003,1.929299e-002
1.207240e+003,1.921668e-002
1.209168e+003,1.914808e-002
1.211096e+003,1.920612e-002
1.213025e+003,1.941674e-002
1.214953e+003,1.968334e-002
1.216882e+003,1.999694e-002
1.218810e+003,2.045158e-002
1.220739e+003,2.096122e-002
1.222667e+003,2.148354e-002
1.224596e+003,2.204183e-002
1.226524e+003,2.264539e-002
1.228453e+003,2.319018e-002
1.230381e+003,2.359374e-002
1.232310e+003,2.396326e-002
1.234238e+003,2.429889e-002
1.236167e+003,2.451634e-002
1.238095e+003,2.459459e-002
1.240024e+003,2.467209e-002
1.241952e+003,2.471828e-002
1.243881e+003,2.461539e-002
1.245809e+003,2.442800e-002
1.247738e+003,2.422846e-002
1.249666e+003,2.395409e-002
1.251595e+003,2.365997e-002
1.253523e+003,2.336536e-002
1.255452e+003,2.303066e-002
1.257380e+003,2.271346e-002
1.259309e+003,2.234766e-002
1.261237e+003,2.191197e-002
1.263166e+003,2.146666e-002
1.265094e+003,2.094843e-002
1.267023e+003,2.040762e-002
1.268951e+003,1.992815e-002
1.270880e+003,1.946161e-002
1.272808e+003,1.898148e-002
1.274737e+003,1.854729e-002
1.276665e+003,1.815140e-002
1.278594e+003,1.782545e-002
1.280522e+003,1.755336e-002
1.282451e+003,1.726483e-002
1.284379e+003,1.701649e-002
1.286308e+003,1.677617e-002
1.288236e+003,1.651992e-002
1.290165e+003,1.637728e-002
1.292093e+003,1.637494e-002
1.294022e+003,1.640484e-002
1.295950e+003,1.650701e-002
1.297879e+003,1.670214e-002
1.299807e+003,1.699512e-002
1.301736e+003,1.729503e-002
1.303664e+003,1.765395e-002
1.305593e+003,1.810165e-002
1.307521e+003,1.853159e-002
1.309450e+003,1.897449e-002
1.311378e+003,1.945062e-002
1.313307e+003,1.984257e-002
1.315235e+003,2.012547e-002
1.317164e+003,2.030768e-002
1.319092e+003,2.031782e-002
1.321021e+003,2.015872e-002
1.322949e+003,1.991587e-002
1.324878e+003,1.968882e-002
1.326806e+003,1.951051e-002
1.328735e+003,1.936927e-002
1.330663e+003,1.930241e-002
1.332592e+003,1.923656e-002
1.334520e+003,1.909109e-002
1.336449e+003,1.887627e-002
1.338377e+003,1.858163e-002
1.340306e+003,1.832193e-002
1.342234e+003,1.808117e-002
1.344163e+003,1.788342e-002
1.346091e+003,1.773391e-002
1.348020e+003,1.774499e-002
1.349948e+003,1.789195e-002
1.351877e+003,1.804459e-002
1.353805e+003,1.826317e-002
1.355734e+003,1.849515e-002
1.357662e+003,1.871016e-002
1.359591e+003,1.902846e-002
1.361519e+003,1.928409e-002
1.363448e+003,1.949228e-002
1.365376e+003,1.974242e-002
1.367305e+003,1.988319e-002
1.369233e+003,1.993050e-002
1.371162e+003,1.982312e-002
1.373090e+003,1.956652e-002
1.375019e+003,1.928786e-002
1.376947e+003,1.890088e-002
1.378876e+003,1.841318e-002
1.380804e+003,1.787879e-002
1.382733e+003,1.729148e-002
1.384661e+003,1.673437e-002
1.386590e+003,1.628893e-002
1.388518e+003,1.595468e-002
1.390447e+003,1.564261e-002
1.392375e+003,1.542747e-002
1.394304e+003,1.524009e-002
1.396232e+003,1.514682e-002
1.398161e+003,1.512089e-002
1.400089e+003,1.510288e-002
1.402018e+003,1.511588e-002
1.403946e+003,1.516522e-002
1.405875e+003,1.528031e-002
1.407803e+003,1.542613e-002
1.409732e+003,1.558680e-002
1.411660e+003,1.579436e-002
1.413589e+003,1.603320e-002
1.415517e+003,1.629897e-002
1.417446e+003,1.657403e-002
1.419374e+003,1.683996e-002
1.421303e+003,1.705708e-002
1.423231e+003,1.710622e-002
1.425160e+003,1.709675e-002
1.427088e+003,1.698882e-002
1.429017e+003,1.677366e-002
1.430945e+003,1.648960e-002
1.432874e+003,1.614997e-002
1.434802e+003,1.578519e-002
1.436731e+003,1.552303e-002
1.438659e+003,1.533488e-002
1.440588e+003,1.517397e-002
1.442516e+003,1.507262e-002
1.444445e+003,1.504199e-002
1.446373e+003,1.505831e-002
1.448302e+003,1.513012e-002
1.450230e+003,1.516518e-002
1.452159e+003,1.515039e-002
1.454087e+003,1.510192e-002
1.456016e+003,1.503688e-002
1.457944e+003,1.491145e-002
1.459873e+003,1.477057e-002
1.461801e+003,1.465071e-002
1.463730e+003,1.441390e-002
1.465658e+003,1.407996e-002
1.467587e+003,1.358585e-002
1.469515e+003,1.294661e-002
1.471444e+003,1.226077e-002
1.473372e+003,1.167848e-002
1.475301e+003,1.116666e-002
1.477229e+003,1.078413e-002
1.479158e+003,1.053838e-002
1.481086e+003,1.035513e-002
1.483015e+003,1.028153e-002
1.484943e+003,1.029107e-002
1.486872e+003,1.035370e-002
1.488800e+003,1.044347e-002
1.490729e+003,1.069830e-002
1.492657e+003,1.100609e-002
1.494586e+003,1.126907e-002
1.496514e+003,1.150853e-002
1.498443e+003,1.175354e-002
1.500371e+003,1.200042e-002
1.502300e+003,1.215799e-002
1.504228e+003,1.229820e-002
1.506157e+003,1.239119e-002
1.508085e+003,1.248516e-002
1.510014e+003,1.249621e-002
1.511942e+003,1.254402e-002
1.513871e+003,1.255419e-002
1.515799e+003,1.237415e-002
1.517728e+003,1.200996e-002
1.519656e+003,1.163339e-002
1.521585e+003,1.128057e-002
1.523513e+003,1.095379e-002
1.525442e+003,1.074782e-002
1.527370e+003,1.071134e-002
1.529299e+003,1.066882e-002
1.531227e+003,1.060896e-002
1.533156e+003,1.058309e-002
1.535084e+003,1.063222e-002
1.537013e+003,1.064926e-002
1.538941e+003,1.066556e-002
1.540870e+003,1.068088e-002
1.542798e+003,1.065381e-002
1.544727e+003,1.066329e-002
1.546655e+003,1.069504e-002
1.548584e+003,1.063578e-002
1.550512e+003,1.061028e-002
1.552441e+003,1.063660e-002
1.554369e+003,1.066546e-002
1.556298e+003,1.064332e-002
1.558226e+003,1.060726e-002
1.560155e+003,1.072486e-002
1.562083e+003,1.072499e-002
1.564012e+003,1.077438e-002
1.565940e+003,1.081677e-002
1.567869e+003,1.086334e-002
1.569797e+003,1.103110e-002
1.571726e+003,1.121110e-002
1.573654e+003,1.136722e-002
1.575583e+003,1.167998e-002
1.577511e+003,1.194814e-002
1.579440e+003,1.218546e-002
1.581368e+003,1.257363e-002
1.583297e+003,1.295129e-002
1.585225e+003,1.336427e-002
1.587154e+003,1.370241e-002
1.589082e+003,1.403465e-002
1.591010e+003,1.430892e-002
1.592939e+003,1.453352e-002
1.594868e+003,1.464629e-002
1.596796e+003,1.475758e-002
1.598724e+003,1.486355e-002
1.600653e+003,1.499215e-002
1.602582e+003,1.512006e-002
1.604510e+003,1.517506e-002
1.606438e+003,1.512717e-002
1.608367e+003,1.496612e-002
1.610296e+003,1.483838e-002
1.612224e+003,1.487589e-002
1.614152e+003,1.493950e-002
1.616081e+003,1.512775e-002
1.618010e+003,1.534855e-002
1.619938e+003,1.547372e-002
1.621866e+003,1.560964e-002
1.623795e+003,1.575632e-002
1.625724e+003,1.586443e-002
1.627652e+003,1.597204e-002
1.629580e+003,1.601825e-002
1.631509e+003,1.592636e-002
1.633438e+003,1.576577e-002
1.635366e+003,1.564399e-002
1.637294e+003,1.552090e-002
1.639223e+003,1.533694e-002
1.641151e+003,1.525944e-002
1.643080e+003,1.518608e-002
1.645008e+003,1.518014e-002
1.646937e+003,1.515194e-002
1.648865e+003,1.511224e-002
1.650794e+003,1.506476e-002
1.652722e+003,1.507927e-002
1.654651e+003,1.495326e-002
1.656579e+003,1.468183e-002
1.658508e+003,1.447586e-002
1.660436e+003,1.417170e-002
1.662365e+003,1.381291e-002
1.664293e+003,1.351153e-002
1.666222e+003,1.318055e-002
1.668150e+003,1.285889e-002
1.670079e+003,1.257564e-002
1.672007e+003,1.230416e-002
1.673936e+003,1.198612e-002
1.675864e+003,1.181707e-002
1.677793e+003,1.161773e-002
1.679721e+003,1.144036e-002
1.681650e+003,1.121372e-002
1.683578e+003,1.106506e-002
1.685507e+003,1.108039e-002
1.687435e+003,1.088016e-002
1.689364e+003,1.075369e-002
1.691292e+003,1.070377e-002
1.693221e+003,1.064397e-002
1.695149e+003,1.066223e-002
1.697078e+003,1.061049e-002
1.699006e+003,1.037702e-002
1.700935e+003,1.033358e-002
1.702863e+003,1.027153e-002
1.704792e+003,1.019950e-002
1.706720e+003,1.018125e-002
1.708649e+003,1.023723e-002
1.710577e+003,1.023719e-002
1.712506e+003,1.030135e-002
1.714434e+003,1.040077e-002
1.716363e+003,1.051882e-002
1.718291e+003,1.059219e-002
1.720220e+003,1.064875e-002
1.722148e+003,1.078691e-002
1.724077e+003,1.094951e-002
1.726005e+003,1.100048e-002
1.727934e+003,1.101248e-002
1.729862e+003,1.102437e-002
1.731791e+003,1.105289e-002
1.733719e+003,1.097561e-002
1.735648e+003,1.084415e-002
1.737576e+003,1.057497e-002
1.739505e+003,1.034634e-002
1.741433e+003,1.006082e-002
1.743362e+003,9.731336e-003
1.745290e+003,9.368919e-003
1.747219e+003,9.021655e-003
1.749147e+003,8.766351e-003
1.751076e+003,8.514914e-003
1.753004e+003,8.191426e-003
1.754933e+003,7.850838e-003
1.756861e+003,7.612440e-003
1.758790e+003,7.421392e-003
1.760718e+003,7.249428e-003
1.762647e+003,7.070393e-003
1.764575e+003,6.860328e-003
1.766504e+003,6.712545e-003
1.768432e+003,6.646663e-003
1.770361e+003,6.561616e-003
1.772289e+003,6.556672e-003
1.774218e+003,6.527677e-003
1.776146e+003,6.468650e-003
1.778075e+003,6.494580e-003
1.780003e+003,6.484390e-003
1.781932e+003,6.459738e-003
1.783860e+003,6.427521e-003
1.785789e+003,6.482708e-003
1.787717e+003,6.489401e-003
1.789646e+003,6.487114e-003
1.791574e+003,6.470163e-003
1.793503e+003,6.482136e-003
1.795431e+003,6.494008e-003
1.797360e+003,6.534370e-003
1.799288e+003,6.546412e-003
1.801217e+003,6.562188e-003
1.803145e+003,6.549810e-003
1.805074e+003,6.536960e-003
1.807002e+003,6.553443e-003
1.808931e+003,6.513718e-003
1.810859e+003,6.426109e-003
1.812788e+003,6.447059e-003
1.814716e+003,6.488695e-003
1.816645e+003,6.502619e-003
1.818573e+003,6.471677e-003
1.820502e+003,6.423082e-003
1.822430e+003,6.415314e-003
1.824359e+003,6.440165e-003
1.826287e+003,6.484827e-003
1.828216e+003,6.429673e-003
1.830144e+003,6.386497e-003
1.832073e+003,6.407714e-003
1.834001e+003,6.400384e-003
1.835930e+003,6.419080e-003
1.837858e+003,6.450994e-003
1.839787e+003,6.469188e-003
1.841715e+003,6.323286e-003
1.843644e+003,6.305602e-003
1.845572e+003,6.397257e-003
1.847501e+003,6.484322e-003
1.849429e+003,6.540795e-003
1.851358e+003,6.511397e-003
1.853286e+003,6.416289e-003
1.855215e+003,6.505747e-003
1.857143e+003,6.462193e-003
1.859072e+003,6.329741e-003
1.861000e+003,6.354655e-003
1.862929e+003,6.483381e-003
1.864857e+003,6.515837e-003
1.866786e+003,6.545941e-003
1.868714e+003,6.498415e-003
1.870643e+003,6.434885e-003
1.872571e+003,6.558286e-003
1.874500e+003,6.577292e-003
1.876428e+003,6.675935e-003
1.878357e+003,6.678964e-003
1.880285e+003,6.580320e-003
1.882214e+003,6.611875e-003
1.884142e+003,6.718670e-003
1.886071e+003,6.897054e-003
1.887999e+003,6.777629e-003
1.889928e+003,6.796544e-003
1.891856e+003,6.774701e-003
1.893785e+003,6.775038e-003
1.895713e+003,6.698109e-003
1.897642e+003,6.593742e-003
1.899570e+003,6.508437e-003
1.901499e+003,6.626140e-003
1.903427e+003,6.625265e-003
1.905356e+003,6.741519e-003
1.907284e+003,7.092520e-003
1.909213e+003,7.020317e-003
1.911141e+003,6.887056e-003
1.913070e+003,6.902878e-003
1.914998e+003,6.999069e-003
1.916927e+003,7.143279e-003
1.918855e+003,7.052646e-003
1.920784e+003,6.871874e-003
1.922712e+003,6.861001e-003
1.924641e+003,6.845281e-003
1.926569e+003,7.061267e-003
1.928498e+003,7.482739e-003
1.930426e+003,7.260378e-003
1.932355e+003,6.899748e-003
1.934283e+003,7.057562e-003
1.936212e+003,7.318131e-003
1.938140e+003,7.507921e-003
1.940069e+003,7.329858e-003
1.941997e+003,6.886282e-003
1.943926e+003,7.277865e-003
1.945854e+003,7.287771e-003
1.947783e+003,7.743394e-003
1.949711e+003,7.634797e-003
1.951640e+003,6.987116e-003
1.953568e+003,6.772413e-003
1.955497e+003,6.671898e-003
1.957425e+003,6.395609e-003
1.959354e+003,6.516880e-003
1.961282e+003,7.053083e-003
1.963211e+003,6.732702e-003
1.965139e+003,5.820924e-003
1.967068e+003,4.959383e-003
1.968996e+003,5.107810e-003
1.970925e+003,5.251225e-003
1.972853e+003,5.747791e-003
1.974782e+003,5.761188e-003
1.976710e+003,6.003778e-003
1.978639e+003,5.964004e-003
1.980567e+003,6.152329e-003
1.982496e+003,6.392650e-003
1.984424e+003,5.913349e-003
1.986353e+003,5.812899e-003
1.988281e+003,5.893667e-003
1.990210e+003,5.869654e-003
1.992138e+003,5.705286e-003
1.994067e+003,5.966792e-003
1.995995e+003,6.268186e-003
1.997924e+003,5.706629e-003
1.999852e+003,5.485109e-003
2.001781e+003,5.273629e-003
2.003709e+003,4.839216e-003
2.005638e+003,4.572328e-003
2.007566e+003,3.903784e-003
2.009495e+003,4.058139e-003
2.011423e+003,4.038775e-003
2.013352e+003,4.845147e-003
2.015280e+003,5.055747e-003
2.017208e+003,3.549136e-003
2.019137e+003,2.404155e-003
2.021066e+003,3.030151e-003
2.022994e+003,2.871858e-003
2.024922e+003,2.557578e-003
2.026851e+003,3.218176e-003
2.028780e+003,2.825065e-003
2.030708e+003,1.852726e-003
2.032636e+003,1.322403e-003
2.034565e+003,1.704209e-003
2.036494e+003,1.896087e-003
2.038422e+003,1.692933e-003
2.040350e+003,1.529141e-003
2.042279e+003,2.136594e-003
2.044208e+003,2.669447e-003
2.046136e+003,2.595276e-003
2.048064e+003,2.783179e-003
2.049993e+003,2.559745e-003
2.051921e+003,2.804021e-003
2.053850e+003,3.741830e-003
2.055778e+003,3.892651e-003
2.057707e+003,3.897532e-003
2.059635e+003,3.741998e-003
2.061564e+003,3.927322e-003
2.063492e+003,4.114665e-003
2.065421e+003,3.984968e-003
2.067349e+003,4.225732e-003
2.069278e+003,4.421572e-003
2.071206e+003,4.323206e-003
2.073135e+003,4.438108e-003
2.075063e+003,4.414275e-003
2.076992e+003,4.619644e-003
2.078920e+003,4.846353e-003
2.080849e+003,4.953685e-003
2.082777e+003,5.084611e-003
2.084706e+003,5.084343e-003
2.086634e+003,5.182580e-003
2.088563e+003,5.211317e-003
2.090491e+003,5.212558e-003
2.092420e+003,5.072643e-003
2.094348e+003,5.084913e-003
2.096277e+003,5.284193e-003
2.098205e+003,5.663659e-003
2.100134e+003,5.823275e-003
2.102062e+003,5.957655e-003
2.103991e+003,6.166880e-003
2.105919e+003,6.250001e-003
2.107848e+003,5.955606e-003
2.109776e+003,6.084079e-003
2.111705e+003,6.269195e-003
2.113633e+003,6.437475e-003
2.115562e+003,6.428530e-003
2.117490e+003,6.442149e-003
2.119419e+003,6.371433e-003
2.121347e+003,6.442519e-003
2.123276e+003,6.579546e-003
2.125204e+003,6.446622e-003
2.127133e+003,6.581464e-003
2.129061e+003,6.452675e-003
2.130990e+003,5.953926e-003
2.132918e+003,6.007507e-003
2.134847e+003,6.447664e-003
2.136775e+003,6.560809e-003
2.138704e+003,6.026423e-003
2.140632e+003,6.101754e-003
2.142561e+003,6.077728e-003
2.144489e+003,5.427901e-003
2.146418e+003,5.198441e-003
2.148346e+003,5.546016e-003
2.150275e+003,5.003389e-003
2.152203e+003,4.685152e-003
2.154132e+003,3.591931e-003
2.156060e+003,2.752834e-003
2.157989e+003,2.433176e-003
2.159917e+003,2.393827e-003
2.161846e+003,2.678515e-003
2.163774e+003,2.718957e-003
2.165703e+003,2.775976e-003
2.167631e+003,3.337594e-003
2.169560e+003,3.014369e-003
2.171488e+003,3.373323e-003
2.173417e+003,3.951195e-003
2.175345e+003,3.955910e-003
2.177274e+003,3.802226e-003
2.179202e+003,3.510253e-003
2.181131e+003,3.153890e-003
2.183059e+003,2.702253e-003
2.184988e+003,3.534404e-003
2.186916e+003,3.793836e-003
2.188845e+003,3.852233e-003
2.190773e+003,3.569815e-003
2.192702e+003,3.329781e-003
2.194630e+003,4.000785e-003
2.196559e+003,4.285157e-003
2.198487e+003,4.054460e-003
2.200416e+003,3.910404e-003
2.202344e+003,3.887034e-003
2.204273e+003,4.567807e-003
2.206201e+003,4.921580e-003
2.208130e+003,4.391113e-003
2.210058e+003,4.250959e-003
2.211987e+003,3.965908e-003
2.213915e+003,3.694844e-003
2.215844e+003,4.196658e-003
2.217772e+003,4.164575e-003
2.219701e+003,3.767866e-003
2.221629e+003,4.138248e-003
2.223558e+003,4.459867e-003
2.225486e+003,4.712819e-003
2.227415e+003,4.883278e-003
2.229343e+003,4.732112e-003
2.231272e+003,4.638295e-003
2.233200e+003,4.641658e-003
2.235129e+003,4.709681e-003
2.237057e+003,4.878711e-003
2.238986e+003,5.154282e-003
2.240914e+003,5.112246e-003
2.242843e+003,5.179527e-003
2.244771e+003,5.238706e-003
2.246700e+003,5.085234e-003
2.248628e+003,4.693216e-003
2.250557e+003,4.880889e-003
2.252485e+003,5.197749e-003
2.254414e+003,5.056233e-003
2.256342e+003,4.620311e-003
2.258271e+003,4.697042e-003
2.260199e+003,4.756650e-003
2.262128e+003,4.847683e-003
2.264056e+003,4.838459e-003
2.265985e+003,4.640645e-003
2.267913e+003,4.781515e-003
2.269842e+003,5.212009e-003
2.271770e+003,5.577684e-003
2.273699e+003,5.697818e-003
2.275627e+003,5.752427e-003
2.277556e+003,6.078373e-003
2.279484e+003,6.253120e-003
2.281413e+003,6.281430e-003
2.283341e+003,6.358402e-003
2.285270e+003,6.420201e-003
2.287198e+003,6.617467e-003
2.289127e+003,6.786237e-003
2.291055e+003,6.872802e-003
2.292984e+003,6.960386e-003
2.294912e+003,7.023835e-003
2.296841e+003,6.910402e-003
2.298769e+003,6.921457e-003
2.300698e+003,7.178334e-003
2.302626e+003,7.485781e-003
2.304555e+003,7.493741e-003
2.306483e+003,7.434939e-003
2.308412e+003,7.385861e-003
2.310340e+003,7.542293e-003
2.312269e+003,7.655648e-003
2.314197e+003,7.584961e-003
2.316125e+003,7.640971e-003
2.318054e+003,7.847426e-003
2.319983e+003,7.923245e-003
2.321911e+003,7.861585e-003
2.323840e+003,7.921999e-003
2.325768e+003,8.020784e-003
2.327697e+003,7.983951e-003
2.329625e+003,8.072486e-003
2.331553e+003,7.930974e-003
2.333482e+003,7.852829e-003
2.335411e+003,7.876503e-003
2.337339e+003,7.895707e-003
2.339268e+003,7.790588e-003
2.341196e+003,7.607888e-003
2.343125e+003,7.646873e-003
2.345053e+003,7.278614e-003
2.346981e+003,6.954623e-003
2.348910e+003,6.810182e-003
2.350839e+003,6.548715e-003
2.352767e+003,6.456515e-003
2.354696e+003,6.374826e-003
2.356624e+003,6.518604e-003
2.358552e+003,6.315585e-003
2.360481e+003,6.150235e-003
2.362409e+003,6.042233e-003
2.364338e+003,6.134923e-003
2.366267e+003,5.928355e-003
2.368195e+003,5.956974e-003
2.370124e+003,6.149887e-003
2.372052e+003,6.403192e-003
2.373980e+003,6.502044e-003
2.375909e+003,6.628436e-003
2.377838e+003,6.613197e-003
2.379766e+003,6.646401e-003
2.381695e+003,6.669997e-003
2.383623e+003,6.650120e-003
2.385552e+003,6.597344e-003
2.387480e+003,6.630118e-003
2.389408e+003,6.654645e-003
2.391337e+003,6.670713e-003
2.393266e+003,6.621631e-003
2.395194e+003,6.618883e-003
2.397123e+003,6.594896e-003
2.399051e+003,6.671807e-003
2.400979e+003,6.786784e-003
2.402908e+003,6.798496e-003
2.404836e+003,6.813069e-003
2.406765e+003,6.862684e-003
2.408694e+003,6.882040e-003
2.410622e+003,6.808694e-003
2.412551e+003,6.835587e-003
2.414479e+003,6.802400e-003
2.416407e+003,6.655646e-003
2.418336e+003,6.623011e-003
2.420264e+003,6.617527e-003
2.422193e+003,6.536590e-003
2.424122e+003,6.450725e-003
2.426050e+003,6.508942e-003
2.427979e+003,6.643669e-003
2.429907e+003,6.502686e-003
2.431835e+003,6.481632e-003
2.433764e+003,6.525793e-003
2.435692e+003,6.438248e-003
2.437621e+003,6.321672e-003
2.439550e+003,6.225665e-003
2.441478e+003,6.354487e-003
2.443406e+003,6.377283e-003
2.445335e+003,6.379066e-003
2.447263e+003,6.257161e-003
2.449192e+003,6.308259e-003
2.451121e+003,6.395037e-003
2.453049e+003,6.357513e-003
2.454978e+003,6.469322e-003
2.456906e+003,6.473796e-003
2.458834e+003,6.328228e-003
2.460763e+003,6.279415e-003
2.462691e+003,6.319824e-003
2.464620e+003,6.391069e-003
2.466549e+003,6.511297e-003
2.468477e+003,6.481397e-003
2.470406e+003,6.409732e-003
2.472334e+003,6.345980e-003
2.474262e+003,6.382798e-003
2.476191e+003,6.289836e-003
2.478119e+003,6.375838e-003
2.480048e+003,6.391776e-003
2.481977e+003,6.320462e-003
2.483905e+003,6.311049e-003
2.485833e+003,6.363935e-003
2.487762e+003,6.362153e-003
2.489690e+003,6.344972e-003
2.491619e+003,6.344467e-003
2.493547e+003,6.362388e-003
2.495476e+003,6.421770e-003
2.497405e+003,6.447127e-003
2.499333e+003,6.502249e-003
2.501261e+003,6.505377e-003
2.503190e+003,6.481632e-003
2.505118e+003,6.472955e-003
2.507047e+003,6.525020e-003
2.508975e+003,6.485668e-003
2.510904e+003,6.471509e-003
2.512833e+003,6.473157e-003
2.514761e+003,6.565586e-003
2.516689e+003,6.545639e-003
2.518618e+003,6.435390e-003
2.520546e+003,6.556369e-003
2.522475e+003,6.669206e-003
2.524403e+003,6.731860e-003
2.526332e+003,6.610732e-003
2.528260e+003,6.459939e-003
2.530189e+003,6.532285e-003
2.532117e+003,6.549675e-003
2.534046e+003,6.634988e-003
2.535974e+003,6.600773e-003
2.537903e+003,6.476385e-003
2.539831e+003,6.484121e-003
2.541760e+003,6.437139e-003
2.543688e+003,6.319252e-003
2.545617e+003,6.283852e-003
2.547545e+003,6.275246e-003
2.549474e+003,6.409497e-003
2.551402e+003,6.518898e-003
2.553331e+003,6.446420e-003
2.555259e+003,6.404688e-003
2.557188e+003,6.277129e-003
2.559116e+003,6.171855e-003
2.561045e+003,6.203011e-003
2.562973e+003,6.261598e-003
2.564902e+003,6.322748e-003
2.566830e+003,6.357816e-003
2.568759e+003,6.345039e-003
2.570687e+003,6.350419e-003
2.572616e+003,6.389422e-003
2.574544e+003,6.312931e-003
2.576473e+003,6.170443e-003
2.578401e+003,6.098259e-003
2.580330e+003,6.039257e-003
2.582258e+003,5.968472e-003
2.584187e+003,5.947107e-003
2.586115e+003,5.909084e-003
2.588044e+003,5.918186e-003
2.589972e+003,5.936963e-003
2.591901e+003,6.013387e-003
2.593829e+003,5.991046e-003
2.595758e+003,5.899377e-003
2.597686e+003,5.886480e-003
2.599615e+003,5.952112e-003
2.601543e+003,5.919060e-003
2.603472e+003,5.931320e-003
2.605400e+003,5.910159e-003
2.607329e+003,5.919765e-003
2.609257e+003,5.933805e-003
2.611186e+003,5.906094e-003
2.613114e+003,5.898134e-003
2.615043e+003,5.925139e-003
2.616971e+003,5.964474e-003
2.618900e+003,5.991281e-003
2.620828e+003,6.011506e-003
2.622757e+003,6.022391e-003
2.624685e+003,6.087103e-003
2.626614e+003,6.146010e-003
2.628542e+003,6.185365e-003
2.630471e+003,6.215548e-003
2.632399e+003,6.212724e-003
2.634328e+003,6.251043e-003
2.636256e+003,6.329069e-003
2.638185e+003,6.477293e-003
2.640113e+003,6.587889e-003
2.642042e+003,6.674051e-003
2.643970e+003,6.762720e-003
2.645899e+003,6.818253e-003
2.647827e+003,6.922034e-003
2.649756e+003,7.039242e-003
2.651684e+003,7.111482e-003
2.653613e+003,7.241174e-003
2.655541e+003,7.313986e-003
2.657470e+003,7.331711e-003
2.659398e+003,7.370736e-003
2.661327e+003,7.451457e-003
2.663255e+003,7.498583e-003
2.665184e+003,7.527373e-003
2.667112e+003,7.549186e-003
2.669041e+003,7.594266e-003
2.670969e+003,7.631560e-003
2.672898e+003,7.650141e-003
2.674826e+003,7.708553e-003
2.676755e+003,7.734355e-003
2.678683e+003,7.743293e-003
2.680612e+003,7.760732e-003
2.682540e+003,7.782118e-003
2.684469e+003,7.765859e-003
2.686397e+003,7.740258e-003
2.688326e+003,7.774630e-003
2.690254e+003,7.813795e-003
2.692183e+003,7.805024e-003
2.694111e+003,7.756718e-003
2.696040e+003,7.804248e-003
2.697968e+003,7.834104e-003
2.699897e+003,7.797535e-003
2.701825e+003,7.839098e-003
2.703754e+003,7.871756e-003
2.705682e+003,7.840886e-003
2.707611e+003,7.884241e-003
2.709539e+003,7.913157e-003
2.711468e+003,7.906139e-003
2.713396e+003,7.859712e-003
2.715325e+003,7.837714e-003
2.717253e+003,7.874253e-003
2.719182e+003,7.915689e-003
2.721110e+003,7.900066e-003
2.723039e+003,7.966273e-003
2.724967e+003,7.948151e-003
2.726896e+003,7.891731e-003
2.728824e+003,7.896827e-003
2.730753e+003,7.956891e-003
2.732681e+003,7.978625e-003
2.734610e+003,7.971672e-003
2.736538e+003,7.978253e-003
2.738467e+003,7.958544e-003
2.740395e+003,7.909007e-003
2.742324e+003,7.946430e-003
2.744252e+003,7.973562e-003
2.746181e+003,8.010349e-003
2.748109e+003,8.020137e-003
2.750038e+003,7.982776e-003
2.751966e+003,7.990909e-003
2.753895e+003,8.003869e-003
2.755823e+003,7.989559e-003
2.757752e+003,8.019563e-003
2.759680e+003,8.083628e-003
2.761609e+003,8.124813e-003
2.763537e+003,8.130114e-003
2.765466e+003,8.146420e-003
2.767394e+003,8.136292e-003
2.769323e+003,8.114888e-003
2.771251e+003,8.095005e-003
2.773180e+003,8.148041e-003
2.775108e+003,8.163571e-003
2.777037e+003,8.145508e-003
2.778965e+003,8.166509e-003
2.780894e+003,8.187915e-003
2.782822e+003,8.198990e-003
2.784750e+003,8.220837e-003
2.786679e+003,8.221377e-003
2.788608e+003,8.274530e-003
2.790536e+003,8.341335e-003
2.792465e+003,8.334445e-003
2.794393e+003,8.299961e-003
2.796322e+003,8.353427e-003
2.798250e+003,8.375721e-003
2.800178e+003,8.376666e-003
2.802107e+003,8.381058e-003
2.804036e+003,8.409164e-003
2.805964e+003,8.469063e-003
2.807893e+003,8.523159e-003
2.809821e+003,8.528667e-003
2.811750e+003,8.555328e-003
2.813678e+003,8.605142e-003
2.815606e+003,8.670309e-003
2.817535e+003,8.721556e-003
2.819464e+003,8.769901e-003
2.821392e+003,8.816324e-003
2.823321e+003,8.864444e-003
2.825249e+003,8.890923e-003
2.827177e+003,8.963100e-003
2.829106e+003,9.057245e-003
2.831034e+003,9.127486e-003
2.832963e+003,9.153780e-003
2.834892e+003,9.247966e-003
2.836820e+003,9.352938e-003
2.838749e+003,9.388759e-003
2.840677e+003,9.487467e-003
2.842605e+003,9.592904e-003
2.844534e+003,9.662859e-003
2.846462e+003,9.724626e-003
2.848391e+003,9.844865e-003
2.850320e+003,9.959848e-003
2.852248e+003,1.001420e-002
2.854177e+003,1.011257e-002
2.856105e+003,1.016518e-002
2.858033e+003,1.015466e-002
2.859962e+003,1.021507e-002
2.861890e+003,1.031332e-002
2.863819e+003,1.041010e-002
2.865748e+003,1.049587e-002
2.867676e+003,1.051682e-002
2.869604e+003,1.053165e-002
2.871533e+003,1.056774e-002
2.873461e+003,1.061178e-002
2.875390e+003,1.067235e-002
2.877319e+003,1.071260e-002
2.879247e+003,1.073274e-002
2.881176e+003,1.078120e-002
2.883104e+003,1.080546e-002
2.885032e+003,1.078871e-002
2.886961e+003,1.080828e-002
2.888889e+003,1.088155e-002
2.890818e+003,1.092334e-002
2.892747e+003,1.091203e-002
2.894675e+003,1.088499e-002
2.896604e+003,1.090670e-002
2.898532e+003,1.089287e-002
2.900460e+003,1.091509e-002
2.902389e+003,1.082635e-002
2.904317e+003,1.076711e-002
2.906246e+003,1.071491e-002
2.908175e+003,1.067544e-002
2.910103e+003,1.061986e-002
2.912031e+003,1.062193e-002
2.913960e+003,1.061731e-002
2.915888e+003,1.057317e-002
2.917817e+003,1.056058e-002
2.919745e+003,1.051033e-002
2.921674e+003,1.045226e-002
2.923603e+003,1.040284e-002
2.925531e+003,1.037390e-002
2.927459e+003,1.031841e-002
2.929388e+003,1.021830e-002
2.931316e+003,1.010345e-002
2.933245e+003,1.006299e-002
2.935173e+003,1.005757e-002
2.937102e+003,1.001148e-002
2.939031e+003,9.916895e-003
2.940959e+003,9.857981e-003
2.942887e+003,9.835747e-003
2.944816e+003,9.660522e-003
2.946744e+003,9.485333e-003
2.948673e+003,9.427494e-003
2.950601e+003,9.306999e-003
2.952530e+003,9.210566e-003
2.954458e+003,9.082044e-003
2.956387e+003,9.048314e-003
2.958315e+003,9.068240e-003
2.960244e+003,8.976190e-003
2.962172e+003,8.856598e-003
2.964101e+003,8.798775e-003
2.966029e+003,8.762666e-003
2.967958e+003,8.691334e-003
2.969886e+003,8.687142e-003
2.971815e+003,8.659086e-003
2.973743e+003,8.594125e-003
2.975672e+003,8.551070e-003
2.977600e+003,8.440413e-003
2.979529e+003,8.356568e-003
2.981457e+003,8.326845e-003
2.983386e+003,8.350083e-003
2.985314e+003,8.297731e-003
2.987243e+003,8.251127e-003
2.989171e+003,8.237450e-003
2.991100e+003,8.218371e-003
2.993028e+003,8.161782e-003
2.994957e+003,8.144293e-003
2.996885e+003,8.103106e-003
2.998814e+003,8.151687e-003
3.000742e+003,8.205439e-003
3.002671e+003,8.202738e-003
3.004599e+003,8.154321e-003
3.006528e+003,8.193385e-003
3.008456e+003,8.229921e-003
3.010385e+003,8.195107e-003
3.012313e+003,8.170493e-003
3.014242e+003,8.168231e-003
3.016170e+003,8.184876e-003
3.018099e+003,8.171540e-003
3.020027e+003,8.170865e-003
3.021956e+003,8.273348e-003
3.023884e+003,8.329209e-003
3.025813e+003,8.353292e-003
3.027741e+003,8.321745e-003
3.029670e+003,8.340153e-003
3.031598e+003,8.376565e-003
3.033527e+003,8.372107e-003
3.035455e+003,8.381058e-003
3.037384e+003,8.425481e-003
3.039312e+003,8.536405e-003
3.041241e+003,8.597437e-003
3.043169e+003,8.546542e-003
3.045098e+003,8.578207e-003
3.047026e+003,8.555903e-003
3.048955e+003,8.551814e-003
3.050883e+003,8.642862e-003
3.052812e+003,8.637386e-003
3.054740e+003,8.696100e-003
3.056669e+003,8.814093e-003
3.058597e+003,8.846893e-003
3.060526e+003,8.815783e-003
3.062454e+003,8.824575e-003
3.064383e+003,8.868874e-003
3.066311e+003,8.929682e-003
3.068240e+003,9.029707e-003
3.070168e+003,9.075007e-003
3.072097e+003,9.105188e-003
3.074025e+003,9.082722e-003
3.075954e+003,9.073079e-003
3.077882e+003,9.126336e-003
3.079811e+003,9.125524e-003
3.081739e+003,9.170497e-003
3.083668e+003,9.291665e-003
3.085596e+003,9.375148e-003
3.087525e+003,9.428070e-003
3.089453e+003,9.493597e-003
3.091382e+003,9.482353e-003
3.093310e+003,9.447202e-003
3.095239e+003,9.538099e-003
3.097167e+003,9.665875e-003
3.099096e+003,9.763528e-003
3.101024e+003,9.748719e-003
3.102953e+003,9.705075e-003
3.104881e+003,9.654220e-003
3.106810e+003,9.691489e-003
3.108738e+003,9.831545e-003
3.110667e+003,9.910589e-003
3.112595e+003,9.863506e-003
3.114524e+003,9.904657e-003
3.116452e+003,9.918624e-003
3.118381e+003,9.905268e-003
3.120309e+003,9.979409e-003
3.122238e+003,1.004844e-002
3.124166e+003,1.014696e-002
3.126095e+003,1.021185e-002
3.128023e+003,1.019550e-002
3.129952e+003,1.028174e-002
3.131880e+003,1.030603e-002
3.133809e+003,1.036731e-002
3.135737e+003,1.037508e-002
3.137666e+003,1.035092e-002
3.139594e+003,1.043244e-002
3.141523e+003,1.061894e-002
3.143451e+003,1.062200e-002
3.145380e+003,1.060984e-002
3.147308e+003,1.078640e-002
3.149237e+003,1.090836e-002
3.151165e+003,1.089056e-002
3.153094e+003,1.091172e-002
3.155022e+003,1.094465e-002
3.156951e+003,1.097197e-002
3.158879e+003,1.104296e-002
3.160808e+003,1.112403e-002
3.162736e+003,1.119260e-002
3.164665e+003,1.136525e-002
3.166593e+003,1.143883e-002
3.168522e+003,1.146301e-002
3.170450e+003,1.155801e-002
3.172379e+003,1.163424e-002
3.174307e+003,1.164622e-002
3.176236e+003,1.172440e-002
3.178164e+003,1.183617e-002
3.180093e+003,1.186341e-002
3.182021e+003,1.189913e-002
3.183950e+003,1.195907e-002
3.185878e+003,1.200918e-002
3.187807e+003,1.207782e-002
3.189735e+003,1.209901e-002
3.191664e+003,1.216607e-002
3.193592e+003,1.226524e-002
3.195521e+003,1.238853e-002
3.197449e+003,1.248833e-002
3.199378e+003,1.251913e-002
3.201306e+003,1.260296e-002
3.203235e+003,1.273215e-002
3.205163e+003,1.276273e-002
3.207092e+003,1.282937e-002
3.209020e+003,1.284606e-002
3.210948e+003,1.292808e-002
3.212877e+003,1.298526e-002
3.214806e+003,1.301821e-002
3.216734e+003,1.310586e-002
3.218663e+003,1.323670e-002
3.220591e+003,1.324319e-002
3.222520e+003,1.340911e-002
3.224448e+003,1.349246e-002
3.226376e+003,1.358889e-002
3.228305e+003,1.369126e-002
3.230234e+003,1.381770e-002
3.232162e+003,1.381944e-002
3.234091e+003,1.389244e-002
3.236019e+003,1.411689e-002
3.237948e+003,1.420073e-002
3.239876e+003,1.418334e-002
3.241804e+003,1.433838e-002
3.243733e+003,1.441938e-002
3.245662e+003,1.444719e-002
3.247590e+003,1.456538e-002
3.249519e+003,1.471031e-002
3.251447e+003,1.475655e-002
3.253375e+003,1.481027e-002
3.255304e+003,1.494835e-002
3.257232e+003,1.506291e-002
3.259161e+003,1.515914e-002
3.261090e+003,1.524603e-002
3.263018e+003,1.539060e-002
3.264947e+003,1.555012e-002
3.266875e+003,1.561970e-002
3.268803e+003,1.570795e-002
3.270732e+003,1.576612e-002
3.272660e+003,1.581130e-002
3.274589e+003,1.585243e-002
3.276518e+003,1.603025e-002
3.278446e+003,1.609316e-002
3.280375e+003,1.602058e-002
3.282303e+003,1.601189e-002
3.284231e+003,1.617260e-002
3.286160e+003,1.631521e-002
3.288088e+003,1.630238e-002
3.290017e+003,1.630162e-002
3.291946e+003,1.628776e-002
3.293874e+003,1.634525e-002
3.295802e+003,1.639871e-002
3.297731e+003,1.640622e-002
3.299659e+003,1.646024e-002
3.301588e+003,1.655007e-002
3.303516e+003,1.652319e-002
3.305445e+003,1.653365e-002
3.307374e+003,1.660301e-002
3.309302e+003,1.661327e-002
3.311230e+003,1.662247e-002
3.313159e+003,1.662222e-002
3.315087e+003,1.669432e-002
3.317016e+003,1.689359e-002
3.318944e+003,1.696839e-002
3.320873e+003,1.692532e-002
3.322802e+003,1.695770e-002
3.324730e+003,1.700098e-002
3.326658e+003,1.700780e-002
3.328587e+003,1.704436e-002
3.330515e+003,1.704505e-002
3.332444e+003,1.708065e-002
3.334372e+003,1.708992e-002
3.336301e+003,1.708327e-002
3.338229e+003,1.702351e-002
3.340158e+003,1.699388e-002
3.342086e+003,1.704392e-002
3.344015e+003,1.696270e-002
3.345943e+003,1.688426e-002
3.347872e+003,1.688670e-002
3.349800e+003,1.685425e-002
3.351729e+003,1.681626e-002
3.353657e+003,1.677659e-002
3.355586e+003,1.671863e-002
3.357514e+003,1.664336e-002
3.359443e+003,1.661909e-002
3.361371e+003,1.658759e-002
3.363300e+003,1.645308e-002
3.365229e+003,1.643430e-002
3.367157e+003,1.634666e-002
3.369085e+003,1.623589e-002
3.371014e+003,1.613574e-002
3.372942e+003,1.609182e-002
3.374871e+003,1.610592e-002
3.376799e+003,1.610241e-002
3.378728e+003,1.599851e-002
3.380656e+003,1.584580e-002
3.382585e+003,1.586158e-002
3.384513e+003,1.582250e-002
3.386442e+003,1.569685e-002
3.388370e+003,1.564175e-002
3.390299e+003,1.566422e-002
3.392227e+003,1.551873e-002
3.394156e+003,1.543773e-002
3.396084e+003,1.544652e-002
3.398013e+003,1.544151e-002
3.399941e+003,1.528426e-002
3.401870e+003,1.517647e-002
3.403798e+003,1.512010e-002
3.405727e+003,1.506463e-002
3.407655e+003,1.495068e-002
3.409584e+003,1.486979e-002
3.411512e+003,1.482446e-002
3.413441e+003,1.476759e-002
3.415369e+003,1.465085e-002
3.417298e+003,1.452708e-002
3.419226e+003,1.437115e-002
3.421155e+003,1.428465e-002
3.423083e+003,1.418902e-002
3.425012e+003,1.409050e-002
3.426940e+003,1.397887e-002
3.428869e+003,1.380686e-002
3.430797e+003,1.369841e-002
3.432726e+003,1.364281e-002
3.434654e+003,1.343405e-002
3.436583e+003,1.324845e-002
3.438511e+003,1.311375e-002
3.440440e+003,1.298721e-002
3.442368e+003,1.284159e-002
3.444297e+003,1.268415e-002
3.446225e+003,1.251227e-002
3.448154e+003,1.240572e-002
3.450082e+003,1.226401e-002
3.452011e+003,1.214763e-002
3.453939e+003,1.201790e-002
3.455868e+003,1.186787e-002
3.457796e+003,1.176665e-002
3.459725e+003,1.163502e-002
3.461653e+003,1.151381e-002
3.463582e+003,1.128101e-002
3.465510e+003,1.106747e-002
3.467439e+003,1.090870e-002
3.469367e+003,1.084578e-002
3.471296e+003,1.075047e-002
3.473224e+003,1.071124e-002
3.475153e+003,1.061806e-002
3.477081e+003,1.048196e-002
3.479010e+003,1.027254e-002
3.480938e+003,1.008049e-002
3.482867e+003,9.988802e-003
3.484795e+003,9.928217e-003
3.486724e+003,9.788875e-003
3.488652e+003,9.597952e-003
3.490581e+003,9.487703e-003
3.492509e+003,9.512528e-003
3.494438e+003,9.391231e-003
3.496366e+003,9.185014e-003
3.498295e+003,9.071827e-003
3.500223e+003,8.962390e-003
3.502152e+003,8.859540e-003
3.504080e+003,8.781329e-003
3.506009e+003,8.689238e-003
3.507937e+003,8.607306e-003
3.509866e+003,8.468691e-003
3.511794e+003,8.456866e-003
3.513723e+003,8.335492e-003
3.515651e+003,8.281622e-003
3.517580e+003,8.210301e-003
3.519508e+003,8.113133e-003
3.521437e+003,7.994419e-003
3.523365e+003,7.885455e-003
3.525294e+003,7.826210e-003
3.527222e+003,7.723325e-003
3.529151e+003,7.601616e-003
3.531079e+003,7.512607e-003
3.533008e+003,7.469761e-003
3.534936e+003,7.366658e-003
3.536865e+003,7.366759e-003
3.538793e+003,7.309505e-003
3.540722e+003,7.232313e-003
3.542650e+003,7.110169e-003
3.544579e+003,6.903787e-003
3.546507e+003,6.835755e-003
3.548436e+003,6.755552e-003
3.550364e+003,6.649960e-003
3.552293e+003,6.610496e-003
3.554221e+003,6.549608e-003
3.556150e+003,6.389960e-003
3.558078e+003,6.376342e-003
3.560007e+003,6.393793e-003
3.561935e+003,6.234404e-003
3.563864e+003,6.079442e-003
3.565792e+003,6.014159e-003
3.567721e+003,5.890006e-003
3.569649e+003,5.879091e-003
3.571578e+003,5.921243e-003
3.573506e+003,5.782006e-003
3.575435e+003,5.600252e-003
3.577363e+003,5.620290e-003
3.579292e+003,5.506920e-003
3.581220e+003,5.364260e-003
3.583149e+003,5.242237e-003
3.585077e+003,5.112672e-003
3.587006e+003,4.971817e-003
3.588934e+003,4.998999e-003
3.590863e+003,4.983312e-003
3.592791e+003,4.809163e-003
3.594720e+003,4.728964e-003
3.596648e+003,4.683779e-003
3.598577e+003,4.628653e-003
3.600505e+003,4.526824e-003
3.602434e+003,4.458294e-003
3.604362e+003,4.362563e-003
3.606291e+003,4.309050e-003
3.608219e+003,4.321365e-003
3.610148e+003,4.421472e-003
3.612076e+003,4.360321e-003
3.614005e+003,4.198498e-003
3.615933e+003,4.128346e-003
3.617862e+003,4.131223e-003
3.619790e+003,3.991388e-003
3.621719e+003,3.773481e-003
3.623647e+003,3.693006e-003
3.625576e+003,3.545962e-003
3.627504e+003,3.533669e-003
3.629433e+003,3.517835e-003
3.631361e+003,3.503372e-003
3.633290e+003,3.534772e-003
3.635218e+003,3.642148e-003
3.637146e+003,3.606832e-003
3.639075e+003,3.619895e-003
3.641004e+003,3.778461e-003
3.642932e+003,3.738789e-003
3.644861e+003,3.694643e-003
3.646789e+003,3.516733e-003
3.648718e+003,3.354523e-003
3.650646e+003,3.385611e-003
3.652574e+003,3.423982e-003
3.654503e+003,3.483799e-003
3.656432e+003,3.480358e-003
3.658360e+003,3.450833e-003
3.660289e+003,3.472042e-003
3.662217e+003,3.478588e-003
3.664146e+003,3.423047e-003
3.666074e+003,3.470138e-003
3.668002e+003,3.550973e-003
3.669931e+003,3.718236e-003
3.671860e+003,3.551608e-003
3.673788e+003,3.291552e-003
3.675717e+003,3.241877e-003
3.677645e+003,3.317260e-003
3.679573e+003,3.313988e-003
3.681502e+003,3.216073e-003
3.683430e+003,3.132930e-003
3.685359e+003,3.180891e-003
3.687288e+003,3.213603e-003
3.689216e+003,3.058279e-003
3.691145e+003,2.917355e-003
3.693073e+003,2.990914e-003
3.695001e+003,3.070826e-003
3.696930e+003,2.963824e-003
3.698858e+003,2.865587e-003
3.700787e+003,2.868656e-003
3.702716e+003,2.906948e-003
3.704644e+003,2.827900e-003
3.706573e+003,2.819729e-003
3.708501e+003,2.799719e-003
3.710429e+003,2.813259e-003
3.712358e+003,3.089146e-003
3.714286e+003,3.230426e-003
3.716215e+003,3.017839e-003
3.718144e+003,2.720291e-003
3.720072e+003,2.653978e-003
3.722000e+003,2.432076e-003
3.723929e+003,2.348018e-003
3.725857e+003,2.466264e-003
3.727786e+003,2.453702e-003
3.729714e+003,2.333493e-003
3.731643e+003,2.290122e-003
3.733572e+003,2.341255e-003
3.735500e+003,2.499255e-003
3.737428e+003,2.649911e-003
3.739357e+003,2.743298e-003
3.741285e+003,2.944976e-003
3.743214e+003,3.129459e-003
3.745142e+003,3.126957e-003
3.747071e+003,3.073595e-003
3.749000e+003,3.184529e-003
3.750928e+003,3.193542e-003
3.752856e+003,3.130260e-003
3.754785e+003,2.983107e-003
3.756713e+003,3.056711e-003
3.758642e+003,3.030685e-003
3.760570e+003,3.043197e-003
3.762499e+003,3.094152e-003
3.764427e+003,3.107100e-003
3.766356e+003,3.128525e-003
3.768284e+003,3.185464e-003
3.770213e+003,3.197080e-003
3.772141e+003,3.214971e-003
3.774070e+003,3.125989e-003
3.775998e+003,3.167874e-003
3.777927e+003,3.173882e-003
3.779855e+003,3.212902e-003
3.781784e+003,3.240908e-003
3.783712e+003,3.195110e-003
3.785641e+003,3.203589e-003
3.787569e+003,3.211633e-003
3.789498e+003,3.215238e-003
3.791426e+003,3.307912e-003
3.793355e+003,3.310282e-003
3.795283e+003,3.246550e-003
3.797212e+003,3.241843e-003
3.799140e+003,3.368748e-003
3.801069e+003,3.399202e-003
3.802997e+003,3.393191e-003
3.804926e+003,3.398535e-003
3.806854e+003,3.362704e-003
3.808783e+003,3.273858e-003
3.810711e+003,3.328546e-003
3.812640e+003,3.329748e-003
3.814568e+003,3.335991e-003
3.816497e+003,3.304473e-003
3.818425e+003,3.262707e-003
3.820354e+003,3.266480e-003
3.822282e+003,3.302904e-003
3.824211e+003,3.330315e-003
3.826139e+003,3.324906e-003
3.828068e+003,3.344439e-003
3.829996e+003,3.297328e-003
3.831925e+003,3.245515e-003
3.833853e+003,3.310149e-003
3.835782e+003,3.372655e-003
3.837710e+003,3.426720e-003
3.839639e+003,3.269651e-003
3.841567e+003,3.213402e-003
3.843496e+003,3.142175e-003
3.845424e+003,3.207227e-003
3.847353e+003,3.347645e-003
3.849281e+003,3.382906e-003
3.851210e+003,3.379100e-003
3.853138e+003,3.422278e-003
3.855067e+003,3.432665e-003
3.856995e+003,3.320733e-003
3.858924e+003,3.334856e-003
3.860852e+003,3.274793e-003
3.862781e+003,3.277931e-003
3.864709e+003,3.310449e-003
3.866638e+003,3.373256e-003
3.868566e+003,3.398635e-003
3.870495e+003,3.345875e-003
3.872423e+003,3.301401e-003
3.874352e+003,3.373022e-003
3.876280e+003,3.426754e-003
3.878209e+003,3.407351e-003
3.880137e+003,3.292354e-003
3.882066e+003,3.320933e-003
3.883994e+003,3.386746e-003
3.885923e+003,3.337527e-003
3.887851e+003,3.338195e-003
3.889780e+003,3.385778e-003
3.891708e+003,3.410423e-003
3.893637e+003,3.346109e-003
3.895565e+003,3.333521e-003
3.897494e+003,3.399937e-003
3.899422e+003,3.398935e-003
3.901351e+003,3.324506e-003
3.903279e+003,3.402375e-003
3.905208e+003,3.403878e-003
3.907136e+003,3.400605e-003
3.909065e+003,3.493018e-003
3.910993e+003,3.508449e-003
3.912922e+003,3.408453e-003
3.914850e+003,3.407317e-003
3.916779e+003,3.352253e-003
3.918707e+003,3.335891e-003
3.920636e+003,3.374124e-003
3.922564e+003,3.358563e-003
3.924493e+003,3.339831e-003
3.926421e+003,3.395596e-003
3.928350e+003,3.407484e-003
3.930278e+003,3.376395e-003
3.932207e+003,3.344205e-003
3.934135e+003,3.366110e-003
3.936064e+003,3.336025e-003
3.937992e+003,3.411091e-003
3.939921e+003,3.411124e-003
3.941849e+003,3.386513e-003
3.943778e+003,3.398501e-003
3.945706e+003,3.403243e-003
3.947635e+003,3.417737e-003
3.949563e+003,3.361135e-003
3.951492e+003,3.392557e-003
3.953420e+003,3.457880e-003
3.955349e+003,3.476584e-003
3.957277e+003,3.435704e-003
3.959206e+003,3.342402e-003
3.961134e+003,3.364207e-003
3.963063e+003,3.357595e-003
3.964991e+003,3.346409e-003
3.966920e+003,3.400104e-003
3.968848e+003,3.468034e-003
3.970777e+003,3.493118e-003
3.972705e+003,3.405046e-003
3.974634e+003,3.401273e-003
3.976562e+003,3.438910e-003
3.978491e+003,3.480759e-003
3.980419e+003,3.440113e-003
3.982348e+003,3.452704e-003
3.984276e+003,3.514996e-003
3.986205e+003,3.446592e-003
3.988133e+003,3.476183e-003
3.990062e+003,3.436973e-003
3.991990e+003,3.308413e-003
3.993919e+003,3.311985e-003
3.995847e+003,3.336759e-003
3.997776e+003,3.389118e-003
3.999704e+003,3.389118e-003
4.001633e+003,0.000000e+000
