3.991989e+002,3.441606e-002
4.011274e+002,3.101669e-002
4.030559e+002,3.101669e-002
4.049844e+002,3.073433e-002
4.069129e+002,2.930276e-002
4.088414e+002,2.855091e-002
4.107699e+002,2.867106e-002
4.126984e+002,2.913315e-002
4.146269e+002,3.014051e-002
4.165554e+002,3.052084e-002
4.184839e+002,3.080877e-002
4.204124e+002,3.098214e-002
4.223409e+002,3.099045e-002
4.242694e+002,3.072034e-002
4.261979e+002,3.088005e-002
4.281264e+002,3.143451e-002
4.300549e+002,3.188233e-002
4.319834e+002,3.160650e-002
4.339119e+002,3.200530e-002
4.358404e+002,3.175214e-002
4.377689e+002,3.118077e-002
4.396974e+002,3.133945e-002
4.416259e+002,3.188101e-002
4.435544e+002,3.205143e-002
4.454829e+002,3.272609e-002
4.474114e+002,3.279732e-002
4.493399e+002,3.225801e-002
4.512684e+002,3.143398e-002
4.531969e+002,3.099092e-002
4.551254e+002,3.015921e-002
4.570539e+002,3.042175e-002
4.589824e+002,3.057173e-002
4.609109e+002,3.044617e-002
4.628394e+002,3.048433e-002
4.647679e+002,2.964222e-002
4.666964e+002,2.979858e-002
4.686249e+002,3.062368e-002
4.705533e+002,3.023697e-002
4.724819e+002,3.055112e-002
4.744103e+002,3.063591e-002
4.763389e+002,3.005112e-002
4.782673e+002,3.008567e-002
4.801959e+002,3.026029e-002
4.821243e+002,3.045250e-002
4.840529e+002,3.029064e-002
4.859813e+002,3.053417e-002
4.879099e+002,3.048187e-002
4.898383e+002,3.087816e-002
4.917668e+002,3.128740e-002
4.936953e+002,3.124301e-002
4.956238e+002,3.105847e-002
4.975523e+002,3.099011e-002
4.994808e+002,3.099756e-002
5.014093e+002,3.078032e-002
5.033378e+002,3.098546e-002
5.052663e+002,3.104151e-002
5.071948e+002,3.093689e-002
5.091233e+002,3.162831e-002
5.110518e+002,3.203247e-002
5.129803e+002,3.187988e-002
5.149088e+002,3.221500e-002
5.168373e+002,3.264069e-002
5.187658e+002,3.303051e-002
5.206943e+002,3.285402e-002
5.226228e+002,3.307085e-002
5.245513e+002,3.307512e-002
5.264798e+002,3.321387e-002
5.284083e+002,3.311180e-002
5.303368e+002,3.321061e-002
5.322653e+002,3.304652e-002
5.341938e+002,3.300864e-002
5.361223e+002,3.273435e-002
5.380508e+002,3.247967e-002
5.399792e+002,3.278928e-002
5.419078e+002,3.324243e-002
5.438363e+002,3.279513e-002
5.457648e+002,3.245328e-002
5.476932e+002,3.243954e-002
5.496218e+002,3.257971e-002
5.515503e+002,3.262891e-002
5.534788e+002,3.285626e-002
5.554072e+002,3.327748e-002
5.573358e+002,3.397967e-002
5.592643e+002,3.418769e-002
5.611927e+002,3.414339e-002
5.631212e+002,3.363515e-002
5.650497e+002,3.323532e-002
5.669783e+002,3.274276e-002
5.689067e+002,3.268250e-002
5.708352e+002,3.263608e-002
5.727637e+002,3.254816e-002
5.746923e+002,3.224539e-002
5.766207e+002,3.228820e-002
5.785492e+002,3.212606e-002
5.804777e+002,3.177164e-002
5.824063e+002,3.169227e-002
5.843347e+002,3.193517e-002
5.862632e+002,3.182766e-002
5.881917e+002,3.213767e-002
5.901202e+002,3.217965e-002
5.920487e+002,3.211939e-002
5.939772e+002,3.205338e-002
5.959057e+002,3.192294e-002
5.978342e+002,3.178422e-002
5.997627e+002,3.182225e-002
6.016912e+002,3.166233e-002
6.036197e+002,3.177428e-002
6.055482e+002,3.176206e-002
6.074767e+002,3.177798e-002
6.094052e+002,3.165835e-002
6.113337e+002,3.126782e-002
6.132622e+002,3.097363e-002
6.151907e+002,3.064762e-002
6.171192e+002,3.052706e-002
6.190477e+002,3.006930e-002
6.209762e+002,2.943714e-002
6.229047e+002,2.918330e-002
6.248332e+002,2.893898e-002
6.267617e+002,2.862469e-002
6.286902e+002,2.822799e-002
6.306187e+002,2.787917e-002
6.325472e+002,2.766887e-002
6.344756e+002,2.764816e-002
6.364042e+002,2.725797e-002
6.383326e+002,2.688471e-002
6.402612e+002,2.657359e-002
6.421896e+002,2.643448e-002
6.441182e+002,2.613323e-002
6.460466e+002,2.602221e-002
6.479752e+002,2.586774e-002
6.499036e+002,2.564858e-002
6.518322e+002,2.535784e-002
6.537606e+002,2.525349e-002
6.556891e+002,2.525775e-002
6.576177e+002,2.554196e-002
6.595461e+002,2.569409e-002
6.614746e+002,2.587781e-002
6.634031e+002,2.608132e-002
6.653317e+002,2.630999e-002
6.672601e+002,2.592381e-002
6.691886e+002,2.569124e-002
6.711171e+002,2.529613e-002
6.730457e+002,2.471810e-002
6.749741e+002,2.395908e-002
6.769026e+002,2.320340e-002
6.788311e+002,2.251792e-002
6.807596e+002,2.194917e-002
6.826881e+002,2.141086e-002
6.846166e+002,2.129184e-002
6.865451e+002,2.118083e-002
6.884736e+002,2.092918e-002
6.904021e+002,2.080280e-002
6.923306e+002,2.080003e-002
6.942591e+002,2.073146e-002
6.961876e+002,2.059267e-002
6.981161e+002,2.055151e-002
7.000446e+002,2.069309e-002
7.019731e+002,2.044359e-002
7.039016e+002,2.019054e-002
7.058301e+002,2.002187e-002
7.077585e+002,1.992888e-002
7.096871e+002,1.986377e-002
7.116156e+002,1.965947e-002
7.135441e+002,1.938565e-002
7.154725e+002,1.934521e-002
7.174011e+002,1.910800e-002
7.193296e+002,1.900116e-002
7.212581e+002,1.876325e-002
7.231865e+002,1.853252e-002
7.251151e+002,1.843322e-002
7.270436e+002,1.827665e-002
7.289720e+002,1.797637e-002
7.309005e+002,1.767260e-002
7.328290e+002,1.753068e-002
7.347576e+002,1.741567e-002
7.366860e+002,1.724028e-002
7.386145e+002,1.707448e-002
7.405430e+002,1.687399e-002
7.424716e+002,1.678804e-002
7.444000e+002,1.658258e-002
7.463285e+002,1.651758e-002
7.482570e+002,1.649564e-002
7.501855e+002,1.623016e-002
7.521140e+002,1.597868e-002
7.540425e+002,1.594151e-002
7.559710e+002,1.574635e-002
7.578995e+002,1.569224e-002
7.598280e+002,1.562678e-002
7.617565e+002,1.543430e-002
7.636850e+002,1.531577e-002
7.656135e+002,1.525917e-002
7.675420e+002,1.514439e-002
7.694705e+002,1.509766e-002
7.713990e+002,1.495497e-002
7.733275e+002,1.488687e-002
7.752560e+002,1.474099e-002
7.771844e+002,1.472646e-002
7.791130e+002,1.468865e-002
7.810415e+002,1.455816e-002
7.829700e+002,1.456443e-002
7.848984e+002,1.456377e-002
7.868270e+002,1.451060e-002
7.887555e+002,1.447970e-002
7.906840e+002,1.440824e-002
7.926124e+002,1.440009e-002
7.945410e+002,1.435889e-002
7.964695e+002,1.445743e-002
7.983979e+002,1.446041e-002
8.003264e+002,1.441900e-002
8.022549e+002,1.441568e-002
8.041835e+002,1.439036e-002
8.061119e+002,1.425126e-002
8.080404e+002,1.430177e-002
8.099689e+002,1.443051e-002
8.118975e+002,1.450628e-002
8.138259e+002,1.438009e-002
8.157545e+002,1.439711e-002
8.176830e+002,1.442246e-002
8.196115e+002,1.451838e-002
8.215399e+002,1.459064e-002
8.234684e+002,1.467950e-002
8.253970e+002,1.472598e-002
8.273254e+002,1.484785e-002
8.292539e+002,1.491577e-002
8.311824e+002,1.505965e-002
8.331110e+002,1.520567e-002
8.350394e+002,1.523796e-002
8.369679e+002,1.508476e-002
8.388964e+002,1.493066e-002
8.408250e+002,1.476636e-002
8.427534e+002,1.471700e-002
8.446819e+002,1.452848e-002
8.466104e+002,1.440102e-002
8.485389e+002,1.427653e-002
8.504674e+002,1.421398e-002
8.523959e+002,1.417998e-002
8.543244e+002,1.423240e-002
8.562529e+002,1.425356e-002
8.581814e+002,1.427290e-002
8.601099e+002,1.436177e-002
8.620384e+002,1.447435e-002
8.639669e+002,1.447131e-002
8.658954e+002,1.451985e-002
8.678239e+002,1.456281e-002
8.697524e+002,1.453366e-002
8.716809e+002,1.461096e-002
8.736094e+002,1.483077e-002
8.755378e+002,1.492575e-002
8.774664e+002,1.497174e-002
8.793949e+002,1.504360e-002
8.813234e+002,1.520838e-002
8.832518e+002,1.537618e-002
8.851804e+002,1.569771e-002
8.871089e+002,1.609908e-002
8.890374e+002,1.647046e-002
8.909658e+002,1.688171e-002
8.928943e+002,1.729251e-002
8.948229e+002,1.764639e-002
8.967513e+002,1.786094e-002
8.986798e+002,1.773129e-002
9.006083e+002,1.748189e-002
9.025369e+002,1.723249e-002
9.044653e+002,1.692622e-002
9.063938e+002,1.652663e-002
9.083223e+002,1.633630e-002
9.102509e+002,1.619234e-002
9.121793e+002,1.609313e-002
9.141078e+002,1.607480e-002
9.160364e+002,1.601020e-002
9.179648e+002,1.598927e-002
9.198933e+002,1.603554e-002
9.218218e+002,1.612212e-002
9.237504e+002,1.623668e-002
9.256788e+002,1.635581e-002
9.276073e+002,1.654763e-002
9.295358e+002,1.665531e-002
9.314644e+002,1.685305e-002
9.333928e+002,1.708138e-002
9.353213e+002,1.727403e-002
9.372498e+002,1.755899e-002
9.391783e+002,1.784717e-002
9.411068e+002,1.826141e-002
9.430353e+002,1.871818e-002
9.449637e+002,1.919192e-002
9.468923e+002,1.967113e-002
9.488208e+002,2.012818e-002
9.507493e+002,2.061148e-002
9.526777e+002,2.111115e-002
9.546063e+002,2.182576e-002
9.565348e+002,2.255380e-002
9.584633e+002,2.324957e-002
9.603917e+002,2.389096e-002
9.623203e+002,2.456216e-002
9.642488e+002,2.517899e-002
9.661772e+002,2.586642e-002
9.681057e+002,2.644708e-002
9.700343e+002,2.712771e-002
9.719628e+002,2.784936e-002
9.738912e+002,2.862201e-002
9.758197e+002,2.945695e-002
9.777483e+002,3.045734e-002
9.796768e+002,3.154220e-002
9.816052e+002,3.279094e-002
9.835337e+002,3.398570e-002
9.854623e+002,3.511897e-002
9.873907e+002,3.603527e-002
9.893192e+002,3.683630e-002
9.912477e+002,3.732691e-002
9.931763e+002,3.756951e-002
9.951047e+002,3.759711e-002
9.970332e+002,3.771181e-002
9.989617e+002,3.810200e-002
1.000890e+003,3.881051e-002
1.002819e+003,3.945329e-002
1.004747e+003,4.000064e-002
1.006676e+003,4.053593e-002
1.008604e+003,4.109747e-002
1.010533e+003,4.169196e-002
1.012461e+003,4.235178e-002
1.014390e+003,4.306612e-002
1.016318e+003,4.396896e-002
1.018247e+003,4.487338e-002
1.020175e+003,4.578735e-002
1.022104e+003,4.666823e-002
1.024032e+003,4.760784e-002
1.025961e+003,4.861033e-002
1.027889e+003,4.968171e-002
1.029818e+003,5.058416e-002
1.031746e+003,5.142347e-002
1.033675e+003,5.186670e-002
1.035603e+003,5.186625e-002
1.037532e+003,5.139990e-002
1.039460e+003,5.072825e-002
1.041389e+003,4.996562e-002
1.043317e+003,4.940677e-002
1.045246e+003,4.906390e-002
1.047174e+003,4.895870e-002
1.049103e+003,4.881079e-002
1.051031e+003,4.882083e-002
1.052960e+003,4.862156e-002
1.054888e+003,4.814783e-002
1.056817e+003,4.739500e-002
1.058745e+003,4.652290e-002
1.060674e+003,4.550229e-002
1.062602e+003,4.431785e-002
1.064531e+003,4.295542e-002
1.066459e+003,4.155204e-002
1.068388e+003,4.022860e-002
1.070316e+003,3.914063e-002
1.072245e+003,3.810688e-002
1.074173e+003,3.710432e-002
1.076102e+003,3.614756e-002
1.078030e+003,3.507655e-002
1.079959e+003,3.405074e-002
1.081887e+003,3.321347e-002
1.083816e+003,3.252564e-002
1.085744e+003,3.201199e-002
1.087673e+003,3.159726e-002
1.089601e+003,3.139950e-002
1.091530e+003,3.123244e-002
1.093458e+003,3.109795e-002
1.095387e+003,3.096421e-002
1.097315e+003,3.096570e-002
1.099244e+003,3.108126e-002
1.101172e+003,3.125626e-002
1.103101e+003,3.135754e-002
1.105029e+003,3.140908e-002
1.106958e+003,3.121802e-002
1.108886e+003,3.081333e-002
1.110815e+003,3.011110e-002
1.112743e+003,2.929096e-002
1.114672e+003,2.837360e-002
1.116600e+003,2.742587e-002
1.118529e+003,2.664186e-002
1.120457e+003,2.603509e-002
1.122386e+003,2.537777e-002
1.124314e+003,2.460350e-002
1.126243e+003,2.372439e-002
1.128171e+003,2.278818e-002
1.130100e+003,2.172546e-002
1.132028e+003,2.070221e-002
1.133957e+003,1.976184e-002
1.135885e+003,1.902008e-002
1.137814e+003,1.848326e-002
1.139742e+003,1.816719e-002
1.141671e+003,1.807222e-002
1.143599e+003,1.821715e-002
1.145528e+003,1.852150e-002
1.147456e+003,1.899190e-002
1.149385e+003,1.949242e-002
1.151313e+003,1.999940e-002
1.153242e+003,2.051327e-002
1.155170e+003,2.109505e-002
1.157099e+003,2.157664e-002
1.159027e+003,2.185412e-002
1.160956e+003,2.186165e-002
1.162884e+003,2.164232e-002
1.164813e+003,2.111568e-002
1.166741e+003,2.027112e-002
1.168670e+003,1.920515e-002
1.170598e+003,1.805226e-002
1.172526e+003,1.686796e-002
1.174455e+003,1.572447e-002
1.176384e+003,1.470359e-002
1.178312e+003,1.387479e-002
1.180240e+003,1.316470e-002
1.182169e+003,1.261186e-002
1.184098e+003,1.221422e-002
1.186026e+003,1.194138e-002
1.187954e+003,1.179048e-002
1.189883e+003,1.174017e-002
1.191812e+003,1.179879e-002
1.193740e+003,1.199912e-002
1.195668e+003,1.227098e-002
1.197597e+003,1.251492e-002
1.199526e+003,1.279194e-002
1.201454e+003,1.301585e-002
1.203382e+003,1.311089e-002
1.205311e+003,1.312472e-002
1.207240e+003,1.308142e-002
1.209168e+003,1.310193e-002
1.211096e+003,1.318716e-002
1.213025e+003,1.336541e-002
1.214953e+003,1.361434e-002
1.216882e+003,1.387102e-002
1.218810e+003,1.417834e-002
1.220739e+003,1.455847e-002
1.222667e+003,1.493840e-002
1.224596e+003,1.532748e-002
1.226524e+003,1.570673e-002
1.228453e+003,1.608025e-002
1.230381e+003,1.633928e-002
1.232310e+003,1.661178e-002
1.234238e+003,1.681143e-002
1.236167e+003,1.694864e-002
1.238095e+003,1.705238e-002
1.240024e+003,1.711525e-002
1.241952e+003,1.709687e-002
1.243881e+003,1.700548e-002
1.245809e+003,1.685566e-002
1.247738e+003,1.672192e-002
1.249666e+003,1.652950e-002
1.251595e+003,1.632908e-002
1.253523e+003,1.614081e-002
1.255452e+003,1.595948e-002
1.257380e+003,1.574834e-002
1.259309e+003,1.555010e-002
1.261237e+003,1.523896e-002
1.263166e+003,1.493362e-002
1.265094e+003,1.458718e-002
1.267023e+003,1.419352e-002
1.268951e+003,1.385119e-002
1.270880e+003,1.355222e-002
1.272808e+003,1.323493e-002
1.274737e+003,1.295459e-002
1.276665e+003,1.270873e-002
1.278594e+003,1.247218e-002
1.280522e+003,1.230045e-002
1.282451e+003,1.211980e-002
1.284379e+003,1.195761e-002
1.286308e+003,1.181888e-002
1.288236e+003,1.167721e-002
1.290165e+003,1.153468e-002
1.292093e+003,1.151131e-002
1.294022e+003,1.157591e-002
1.295950e+003,1.164533e-002
1.297879e+003,1.177973e-002
1.299807e+003,1.197144e-002
1.301736e+003,1.217671e-002
1.303664e+003,1.241626e-002
1.305593e+003,1.271333e-002
1.307521e+003,1.299533e-002
1.309450e+003,1.330682e-002
1.311378e+003,1.354704e-002
1.313307e+003,1.377001e-002
1.315235e+003,1.391432e-002
1.317164e+003,1.397608e-002
1.319092e+003,1.396118e-002
1.321021e+003,1.389265e-002
1.322949e+003,1.377069e-002
1.324878e+003,1.368042e-002
1.326806e+003,1.356965e-002
1.328735e+003,1.343944e-002
1.330663e+003,1.339034e-002
1.332592e+003,1.338887e-002
1.334520e+003,1.328391e-002
1.336449e+003,1.310842e-002
1.338377e+003,1.286185e-002
1.340306e+003,1.264600e-002
1.342234e+003,1.252443e-002
1.344163e+003,1.244051e-002
1.346091e+003,1.234249e-002
1.348020e+003,1.234354e-002
1.349948e+003,1.240407e-002
1.351877e+003,1.251112e-002
1.353805e+003,1.265445e-002
1.355734e+003,1.280713e-002
1.357662e+003,1.292791e-002
1.359591e+003,1.305112e-002
1.361519e+003,1.322498e-002
1.363448e+003,1.341635e-002
1.365376e+003,1.356553e-002
1.367305e+003,1.362953e-002
1.369233e+003,1.363472e-002
1.371162e+003,1.357915e-002
1.373090e+003,1.344388e-002
1.375019e+003,1.327850e-002
1.376947e+003,1.300549e-002
1.378876e+003,1.266669e-002
1.380804e+003,1.229033e-002
1.382733e+003,1.189876e-002
1.384661e+003,1.152534e-002
1.386590e+003,1.123444e-002
1.388518e+003,1.102586e-002
1.390447e+003,1.084450e-002
1.392375e+003,1.068567e-002
1.394304e+003,1.058892e-002
1.396232e+003,1.055325e-002
1.398161e+003,1.052269e-002
1.400089e+003,1.049635e-002
1.402018e+003,1.050047e-002
1.403946e+003,1.053447e-002
1.405875e+003,1.061384e-002
1.407803e+003,1.067736e-002
1.409732e+003,1.080537e-002
1.411660e+003,1.098029e-002
1.413589e+003,1.116515e-002
1.415517e+003,1.138763e-002
1.417446e+003,1.156197e-002
1.419374e+003,1.172577e-002
1.421303e+003,1.183652e-002
1.423231e+003,1.184545e-002
1.425160e+003,1.185040e-002
1.427088e+003,1.175636e-002
1.429017e+003,1.158198e-002
1.430945e+003,1.140162e-002
1.432874e+003,1.121008e-002
1.434802e+003,1.093532e-002
1.436731e+003,1.075728e-002
1.438659e+003,1.065359e-002
1.440588e+003,1.052446e-002
1.442516e+003,1.041642e-002
1.444445e+003,1.039488e-002
1.446373e+003,1.044592e-002
1.448302e+003,1.054686e-002
1.450230e+003,1.059419e-002
1.452159e+003,1.057173e-002
1.454087e+003,1.050482e-002
1.456016e+003,1.049664e-002
1.457944e+003,1.043682e-002
1.459873e+003,1.034089e-002
1.461801e+003,1.026264e-002
1.463730e+003,1.013399e-002
1.465658e+003,9.891208e-003
1.467587e+003,9.494095e-003
1.469515e+003,8.981050e-003
1.471444e+003,8.550751e-003
1.473372e+003,8.236764e-003
1.475301e+003,7.884368e-003
1.477229e+003,7.625998e-003
1.479158e+003,7.483765e-003
1.481086e+003,7.390876e-003
1.483015e+003,7.322463e-003
1.484943e+003,7.297256e-003
1.486872e+003,7.331276e-003
1.488800e+003,7.415924e-003
1.490729e+003,7.628110e-003
1.492657e+003,7.847349e-003
1.494586e+003,8.006814e-003
1.496514e+003,8.147995e-003
1.498443e+003,8.286919e-003
1.500371e+003,8.435057e-003
1.502300e+003,8.526904e-003
1.504228e+003,8.592687e-003
1.506157e+003,8.610213e-003
1.508085e+003,8.643043e-003
1.510014e+003,8.589418e-003
1.511942e+003,8.562725e-003
1.513871e+003,8.512383e-003
1.515799e+003,8.325133e-003
1.517728e+003,8.001864e-003
1.519656e+003,7.685199e-003
1.521585e+003,7.410116e-003
1.523513e+003,7.190939e-003
1.525442e+003,7.067594e-003
1.527370e+003,7.012286e-003
1.529299e+003,6.983118e-003
1.531227e+003,6.895678e-003
1.533156e+003,6.856619e-003
1.535084e+003,6.901640e-003
1.537013e+003,6.878234e-003
1.538941e+003,6.896208e-003
1.540870e+003,6.923931e-003
1.542798e+003,6.927143e-003
1.544727e+003,6.940840e-003
1.546655e+003,6.995213e-003
1.548584e+003,7.018743e-003
1.550512e+003,7.050985e-003
1.552441e+003,7.078049e-003
1.554369e+003,7.092186e-003
1.556298e+003,7.100903e-003
1.558226e+003,7.102635e-003
1.560155e+003,7.234776e-003
1.562083e+003,7.286468e-003
1.564012e+003,7.371264e-003
1.565940e+003,7.447240e-003
1.567869e+003,7.487899e-003
1.569797e+003,7.577350e-003
1.571726e+003,7.775624e-003
1.573654e+003,7.943823e-003
1.575583e+003,8.227479e-003
1.577511e+003,8.428943e-003
1.579440e+003,8.566085e-003
1.581368e+003,8.825832e-003
1.583297e+003,9.076502e-003
1.585225e+003,9.339035e-003
1.587154e+003,9.623095e-003
1.589082e+003,9.832754e-003
1.591010e+003,9.986521e-003
1.592939e+003,1.008513e-002
1.594868e+003,1.010372e-002
1.596796e+003,1.014580e-002
1.598724e+003,1.018039e-002
1.600653e+003,1.023627e-002
1.602582e+003,1.026999e-002
1.604510e+003,1.022218e-002
1.606438e+003,1.006229e-002
1.608367e+003,9.827464e-003
1.610296e+003,9.627569e-003
1.612224e+003,9.536733e-003
1.614152e+003,9.461102e-003
1.616081e+003,9.483587e-003
1.618010e+003,9.523233e-003
1.619938e+003,9.468173e-003
1.621866e+003,9.506674e-003
1.623795e+003,9.560969e-003
1.625724e+003,9.603857e-003
1.627652e+003,9.622418e-003
1.629580e+003,9.614442e-003
1.631509e+003,9.568866e-003
1.633438e+003,9.543432e-003
1.635366e+003,9.496762e-003
1.637294e+003,9.394719e-003
1.639223e+003,9.291787e-003
1.641151e+003,9.256484e-003
1.643080e+003,9.215055e-003
1.645008e+003,9.219656e-003
1.646937e+003,9.167933e-003
1.648865e+003,9.173847e-003
1.650794e+003,9.200270e-003
1.652722e+003,9.177996e-003
1.654651e+003,9.055016e-003
1.656579e+003,8.908917e-003
1.658508e+003,8.831483e-003
1.660436e+003,8.720209e-003
1.662365e+003,8.533025e-003
1.664293e+003,8.419080e-003
1.666222e+003,8.249455e-003
1.668150e+003,8.097214e-003
1.670079e+003,7.986097e-003
1.672007e+003,7.883783e-003
1.673936e+003,7.724976e-003
1.675864e+003,7.660650e-003
1.677793e+003,7.586630e-003
1.679721e+003,7.530055e-003
1.681650e+003,7.442795e-003
1.683578e+003,7.448927e-003
1.685507e+003,7.555377e-003
1.687435e+003,7.349509e-003
1.689364e+003,7.302108e-003
1.691292e+003,7.266342e-003
1.693221e+003,7.275285e-003
1.695149e+003,7.326807e-003
1.697078e+003,7.345136e-003
1.699006e+003,7.234060e-003
1.700935e+003,7.259183e-003
1.702863e+003,7.251028e-003
1.704792e+003,7.240936e-003
1.706720e+003,7.313163e-003
1.708649e+003,7.401408e-003
1.710577e+003,7.398179e-003
1.712506e+003,7.478016e-003
1.714434e+003,7.514290e-003
1.716363e+003,7.589874e-003
1.718291e+003,7.664528e-003
1.720220e+003,7.726190e-003
1.722148e+003,7.796332e-003
1.724077e+003,7.918297e-003
1.726005e+003,7.959605e-003
1.727934e+003,7.961719e-003
1.729862e+003,7.967103e-003
1.731791e+003,7.953264e-003
1.733719e+003,7.881900e-003
1.735648e+003,7.820861e-003
1.737576e+003,7.610792e-003
1.739505e+003,7.410314e-003
1.741433e+003,7.265261e-003
1.743362e+003,7.067367e-003
1.745290e+003,6.830808e-003
1.747219e+003,6.652372e-003
1.749147e+003,6.493451e-003
1.751076e+003,6.292761e-003
1.753004e+003,6.085013e-003
1.754933e+003,5.879527e-003
1.756861e+003,5.712075e-003
1.758790e+003,5.605602e-003
1.760718e+003,5.466978e-003
1.762647e+003,5.344492e-003
1.764575e+003,5.244133e-003
1.766504e+003,5.131579e-003
1.768432e+003,5.093765e-003
1.770361e+003,5.017993e-003
1.772289e+003,5.011078e-003
1.774218e+003,5.005194e-003
1.776146e+003,5.003832e-003
1.778075e+003,5.001276e-003
1.780003e+003,4.971856e-003
1.781932e+003,4.991021e-003
1.783860e+003,4.975307e-003
1.785789e+003,4.973854e-003
1.787717e+003,5.002842e-003
1.789646e+003,5.038974e-003
1.791574e+003,5.053950e-003
1.793503e+003,5.070756e-003
1.795431e+003,5.065463e-003
1.797360e+003,5.069975e-003
1.799288e+003,5.114836e-003
1.801217e+003,5.085220e-003
1.803145e+003,5.085005e-003
1.805074e+003,5.105689e-003
1.807002e+003,5.119361e-003
1.808931e+003,5.149341e-003
1.810859e+003,5.116892e-003
1.812788e+003,5.105105e-003
1.814716e+003,5.078943e-003
1.816645e+003,5.071522e-003
1.818573e+003,5.119176e-003
1.820502e+003,5.096556e-003
1.822430e+003,5.120994e-003
1.824359e+003,5.147652e-003
1.826287e+003,5.102511e-003
1.828216e+003,5.116841e-003
1.830144e+003,5.089642e-003
1.832073e+003,5.026489e-003
1.834001e+003,5.074347e-003
1.835930e+003,5.149577e-003
1.837858e+003,5.113629e-003
1.839787e+003,5.047387e-003
1.841715e+003,4.967575e-003
1.843644e+003,4.942885e-003
1.845572e+003,5.005944e-003
1.847501e+003,5.018663e-003
1.849429e+003,5.125257e-003
1.851358e+003,5.194956e-003
1.853286e+003,5.132237e-003
1.855215e+003,5.204926e-003
1.857143e+003,5.177871e-003
1.859072e+003,5.089484e-003
1.861000e+003,4.964542e-003
1.862929e+003,4.978857e-003
1.864857e+003,5.041621e-003
1.866786e+003,5.149914e-003
1.868714e+003,5.043450e-003
1.870643e+003,5.024762e-003
1.872571e+003,5.227023e-003
1.874500e+003,5.245922e-003
1.876428e+003,5.301015e-003
1.878357e+003,5.306290e-003
1.880285e+003,5.204493e-003
1.882214e+003,5.199686e-003
1.884142e+003,5.183265e-003
1.886071e+003,5.220218e-003
1.887999e+003,5.386126e-003
1.889928e+003,5.478408e-003
1.891856e+003,5.398198e-003
1.893785e+003,5.462170e-003
1.895713e+003,5.577845e-003
1.897642e+003,5.644325e-003
1.899570e+003,5.501977e-003
1.901499e+003,5.491161e-003
1.903427e+003,5.584904e-003
1.905356e+003,5.457253e-003
1.907284e+003,5.424453e-003
1.909213e+003,5.666392e-003
1.911141e+003,5.620550e-003
1.913070e+003,5.564574e-003
1.914998e+003,5.476762e-003
1.916927e+003,5.529799e-003
1.918855e+003,5.620860e-003
1.920784e+003,5.869023e-003
1.922712e+003,5.752859e-003
1.924641e+003,5.634726e-003
1.926569e+003,5.719634e-003
1.928498e+003,5.777224e-003
1.930426e+003,5.752629e-003
1.932355e+003,5.792234e-003
1.934283e+003,5.681764e-003
1.936212e+003,5.894534e-003
1.938140e+003,6.222673e-003
1.940069e+003,6.020723e-003
1.941997e+003,5.815238e-003
1.943926e+003,5.732611e-003
1.945854e+003,5.892376e-003
1.947783e+003,6.441685e-003
1.949711e+003,6.089802e-003
1.951640e+003,5.634280e-003
1.953568e+003,5.454911e-003
1.955497e+003,5.697266e-003
1.957425e+003,5.491404e-003
1.959354e+003,6.021881e-003
1.961282e+003,6.709812e-003
1.963211e+003,6.813976e-003
1.965139e+003,6.014472e-003
1.967068e+003,5.607384e-003
1.968996e+003,5.327316e-003
1.970925e+003,4.926155e-003
1.972853e+003,5.321534e-003
1.974782e+003,5.710795e-003
1.976710e+003,5.208336e-003
1.978639e+003,4.976497e-003
1.980567e+003,5.151639e-003
1.982496e+003,5.331734e-003
1.984424e+003,4.904152e-003
1.986353e+003,5.343628e-003
1.988281e+003,5.886618e-003
1.990210e+003,5.359837e-003
1.992138e+003,4.850689e-003
1.994067e+003,5.131176e-003
1.995995e+003,5.398107e-003
1.997924e+003,4.757797e-003
1.999852e+003,4.421838e-003
2.001781e+003,4.432491e-003
2.003709e+003,4.337288e-003
2.005638e+003,3.476278e-003
2.007566e+003,2.423377e-003
2.009495e+003,2.042696e-003
2.011423e+003,2.539105e-003
2.013352e+003,2.997646e-003
2.015280e+003,3.167517e-003
2.017208e+003,2.218355e-003
2.019137e+003,1.919699e-003
2.021066e+003,1.941381e-003
2.022994e+003,1.621993e-003
2.024922e+003,8.584884e-004
2.026851e+003,1.692750e-003
2.028780e+003,2.115441e-003
2.030708e+003,1.796258e-003
2.032636e+003,6.809959e-004
2.034565e+003,-4.804206e-004
2.036494e+003,8.085076e-004
2.038422e+003,1.787902e-003
2.040350e+003,1.891990e-003
2.042279e+003,1.742784e-003
2.044208e+003,1.394362e-003
2.046136e+003,1.105648e-003
2.048064e+003,1.304295e-003
2.049993e+003,1.776255e-003
2.051921e+003,2.741559e-003
2.053850e+003,3.144719e-003
2.055778e+003,2.991635e-003
2.057707e+003,2.625589e-003
2.059635e+003,2.493094e-003
2.061564e+003,2.816123e-003
2.063492e+003,2.837384e-003
2.065421e+003,2.701951e-003
2.067349e+003,2.978031e-003
2.069278e+003,2.945453e-003
2.071206e+003,2.974205e-003
2.073135e+003,3.392224e-003
2.075063e+003,3.490097e-003
2.076992e+003,3.323585e-003
2.078920e+003,3.580331e-003
2.080849e+003,3.811666e-003
2.082777e+003,3.958978e-003
2.084706e+003,4.110532e-003
2.086634e+003,4.238864e-003
2.088563e+003,4.298958e-003
2.090491e+003,4.119332e-003
2.092420e+003,4.095425e-003
2.094348e+003,4.464940e-003
2.096277e+003,4.532871e-003
2.098205e+003,4.652966e-003
2.100134e+003,4.642752e-003
2.102062e+003,4.777805e-003
2.103991e+003,4.783266e-003
2.105919e+003,4.813618e-003
2.107848e+003,4.786683e-003
2.109776e+003,4.848329e-003
2.111705e+003,4.755829e-003
2.113633e+003,4.986161e-003
2.115562e+003,5.183921e-003
2.117490e+003,5.381704e-003
2.119419e+003,5.289526e-003
2.121347e+003,4.928617e-003
2.123276e+003,5.045557e-003
2.125204e+003,5.309450e-003
2.127133e+003,5.585752e-003
2.129061e+003,5.301164e-003
2.130990e+003,4.739147e-003
2.132918e+003,5.367447e-003
2.134847e+003,5.443838e-003
2.136775e+003,5.107643e-003
2.138704e+003,5.101005e-003
2.140632e+003,5.565212e-003
2.142561e+003,5.988258e-003
2.144489e+003,5.662987e-003
2.146418e+003,5.120249e-003
2.148346e+003,5.170106e-003
2.150275e+003,5.140265e-003
2.152203e+003,4.626811e-003
2.154132e+003,4.121355e-003
2.156060e+003,4.508410e-003
2.157989e+003,4.532516e-003
2.159917e+003,5.833047e-003
2.161846e+003,6.269027e-003
2.163774e+003,4.998764e-003
2.165703e+003,3.918997e-003
2.167631e+003,4.162534e-003
2.169560e+003,3.849459e-003
2.171488e+003,4.322771e-003
2.173417e+003,4.111153e-003
2.175345e+003,3.835853e-003
2.177274e+003,3.454140e-003
2.179202e+003,3.414531e-003
2.181131e+003,3.757338e-003
2.183059e+003,3.601453e-003
2.184988e+003,3.430194e-003
2.186916e+003,3.560394e-003
2.188845e+003,3.402275e-003
2.190773e+003,2.830768e-003
2.192702e+003,3.141808e-003
2.194630e+003,3.859855e-003
2.196559e+003,3.125488e-003
2.198487e+003,2.828967e-003
2.200416e+003,2.923493e-003
2.202344e+003,2.423480e-003
2.204273e+003,2.655712e-003
2.206201e+003,3.301368e-003
2.208130e+003,3.221514e-003
2.210058e+003,3.035022e-003
2.211987e+003,2.372471e-003
2.213915e+003,2.567577e-003
2.215844e+003,3.300066e-003
2.217772e+003,2.877261e-003
2.219701e+003,2.134563e-003
2.221629e+003,2.311208e-003
2.223558e+003,2.794817e-003
2.225486e+003,3.115676e-003
2.227415e+003,2.964158e-003
2.229343e+003,2.809391e-003
2.231272e+003,2.771164e-003
2.233200e+003,3.011543e-003
2.235129e+003,3.014280e-003
2.237057e+003,2.894776e-003
2.238986e+003,3.011850e-003
2.240914e+003,3.285685e-003
2.242843e+003,3.098234e-003
2.244771e+003,2.956853e-003
2.246700e+003,2.787483e-003
2.248628e+003,2.818465e-003
2.250557e+003,2.498352e-003
2.252485e+003,2.746112e-003
2.254414e+003,2.827066e-003
2.256342e+003,2.687057e-003
2.258271e+003,2.967241e-003
2.260199e+003,3.076731e-003
2.262128e+003,2.984257e-003
2.264056e+003,3.186706e-003
2.265985e+003,3.101468e-003
2.267913e+003,3.097613e-003
2.269842e+003,3.272806e-003
2.271770e+003,3.560810e-003
2.273699e+003,3.709179e-003
2.275627e+003,3.638185e-003
2.277556e+003,3.856351e-003
2.279484e+003,3.979250e-003
2.281413e+003,4.092230e-003
2.283341e+003,4.256429e-003
2.285270e+003,4.080176e-003
2.287198e+003,4.275623e-003
2.289127e+003,4.560434e-003
2.291055e+003,4.674703e-003
2.292984e+003,4.738493e-003
2.294912e+003,4.904184e-003
2.296841e+003,5.027343e-003
2.298769e+003,5.079822e-003
2.300698e+003,5.103764e-003
2.302626e+003,5.392693e-003
2.304555e+003,5.423930e-003
2.306483e+003,5.497194e-003
2.308412e+003,5.539708e-003
2.310340e+003,5.629507e-003
2.312269e+003,5.604656e-003
2.314197e+003,5.462172e-003
2.316125e+003,5.673025e-003
2.318054e+003,5.848119e-003
2.319983e+003,5.920331e-003
2.321911e+003,5.873717e-003
2.323840e+003,5.926205e-003
2.325768e+003,6.299946e-003
2.327697e+003,6.293996e-003
2.329625e+003,6.345307e-003
2.331553e+003,6.437726e-003
2.333482e+003,6.367260e-003
2.335411e+003,6.107451e-003
2.337339e+003,5.772079e-003
2.339268e+003,5.497918e-003
2.341196e+003,5.267067e-003
2.343125e+003,5.384499e-003
2.345053e+003,5.140398e-003
2.346981e+003,4.875032e-003
2.348910e+003,4.754196e-003
2.350839e+003,4.605934e-003
2.352767e+003,4.479328e-003
2.354696e+003,4.521966e-003
2.356624e+003,4.614070e-003
2.358552e+003,4.402694e-003
2.360481e+003,4.075380e-003
2.362409e+003,3.852731e-003
2.364338e+003,4.395128e-003
2.366267e+003,3.960983e-003
2.368195e+003,3.886542e-003
2.370124e+003,4.134865e-003
2.372052e+003,4.605066e-003
2.373980e+003,4.491113e-003
2.375909e+003,4.620358e-003
2.377838e+003,4.636153e-003
2.379766e+003,4.641428e-003
2.381695e+003,4.695800e-003
2.383623e+003,4.596552e-003
2.385552e+003,4.445039e-003
2.387480e+003,4.493390e-003
2.389408e+003,4.408026e-003
2.391337e+003,4.366623e-003
2.393266e+003,4.344535e-003
2.395194e+003,4.296061e-003
2.397123e+003,4.280243e-003
2.399051e+003,4.304267e-003
2.400979e+003,4.196557e-003
2.402908e+003,4.228007e-003
2.404836e+003,4.263206e-003
2.406765e+003,4.251060e-003
2.408694e+003,4.352221e-003
2.410622e+003,4.354698e-003
2.412551e+003,4.329430e-003
2.414479e+003,4.322034e-003
2.416407e+003,4.272408e-003
2.418336e+003,4.411932e-003
2.420264e+003,4.333413e-003
2.422193e+003,4.265549e-003
2.424122e+003,4.238145e-003
2.426050e+003,4.378294e-003
2.427979e+003,4.456754e-003
2.429907e+003,4.407380e-003
2.431835e+003,4.439815e-003
2.433764e+003,4.531411e-003
2.435692e+003,4.554916e-003
2.437621e+003,4.441623e-003
2.439550e+003,4.343219e-003
2.441478e+003,4.446343e-003
2.443406e+003,4.427865e-003
2.445335e+003,4.418057e-003
2.447263e+003,4.364069e-003
2.449192e+003,4.455984e-003
2.451121e+003,4.424518e-003
2.453049e+003,4.356974e-003
2.454978e+003,4.402493e-003
2.456906e+003,4.399246e-003
2.458834e+003,4.344992e-003
2.460763e+003,4.403263e-003
2.462691e+003,4.439380e-003
2.464620e+003,4.420066e-003
2.466549e+003,4.350581e-003
2.468477e+003,4.282079e-003
2.470406e+003,4.276691e-003
2.472334e+003,4.302023e-003
2.474262e+003,4.337462e-003
2.476191e+003,4.314204e-003
2.478119e+003,4.323440e-003
2.480048e+003,4.309083e-003
2.481977e+003,4.254038e-003
2.483905e+003,4.274583e-003
2.485833e+003,4.301086e-003
2.487762e+003,4.276725e-003
2.489690e+003,4.343118e-003
2.491619e+003,4.354698e-003
2.493547e+003,4.392351e-003
2.495476e+003,4.401455e-003
2.497405e+003,4.478714e-003
2.499333e+003,4.493411e-003
2.501261e+003,4.441523e-003
2.503190e+003,4.371164e-003
2.505118e+003,4.413539e-003
2.507047e+003,4.484104e-003
2.508975e+003,4.521701e-003
2.510904e+003,4.604441e-003
2.512833e+003,4.632973e-003
2.514761e+003,4.566099e-003
2.516689e+003,4.414877e-003
2.518618e+003,4.331539e-003
2.520546e+003,4.370863e-003
2.522475e+003,4.541020e-003
2.524403e+003,4.652866e-003
2.526332e+003,4.602498e-003
2.528260e+003,4.500408e-003
2.530189e+003,4.541791e-003
2.532117e+003,4.511222e-003
2.534046e+003,4.434794e-003
2.535974e+003,4.452134e-003
2.537903e+003,4.488524e-003
2.539831e+003,4.396133e-003
2.541760e+003,4.390008e-003
2.543688e+003,4.365408e-003
2.545617e+003,4.337797e-003
2.547545e+003,4.359886e-003
2.549474e+003,4.451063e-003
2.551402e+003,4.492039e-003
2.553331e+003,4.475668e-003
2.555259e+003,4.448988e-003
2.557188e+003,4.387029e-003
2.559116e+003,4.365174e-003
2.561045e+003,4.366680e-003
2.562973e+003,4.314237e-003
2.564902e+003,4.182104e-003
2.566830e+003,4.222587e-003
2.568759e+003,4.246643e-003
2.570687e+003,4.154639e-003
2.572616e+003,4.247614e-003
2.574544e+003,4.176618e-003
2.576473e+003,3.989750e-003
2.578401e+003,3.932705e-003
2.580330e+003,3.868948e-003
2.582258e+003,3.767465e-003
2.584187e+003,3.797647e-003
2.586115e+003,3.777124e-003
2.588044e+003,3.766563e-003
2.589972e+003,3.697049e-003
2.591901e+003,3.724084e-003
2.593829e+003,3.750052e-003
2.595758e+003,3.696514e-003
2.597686e+003,3.638372e-003
2.599615e+003,3.595005e-003
2.601543e+003,3.600216e-003
2.603472e+003,3.563601e-003
2.605400e+003,3.517668e-003
2.607329e+003,3.494120e-003
2.609257e+003,3.589759e-003
2.611186e+003,3.527055e-003
2.613114e+003,3.456812e-003
2.615043e+003,3.463057e-003
2.616971e+003,3.525318e-003
2.618900e+003,3.605662e-003
2.620828e+003,3.621532e-003
2.622757e+003,3.610273e-003
2.624685e+003,3.586786e-003
2.626614e+003,3.648062e-003
2.628542e+003,3.715997e-003
2.630471e+003,3.734879e-003
2.632399e+003,3.780533e-003
2.634328e+003,3.838628e-003
2.636256e+003,3.879011e-003
2.638185e+003,3.945176e-003
2.640113e+003,4.065865e-003
2.642042e+003,4.166549e-003
2.643970e+003,4.256113e-003
2.645899e+003,4.322503e-003
2.647827e+003,4.347770e-003
2.649756e+003,4.388837e-003
2.651684e+003,4.519224e-003
2.653613e+003,4.592419e-003
2.655541e+003,4.619912e-003
2.657470e+003,4.632939e-003
2.659398e+003,4.684147e-003
2.661327e+003,4.763233e-003
2.663255e+003,4.822229e-003
2.665184e+003,4.829399e-003
2.667112e+003,4.873124e-003
2.669041e+003,4.901507e-003
2.670969e+003,4.936828e-003
2.672898e+003,4.970074e-003
2.674826e+003,4.989111e-003
2.676755e+003,4.985257e-003
2.678683e+003,5.013613e-003
2.680612e+003,5.033892e-003
2.682540e+003,5.045792e-003
2.684469e+003,5.055513e-003
2.686397e+003,5.087126e-003
2.688326e+003,5.062787e-003
2.690254e+003,5.077772e-003
2.692183e+003,5.113912e-003
2.694111e+003,5.150357e-003
2.696040e+003,5.166317e-003
2.697968e+003,5.138454e-003
2.699897e+003,5.178657e-003
2.701825e+003,5.245155e-003
2.703754e+003,5.249280e-003
2.705682e+003,5.283455e-003
2.707611e+003,5.242304e-003
2.709539e+003,5.214202e-003
2.711468e+003,5.239051e-003
2.713396e+003,5.204376e-003
2.715325e+003,5.209842e-003
2.717253e+003,5.237777e-003
2.719182e+003,5.244685e-003
2.721110e+003,5.273796e-003
2.723039e+003,5.255417e-003
2.724967e+003,5.216516e-003
2.726896e+003,5.210446e-003
2.728824e+003,5.249078e-003
2.730753e+003,5.275071e-003
2.732681e+003,5.292913e-003
2.734610e+003,5.320183e-003
2.736538e+003,5.323034e-003
2.738467e+003,5.308778e-003
2.740395e+003,5.287715e-003
2.742324e+003,5.258268e-003
2.744252e+003,5.256390e-003
2.746181e+003,5.318841e-003
2.748109e+003,5.339873e-003
2.750038e+003,5.307839e-003
2.751966e+003,5.265579e-003
2.753895e+003,5.253941e-003
2.755823e+003,5.239990e-003
2.757752e+003,5.265378e-003
2.759680e+003,5.252298e-003
2.761609e+003,5.258603e-003
2.763537e+003,5.277016e-003
2.765466e+003,5.286340e-003
2.767394e+003,5.300360e-003
2.769323e+003,5.293551e-003
2.771251e+003,5.312468e-003
2.773180e+003,5.336250e-003
2.775108e+003,5.336787e-003
2.777037e+003,5.325382e-003
2.778965e+003,5.349802e-003
2.780894e+003,5.381871e-003
2.782822e+003,5.383985e-003
2.784750e+003,5.405322e-003
2.786679e+003,5.397673e-003
2.788608e+003,5.433101e-003
2.790536e+003,5.425686e-003
2.792465e+003,5.431256e-003
2.794393e+003,5.441489e-003
2.796322e+003,5.423472e-003
2.798250e+003,5.489404e-003
2.800178e+003,5.515242e-003
2.802107e+003,5.492961e-003
2.804036e+003,5.479572e-003
2.805964e+003,5.481652e-003
2.807893e+003,5.529437e-003
2.809821e+003,5.564508e-003
2.811750e+003,5.594311e-003
2.813678e+003,5.604716e-003
2.815606e+003,5.630729e-003
2.817535e+003,5.691623e-003
2.819464e+003,5.738826e-003
2.821392e+003,5.710356e-003
2.823321e+003,5.706696e-003
2.825249e+003,5.740472e-003
2.827177e+003,5.828043e-003
2.829106e+003,5.920537e-003
2.831034e+003,5.937601e-003
2.832963e+003,5.944554e-003
2.834892e+003,5.962794e-003
2.836820e+003,6.022559e-003
2.838749e+003,6.016545e-003
2.840677e+003,6.125478e-003
2.842605e+003,6.203851e-003
2.844534e+003,6.211414e-003
2.846462e+003,6.266405e-003
2.848391e+003,6.376846e-003
2.850320e+003,6.391372e-003
2.852248e+003,6.393625e-003
2.854177e+003,6.452171e-003
2.856105e+003,6.493201e-003
2.858033e+003,6.505545e-003
2.859962e+003,6.489233e-003
2.861890e+003,6.536321e-003
2.863819e+003,6.660760e-003
2.865748e+003,6.746163e-003
2.867676e+003,6.738557e-003
2.869604e+003,6.698648e-003
2.871533e+003,6.750538e-003
2.873461e+003,6.831144e-003
2.875390e+003,6.854437e-003
2.877319e+003,6.837674e-003
2.879247e+003,6.849186e-003
2.881176e+003,6.845046e-003
2.883104e+003,6.878708e-003
2.885032e+003,6.931898e-003
2.886961e+003,6.951729e-003
2.888889e+003,7.000046e-003
2.890818e+003,6.956476e-003
2.892747e+003,6.916950e-003
2.894675e+003,6.921596e-003
2.896604e+003,6.944187e-003
2.898532e+003,6.957183e-003
2.900460e+003,6.933649e-003
2.902389e+003,6.842487e-003
2.904317e+003,6.797150e-003
2.906246e+003,6.802299e-003
2.908175e+003,6.780187e-003
2.910103e+003,6.720655e-003
2.912031e+003,6.686534e-003
2.913960e+003,6.596703e-003
2.915888e+003,6.590648e-003
2.917817e+003,6.581363e-003
2.919745e+003,6.508808e-003
2.921674e+003,6.472249e-003
2.923603e+003,6.459132e-003
2.925531e+003,6.413935e-003
2.927459e+003,6.305401e-003
2.929388e+003,6.286440e-003
2.931316e+003,6.306880e-003
2.933245e+003,6.223178e-003
2.935173e+003,6.109505e-003
2.937102e+003,6.139221e-003
2.939031e+003,6.127952e-003
2.940959e+003,6.109505e-003
2.942887e+003,6.069278e-003
2.944816e+003,5.955499e-003
2.946744e+003,5.847842e-003
2.948673e+003,5.769040e-003
2.950601e+003,5.741752e-003
2.952530e+003,5.699441e-003
2.954458e+003,5.613945e-003
2.956387e+003,5.650294e-003
2.958315e+003,5.658743e-003
2.960244e+003,5.527602e-003
2.962172e+003,5.469053e-003
2.964101e+003,5.436920e-003
2.966029e+003,5.412063e-003
2.967958e+003,5.360286e-003
2.969886e+003,5.274879e-003
2.971815e+003,5.306026e-003
2.973743e+003,5.338174e-003
2.975672e+003,5.339147e-003
2.977600e+003,5.240886e-003
2.979529e+003,5.162639e-003
2.981457e+003,5.146815e-003
2.983386e+003,5.165843e-003
2.985314e+003,5.158373e-003
2.987243e+003,5.143736e-003
2.989171e+003,5.056210e-003
2.991100e+003,5.027514e-003
2.993028e+003,5.070605e-003
2.994957e+003,5.088597e-003
2.996885e+003,5.040785e-003
2.998814e+003,5.067895e-003
3.000742e+003,5.096436e-003
3.002671e+003,5.060502e-003
3.004599e+003,5.023913e-003
3.006528e+003,5.086438e-003
3.008456e+003,5.083533e-003
3.010385e+003,5.011767e-003
3.012313e+003,5.020121e-003
3.014242e+003,5.023942e-003
3.016170e+003,5.043925e-003
3.018099e+003,5.044602e-003
3.020027e+003,5.015558e-003
3.021956e+003,5.070449e-003
3.023884e+003,5.135158e-003
3.025813e+003,5.166922e-003
3.027741e+003,5.134629e-003
3.029670e+003,5.163974e-003
3.031598e+003,5.157228e-003
3.033527e+003,5.137001e-003
3.035455e+003,5.222222e-003
3.037384e+003,5.235136e-003
3.039312e+003,5.221840e-003
3.041241e+003,5.218382e-003
3.043169e+003,5.209920e-003
3.045098e+003,5.294976e-003
3.047026e+003,5.310852e-003
3.048955e+003,5.354060e-003
3.050883e+003,5.404364e-003
3.052812e+003,5.356679e-003
3.054740e+003,5.317776e-003
3.056669e+003,5.367969e-003
3.058597e+003,5.487059e-003
3.060526e+003,5.522177e-003
3.062454e+003,5.464786e-003
3.064383e+003,5.484715e-003
3.066311e+003,5.505498e-003
3.068240e+003,5.545944e-003
3.070168e+003,5.587180e-003
3.072097e+003,5.610848e-003
3.074025e+003,5.625025e-003
3.075954e+003,5.602677e-003
3.077882e+003,5.610845e-003
3.079811e+003,5.624053e-003
3.081739e+003,5.674280e-003
3.083668e+003,5.753438e-003
3.085596e+003,5.752132e-003
3.087525e+003,5.793481e-003
3.089453e+003,5.863937e-003
3.091382e+003,5.805002e-003
3.093310e+003,5.825276e-003
3.095239e+003,5.864315e-003
3.097167e+003,5.875341e-003
3.099096e+003,5.966215e-003
3.101024e+003,5.953679e-003
3.102953e+003,5.977585e-003
3.104881e+003,6.002326e-003
3.106810e+003,5.991138e-003
3.108738e+003,5.961518e-003
3.110667e+003,6.032614e-003
3.112595e+003,6.080889e-003
3.114524e+003,6.124626e-003
3.116452e+003,6.193886e-003
3.118381e+003,6.113983e-003
3.120309e+003,6.077701e-003
3.122238e+003,6.200301e-003
3.124166e+003,6.286042e-003
3.126095e+003,6.317080e-003
3.128023e+003,6.320830e-003
3.129952e+003,6.405301e-003
3.131880e+003,6.406617e-003
3.133809e+003,6.439677e-003
3.135737e+003,6.465326e-003
3.137666e+003,6.463281e-003
3.139594e+003,6.467376e-003
3.141523e+003,6.515730e-003
3.143451e+003,6.541566e-003
3.145380e+003,6.581190e-003
3.147308e+003,6.647886e-003
3.149237e+003,6.719962e-003
3.151165e+003,6.783044e-003
3.153094e+003,6.799366e-003
3.155022e+003,6.767253e-003
3.156951e+003,6.777080e-003
3.158879e+003,6.871180e-003
3.160808e+003,6.961431e-003
3.162736e+003,6.966452e-003
3.164665e+003,6.986641e-003
3.166593e+003,7.039404e-003
3.168522e+003,7.134999e-003
3.170450e+003,7.191893e-003
3.172379e+003,7.200677e-003
3.174307e+003,7.203992e-003
3.176236e+003,7.241943e-003
3.178164e+003,7.245892e-003
3.180093e+003,7.262167e-003
3.182021e+003,7.313851e-003
3.183950e+003,7.366513e-003
3.185878e+003,7.418244e-003
3.187807e+003,7.450744e-003
3.189735e+003,7.438607e-003
3.191664e+003,7.400768e-003
3.193592e+003,7.416405e-003
3.195521e+003,7.539416e-003
3.197449e+003,7.681675e-003
3.199378e+003,7.789882e-003
3.201306e+003,7.865414e-003
3.203235e+003,7.864507e-003
3.205163e+003,7.875942e-003
3.207092e+003,7.859441e-003
3.209020e+003,7.866546e-003
3.210948e+003,7.947123e-003
3.212877e+003,7.944220e-003
3.214806e+003,7.977638e-003
3.216734e+003,8.085291e-003
3.218663e+003,8.150505e-003
3.220591e+003,8.202354e-003
3.222520e+003,8.256254e-003
3.224448e+003,8.298384e-003
3.226376e+003,8.370236e-003
3.228305e+003,8.414569e-003
3.230234e+003,8.455740e-003
3.232162e+003,8.465991e-003
3.234091e+003,8.523183e-003
3.236019e+003,8.578997e-003
3.237948e+003,8.693229e-003
3.239876e+003,8.792276e-003
3.241804e+003,8.844232e-003
3.243733e+003,8.891829e-003
3.245662e+003,9.000475e-003
3.247590e+003,9.030893e-003
3.249519e+003,9.000607e-003
3.251447e+003,8.969753e-003
3.253375e+003,9.004215e-003
3.255304e+003,9.160989e-003
3.257232e+003,9.256775e-003
3.259161e+003,9.292657e-003
3.261090e+003,9.393608e-003
3.263018e+003,9.443401e-003
3.264947e+003,9.556090e-003
3.266875e+003,9.622622e-003
3.268803e+003,9.599155e-003
3.270732e+003,9.652005e-003
3.272660e+003,9.706247e-003
3.274589e+003,9.697717e-003
3.276518e+003,9.714224e-003
3.278446e+003,9.890662e-003
3.280375e+003,9.850342e-003
3.282303e+003,9.812186e-003
3.284231e+003,9.887797e-003
3.286160e+003,9.927250e-003
3.288088e+003,1.001720e-002
3.290017e+003,1.002733e-002
3.291946e+003,9.964383e-003
3.293874e+003,9.908442e-003
3.295802e+003,9.912868e-003
3.297731e+003,9.984151e-003
3.299659e+003,1.005952e-002
3.301588e+003,1.006807e-002
3.303516e+003,1.008776e-002
3.305445e+003,1.008074e-002
3.307374e+003,1.014824e-002
3.309302e+003,1.010976e-002
3.311230e+003,1.010907e-002
3.313159e+003,1.015482e-002
3.315087e+003,1.025287e-002
3.317016e+003,1.033081e-002
3.318944e+003,1.031037e-002
3.320873e+003,1.026957e-002
3.322802e+003,1.031443e-002
3.324730e+003,1.030755e-002
3.326658e+003,1.024457e-002
3.328587e+003,1.031540e-002
3.330515e+003,1.040301e-002
3.332444e+003,1.041989e-002
3.334372e+003,1.036829e-002
3.336301e+003,1.037266e-002
3.338229e+003,1.038514e-002
3.340158e+003,1.030581e-002
3.342086e+003,1.026766e-002
3.344015e+003,1.021861e-002
3.345943e+003,1.013013e-002
3.347872e+003,1.011135e-002
3.349800e+003,1.012333e-002
3.351729e+003,1.017203e-002
3.353657e+003,1.018153e-002
3.355586e+003,1.012994e-002
3.357514e+003,1.004365e-002
3.359443e+003,9.967222e-003
3.361371e+003,9.976403e-003
3.363300e+003,9.886711e-003
3.365229e+003,9.833632e-003
3.367157e+003,9.768962e-003
3.369085e+003,9.753318e-003
3.371014e+003,9.694246e-003
3.372942e+003,9.643410e-003
3.374871e+003,9.632356e-003
3.376799e+003,9.621653e-003
3.378728e+003,9.588362e-003
3.380656e+003,9.496015e-003
3.382585e+003,9.498143e-003
3.384513e+003,9.508551e-003
3.386442e+003,9.412301e-003
3.388370e+003,9.304267e-003
3.390299e+003,9.232876e-003
3.392227e+003,9.196856e-003
3.394156e+003,9.179168e-003
3.396084e+003,9.210183e-003
3.398013e+003,9.187991e-003
3.399941e+003,9.094948e-003
3.401870e+003,9.104185e-003
3.403798e+003,9.061504e-003
3.405727e+003,8.879169e-003
3.407655e+003,8.694630e-003
3.409584e+003,8.711617e-003
3.411512e+003,8.810325e-003
3.413441e+003,8.783411e-003
3.415369e+003,8.693612e-003
3.417298e+003,8.586156e-003
3.419226e+003,8.462705e-003
3.421155e+003,8.322052e-003
3.423083e+003,8.296199e-003
3.425012e+003,8.346163e-003
3.426940e+003,8.235064e-003
3.428869e+003,8.136818e-003
3.430797e+003,8.014331e-003
3.432726e+003,7.883035e-003
3.434654e+003,7.732403e-003
3.436583e+003,7.642173e-003
3.438511e+003,7.554870e-003
3.440440e+003,7.488581e-003
3.442368e+003,7.439743e-003
3.444297e+003,7.355101e-003
3.446225e+003,7.200469e-003
3.448154e+003,7.114595e-003
3.450082e+003,7.078576e-003
3.452011e+003,7.028582e-003
3.453939e+003,6.926542e-003
3.455868e+003,6.694813e-003
3.457796e+003,6.546931e-003
3.459725e+003,6.477845e-003
3.461653e+003,6.432027e-003
3.463582e+003,6.325323e-003
3.465510e+003,6.153140e-003
3.467439e+003,5.956770e-003
3.469367e+003,5.947041e-003
3.471296e+003,5.983380e-003
3.473224e+003,5.949412e-003
3.475153e+003,5.812993e-003
3.477081e+003,5.790288e-003
3.479010e+003,5.667841e-003
3.480938e+003,5.516486e-003
3.482867e+003,5.451968e-003
3.484795e+003,5.403048e-003
3.486724e+003,5.351795e-003
3.488652e+003,5.256045e-003
3.490581e+003,5.143248e-003
3.492509e+003,5.127961e-003
3.494438e+003,5.014140e-003
3.496366e+003,4.900147e-003
3.498295e+003,4.837215e-003
3.500223e+003,4.710566e-003
3.502152e+003,4.636738e-003
3.504080e+003,4.673918e-003
3.506009e+003,4.573978e-003
3.507937e+003,4.396666e-003
3.509866e+003,4.347837e-003
3.511794e+003,4.366135e-003
3.513723e+003,4.297739e-003
3.515651e+003,4.326524e-003
3.517580e+003,4.341304e-003
3.519508e+003,4.256749e-003
3.521437e+003,4.240070e-003
3.523365e+003,4.146765e-003
3.525294e+003,4.012490e-003
3.527222e+003,3.930022e-003
3.529151e+003,3.843574e-003
3.531079e+003,3.867994e-003
3.533008e+003,3.925059e-003
3.534936e+003,3.812436e-003
3.536865e+003,3.705929e-003
3.538793e+003,3.627283e-003
3.540722e+003,3.659104e-003
3.542650e+003,3.545749e-003
3.544579e+003,3.427729e-003
3.546507e+003,3.524970e-003
3.548436e+003,3.497903e-003
3.550364e+003,3.322273e-003
3.552293e+003,3.213033e-003
3.554221e+003,3.193724e-003
3.556150e+003,3.115114e-003
3.558078e+003,3.105154e-003
3.560007e+003,3.077899e-003
3.561935e+003,2.931059e-003
3.563864e+003,2.765114e-003
3.565792e+003,2.609399e-003
3.567721e+003,2.491860e-003
3.569649e+003,2.538845e-003
3.571578e+003,2.572383e-003
3.573506e+003,2.536033e-003
3.575435e+003,2.441608e-003
3.577363e+003,2.338394e-003
3.579292e+003,2.176472e-003
3.581220e+003,2.033696e-003
3.583149e+003,1.926275e-003
3.585077e+003,1.718234e-003
3.587006e+003,1.495491e-003
3.588934e+003,1.391855e-003
3.590863e+003,1.244878e-003
3.592791e+003,1.080679e-003
3.594720e+003,9.084667e-004
3.596648e+003,8.177179e-004
3.598577e+003,7.482085e-004
3.600505e+003,6.733738e-004
3.602434e+003,7.232641e-004
3.604362e+003,7.515407e-004
3.606291e+003,8.594461e-004
3.608219e+003,1.073864e-003
3.610148e+003,1.362148e-003
3.612076e+003,1.498365e-003
3.614005e+003,1.333621e-003
3.615933e+003,1.078497e-003
3.617862e+003,7.833051e-004
3.619790e+003,3.798759e-004
3.621719e+003,-8.597549e-005
3.623647e+003,-2.408010e-004
3.625576e+003,-2.792467e-004
3.627504e+003,-1.991129e-004
3.629433e+003,-1.325123e-004
3.631361e+003,-4.506703e-005
3.633290e+003,1.217481e-004
3.635218e+003,4.345254e-004
3.637146e+003,5.897244e-004
3.639075e+003,8.719864e-004
3.641004e+003,1.167943e-003
3.642932e+003,1.270557e-003
3.644861e+003,1.379540e-003
3.646789e+003,1.239059e-003
3.648718e+003,1.186721e-003
3.650646e+003,1.268026e-003
3.652574e+003,1.298206e-003
3.654503e+003,1.341939e-003
3.656432e+003,1.230578e-003
3.658360e+003,1.241540e-003
3.660289e+003,1.218949e-003
3.662217e+003,1.233970e-003
3.664146e+003,1.293330e-003
3.666074e+003,1.241030e-003
3.668002e+003,1.254937e-003
3.669931e+003,1.348547e-003
3.671860e+003,1.142364e-003
3.673788e+003,1.026407e-003
3.675717e+003,9.332519e-004
3.677645e+003,8.822831e-004
3.679573e+003,8.683360e-004
3.681502e+003,7.981154e-004
3.683430e+003,6.227663e-004
3.685359e+003,4.686973e-004
3.687288e+003,3.367152e-004
3.689216e+003,9.469622e-006
3.691145e+003,-2.706546e-004
3.693073e+003,-4.347534e-004
3.695001e+003,-5.940410e-004
3.696930e+003,-8.167248e-004
3.698858e+003,-9.957383e-004
3.700787e+003,-9.984651e-004
3.702716e+003,-8.666210e-004
3.704644e+003,-9.336887e-004
3.706573e+003,-1.030016e-003
3.708501e+003,-7.523435e-004
3.710429e+003,-4.115296e-004
3.712358e+003,1.296002e-004
3.714286e+003,5.352399e-004
3.716215e+003,1.950308e-004
3.718144e+003,-4.583987e-004
3.720072e+003,-9.429016e-004
3.722000e+003,-1.400630e-003
3.723929e+003,-1.656144e-003
3.725857e+003,-1.909545e-003
3.727786e+003,-2.037890e-003
3.729714e+003,-2.066049e-003
3.731643e+003,-1.925192e-003
3.733572e+003,-1.727853e-003
3.735500e+003,-1.405701e-003
3.737428e+003,-9.422026e-004
3.739357e+003,-4.780650e-004
3.741285e+003,1.564120e-005
3.743214e+003,4.782097e-004
3.745142e+003,4.773345e-004
3.747071e+003,4.815000e-004
3.749000e+003,6.462167e-004
3.750928e+003,7.713663e-004
3.752856e+003,7.844858e-004
3.754785e+003,6.708846e-004
3.756713e+003,7.375025e-004
3.758642e+003,7.165606e-004
3.760570e+003,7.591408e-004
3.762499e+003,7.520474e-004
3.764427e+003,7.540820e-004
3.766356e+003,7.212117e-004
3.768284e+003,7.362145e-004
3.770213e+003,7.564316e-004
3.772141e+003,7.986282e-004
3.774070e+003,7.760949e-004
3.775998e+003,7.866757e-004
3.777927e+003,7.016486e-004
3.779855e+003,7.199803e-004
3.781784e+003,7.610189e-004
3.783712e+003,6.811736e-004
3.785641e+003,7.521388e-004
3.787569e+003,8.235778e-004
3.789498e+003,8.529889e-004
3.791426e+003,9.036266e-004
3.793355e+003,9.060645e-004
3.795283e+003,9.152889e-004
3.797212e+003,8.236820e-004
3.799140e+003,8.565545e-004
3.801069e+003,9.203766e-004
3.802997e+003,9.394428e-004
3.804926e+003,9.947793e-004
3.806854e+003,8.905941e-004
3.808783e+003,8.138315e-004
3.810711e+003,9.490469e-004
3.812640e+003,9.713697e-004
3.814568e+003,9.341773e-004
3.816497e+003,9.161736e-004
3.818425e+003,8.928457e-004
3.820354e+003,9.038156e-004
3.822282e+003,8.929931e-004
3.824211e+003,8.872928e-004
3.826139e+003,9.335601e-004
3.828068e+003,9.989149e-004
3.829996e+003,9.669421e-004
3.831925e+003,9.117319e-004
3.833853e+003,9.289575e-004
3.835782e+003,1.025822e-003
3.837710e+003,1.098232e-003
3.839639e+003,9.655226e-004
3.841567e+003,9.586764e-004
3.843496e+003,9.387322e-004
3.845424e+003,9.344703e-004
3.847353e+003,9.302995e-004
3.849281e+003,9.171756e-004
3.851210e+003,1.091971e-003
3.853138e+003,1.089595e-003
3.855067e+003,1.037633e-003
3.856995e+003,9.441178e-004
3.858924e+003,9.461204e-004
3.860852e+003,9.637491e-004
3.862781e+003,9.807789e-004
3.864709e+003,1.028165e-003
3.866638e+003,1.052789e-003
3.868566e+003,9.618993e-004
3.870495e+003,8.714378e-004
3.872423e+003,8.756582e-004
3.874352e+003,8.491794e-004
3.876280e+003,8.997660e-004
3.878209e+003,1.018730e-003
3.880137e+003,8.981223e-004
3.882066e+003,9.204017e-004
3.883994e+003,9.680263e-004
3.885923e+003,9.026059e-004
3.887851e+003,9.160712e-004
3.889780e+003,8.910972e-004
3.891708e+003,8.758032e-004
3.893637e+003,9.368513e-004
3.895565e+003,9.214289e-004
3.897494e+003,9.033823e-004
3.899422e+003,8.825732e-004
3.901351e+003,8.857843e-004
3.903279e+003,8.796073e-004
3.905208e+003,8.701053e-004
3.907136e+003,8.964863e-004
3.909065e+003,9.038232e-004
3.910993e+003,8.452930e-004
3.912922e+003,8.816686e-004
3.914850e+003,9.281803e-004
3.916779e+003,8.944547e-004
3.918707e+003,8.609907e-004
3.920636e+003,9.289760e-004
3.922564e+003,9.781031e-004
3.924493e+003,9.131958e-004
3.926421e+003,8.988820e-004
3.928350e+003,8.702163e-004
3.930278e+003,8.158010e-004
3.932207e+003,8.491219e-004
3.934135e+003,8.124969e-004
3.936064e+003,7.950384e-004
3.937992e+003,9.126054e-004
3.939921e+003,9.056136e-004
3.941849e+003,8.403197e-004
3.943778e+003,8.255860e-004
3.945706e+003,7.938340e-004
3.947635e+003,7.944659e-004
3.949563e+003,8.247605e-004
3.951492e+003,8.599605e-004
3.953420e+003,8.647257e-004
3.955349e+003,9.098842e-004
3.957277e+003,9.027017e-004
3.959206e+003,8.596468e-004
3.961134e+003,7.926350e-004
3.963063e+003,7.364936e-004
3.964991e+003,7.626842e-004
3.966920e+003,8.144407e-004
3.968848e+003,8.588448e-004
3.970777e+003,9.394377e-004
3.972705e+003,8.872619e-004
3.974634e+003,8.969555e-004
3.976562e+003,9.738944e-004
3.978491e+003,8.810957e-004
3.980419e+003,8.126526e-004
3.982348e+003,8.727021e-004
3.984276e+003,9.141070e-004
3.986205e+003,9.091585e-004
3.988133e+003,9.195996e-004
3.990062e+003,8.195652e-004
3.991990e+003,7.270980e-004
3.993919e+003,7.807346e-004
3.995847e+003,7.259430e-004
3.997776e+003,7.706702e-004
3.999704e+003,7.716148e-004
4.001633e+003,0.000000e+000
