3.991989e+002,9.010498e-002
4.011274e+002,8.354304e-002
4.030559e+002,8.354304e-002
4.049844e+002,8.312002e-002
4.069129e+002,8.164815e-002
4.088414e+002,8.063126e-002
4.107699e+002,8.215453e-002
4.126984e+002,8.457404e-002
4.146269e+002,8.582328e-002
4.165554e+002,8.743506e-002
4.184839e+002,9.015869e-002
4.204124e+002,9.072065e-002
4.223409e+002,8.999927e-002
4.242694e+002,8.982241e-002
4.261979e+002,9.033678e-002
4.281264e+002,9.039368e-002
4.300549e+002,8.984975e-002
4.319834e+002,8.970264e-002
4.339119e+002,9.062415e-002
4.358404e+002,9.132876e-002
4.377689e+002,9.064923e-002
4.396974e+002,9.111005e-002
4.416259e+002,9.195013e-002
4.435544e+002,9.208549e-002
4.454829e+002,9.203645e-002
4.474114e+002,9.167746e-002
4.493399e+002,9.137585e-002
4.512684e+002,9.107203e-002
4.531969e+002,9.084141e-002
4.551254e+002,9.072425e-002
4.570539e+002,9.041268e-002
4.589824e+002,9.027922e-002
4.609109e+002,8.947712e-002
4.628394e+002,8.870105e-002
4.647679e+002,8.800709e-002
4.666964e+002,8.776468e-002
4.686249e+002,8.727919e-002
4.705533e+002,8.588382e-002
4.724819e+002,8.476342e-002
4.744103e+002,8.387376e-002
4.763389e+002,8.234154e-002
4.782673e+002,8.111101e-002
4.801959e+002,8.035380e-002
4.821243e+002,7.922415e-002
4.840529e+002,7.815284e-002
4.859813e+002,7.691573e-002
4.879099e+002,7.572630e-002
4.898383e+002,7.446577e-002
4.917668e+002,7.377317e-002
4.936953e+002,7.269242e-002
4.956238e+002,7.149342e-002
4.975523e+002,7.067604e-002
4.994808e+002,7.055265e-002
5.014093e+002,7.012293e-002
5.033378e+002,6.982179e-002
5.052663e+002,6.951780e-002
5.071948e+002,6.882249e-002
5.091233e+002,6.907290e-002
5.110518e+002,6.924164e-002
5.129803e+002,6.929146e-002
5.149088e+002,6.937601e-002
5.168373e+002,7.012206e-002
5.187658e+002,7.066346e-002
5.206943e+002,7.076139e-002
5.226228e+002,7.070813e-002
5.245513e+002,7.099093e-002
5.264798e+002,7.120341e-002
5.284083e+002,7.095891e-002
5.303368e+002,7.075053e-002
5.322653e+002,7.035570e-002
5.341938e+002,6.986438e-002
5.361223e+002,6.970387e-002
5.380508e+002,6.949594e-002
5.399792e+002,6.864875e-002
5.419078e+002,6.748412e-002
5.438363e+002,6.835263e-002
5.457648e+002,6.907949e-002
5.476932e+002,6.923299e-002
5.496218e+002,7.000247e-002
5.515503e+002,7.061602e-002
5.534788e+002,7.099104e-002
5.554072e+002,7.134725e-002
5.573358e+002,7.166547e-002
5.592643e+002,7.200761e-002
5.611927e+002,7.160191e-002
5.631212e+002,7.035430e-002
5.650497e+002,6.965943e-002
5.669783e+002,6.884383e-002
5.689067e+002,6.824595e-002
5.708352e+002,6.776219e-002
5.727637e+002,6.754115e-002
5.746923e+002,6.693745e-002
5.766207e+002,6.697594e-002
5.785492e+002,6.689952e-002
5.804777e+002,6.671128e-002
5.824063e+002,6.651703e-002
5.843347e+002,6.620164e-002
5.862632e+002,6.578652e-002
5.881917e+002,6.599750e-002
5.901202e+002,6.634017e-002
5.920487e+002,6.596626e-002
5.939772e+002,6.557007e-002
5.959057e+002,6.525853e-002
5.978342e+002,6.464561e-002
5.997627e+002,6.437028e-002
6.016912e+002,6.425296e-002
6.036197e+002,6.423552e-002
6.055482e+002,6.404816e-002
6.074767e+002,6.365923e-002
6.094052e+002,6.338247e-002
6.113337e+002,6.286842e-002
6.132622e+002,6.228310e-002
6.151907e+002,6.175252e-002
6.171192e+002,6.146601e-002
6.190477e+002,6.069823e-002
6.209762e+002,5.975624e-002
6.229047e+002,5.874924e-002
6.248332e+002,5.804742e-002
6.267617e+002,5.751017e-002
6.286902e+002,5.686274e-002
6.306187e+002,5.623085e-002
6.325472e+002,5.577450e-002
6.344756e+002,5.560926e-002
6.364042e+002,5.516374e-002
6.383326e+002,5.485263e-002
6.402612e+002,5.462388e-002
6.421896e+002,5.436810e-002
6.441182e+002,5.373279e-002
6.460466e+002,5.327799e-002
6.479752e+002,5.306651e-002
6.499036e+002,5.287186e-002
6.518322e+002,5.257805e-002
6.537606e+002,5.256091e-002
6.556891e+002,5.247903e-002
6.576177e+002,5.259580e-002
6.595461e+002,5.267029e-002
6.614746e+002,5.287641e-002
6.634031e+002,5.305333e-002
6.653317e+002,5.325946e-002
6.672601e+002,5.259641e-002
6.691886e+002,5.211030e-002
6.711171e+002,5.146636e-002
6.730457e+002,5.042540e-002
6.749741e+002,4.892247e-002
6.769026e+002,4.743940e-002
6.788311e+002,4.635368e-002
6.807596e+002,4.530062e-002
6.826881e+002,4.440056e-002
6.846166e+002,4.393673e-002
6.865451e+002,4.353843e-002
6.884736e+002,4.324992e-002
6.904021e+002,4.295362e-002
6.923306e+002,4.263483e-002
6.942591e+002,4.254954e-002
6.961876e+002,4.247626e-002
6.981161e+002,4.220343e-002
7.000446e+002,4.202015e-002
7.019731e+002,4.183329e-002
7.039016e+002,4.153076e-002
7.058301e+002,4.119904e-002
7.077585e+002,4.089193e-002
7.096871e+002,4.054619e-002
7.116156e+002,4.031075e-002
7.135441e+002,4.013967e-002
7.154725e+002,3.982925e-002
7.174011e+002,3.951114e-002
7.193296e+002,3.946729e-002
7.212581e+002,3.911169e-002
7.231865e+002,3.869689e-002
7.251151e+002,3.839112e-002
7.270436e+002,3.792187e-002
7.289720e+002,3.746585e-002
7.309005e+002,3.719409e-002
7.328290e+002,3.697878e-002
7.347576e+002,3.672004e-002
7.366860e+002,3.644848e-002
7.386145e+002,3.615056e-002
7.405430e+002,3.577659e-002
7.424716e+002,3.543058e-002
7.444000e+002,3.515362e-002
7.463285e+002,3.496655e-002
7.482570e+002,3.488116e-002
7.501855e+002,3.459090e-002
7.521140e+002,3.428014e-002
7.540425e+002,3.409193e-002
7.559710e+002,3.383911e-002
7.578995e+002,3.352984e-002
7.598280e+002,3.337657e-002
7.617565e+002,3.330319e-002
7.636850e+002,3.307397e-002
7.656135e+002,3.290377e-002
7.675420e+002,3.278194e-002
7.694705e+002,3.284698e-002
7.713990e+002,3.292550e-002
7.733275e+002,3.307411e-002
7.752560e+002,3.323880e-002
7.771844e+002,3.341997e-002
7.791130e+002,3.358611e-002
7.810415e+002,3.362371e-002
7.829700e+002,3.368400e-002
7.848984e+002,3.373009e-002
7.868270e+002,3.370459e-002
7.887555e+002,3.362786e-002
7.906840e+002,3.350858e-002
7.926124e+002,3.339460e-002
7.945410e+002,3.317696e-002
7.964695e+002,3.315253e-002
7.983979e+002,3.328763e-002
8.003264e+002,3.330297e-002
8.022549e+002,3.314359e-002
8.041835e+002,3.301658e-002
8.061119e+002,3.289187e-002
8.080404e+002,3.275021e-002
8.099689e+002,3.268154e-002
8.118975e+002,3.270802e-002
8.138259e+002,3.259639e-002
8.157545e+002,3.233681e-002
8.176830e+002,3.214831e-002
8.196115e+002,3.216953e-002
8.215399e+002,3.210460e-002
8.234684e+002,3.202526e-002
8.253970e+002,3.193642e-002
8.273254e+002,3.194911e-002
8.292539e+002,3.196491e-002
8.311824e+002,3.190967e-002
8.331110e+002,3.189633e-002
8.350394e+002,3.183590e-002
8.369679e+002,3.166151e-002
8.388964e+002,3.139629e-002
8.408250e+002,3.116369e-002
8.427534e+002,3.093660e-002
8.446819e+002,3.073135e-002
8.466104e+002,3.060615e-002
8.485389e+002,3.053309e-002
8.504674e+002,3.058698e-002
8.523959e+002,3.061130e-002
8.543244e+002,3.072519e-002
8.562529e+002,3.079622e-002
8.581814e+002,3.091767e-002
8.601099e+002,3.109133e-002
8.620384e+002,3.123276e-002
8.639669e+002,3.133706e-002
8.658954e+002,3.153918e-002
8.678239e+002,3.180620e-002
8.697524e+002,3.211223e-002
8.716809e+002,3.235012e-002
8.736094e+002,3.261775e-002
8.755378e+002,3.296932e-002
8.774664e+002,3.333431e-002
8.793949e+002,3.369564e-002
8.813234e+002,3.426760e-002
8.832518e+002,3.494991e-002
8.851804e+002,3.577171e-002
8.871089e+002,3.671059e-002
8.890374e+002,3.765973e-002
8.909658e+002,3.870654e-002
8.928943e+002,3.958499e-002
8.948229e+002,4.017477e-002
8.967513e+002,4.044555e-002
8.986798e+002,4.028938e-002
9.006083e+002,3.991606e-002
9.025369e+002,3.933107e-002
9.044653e+002,3.865007e-002
9.063938e+002,3.809260e-002
9.083223e+002,3.771907e-002
9.102509e+002,3.762995e-002
9.121793e+002,3.765023e-002
9.141078e+002,3.768600e-002
9.160364e+002,3.786879e-002
9.179648e+002,3.816198e-002
9.198933e+002,3.846797e-002
9.218218e+002,3.881159e-002
9.237504e+002,3.930430e-002
9.256788e+002,3.976041e-002
9.276073e+002,4.027985e-002
9.295358e+002,4.080902e-002
9.314644e+002,4.136427e-002
9.333928e+002,4.194026e-002
9.353213e+002,4.252006e-002
9.372498e+002,4.327209e-002
9.391783e+002,4.406342e-002
9.411068e+002,4.497917e-002
9.430353e+002,4.603786e-002
9.449637e+002,4.713304e-002
9.468923e+002,4.827697e-002
9.488208e+002,4.943796e-002
9.507493e+002,5.060653e-002
9.526777e+002,5.185389e-002
9.546063e+002,5.316940e-002
9.565348e+002,5.452846e-002
9.584633e+002,5.592661e-002
9.603917e+002,5.722093e-002
9.623203e+002,5.841726e-002
9.642488e+002,5.963650e-002
9.661772e+002,6.085021e-002
9.681057e+002,6.194973e-002
9.700343e+002,6.305097e-002
9.719628e+002,6.425745e-002
9.738912e+002,6.563681e-002
9.758197e+002,6.708458e-002
9.777483e+002,6.876814e-002
9.796768e+002,7.066412e-002
9.816052e+002,7.277521e-002
9.835337e+002,7.484198e-002
9.854623e+002,7.675692e-002
9.873907e+002,7.827107e-002
9.893192e+002,7.939214e-002
9.912477e+002,8.003482e-002
9.931763e+002,8.045688e-002
9.951047e+002,8.067216e-002
9.970332e+002,8.111940e-002
9.989617e+002,8.206150e-002
1.000890e+003,8.336110e-002
1.002819e+003,8.467624e-002
1.004747e+003,8.593682e-002
1.006676e+003,8.716418e-002
1.008604e+003,8.845220e-002
1.010533e+003,8.972868e-002
1.012461e+003,9.122530e-002
1.014390e+003,9.289674e-002
1.016318e+003,9.470381e-002
1.018247e+003,9.651126e-002
1.020175e+003,9.829004e-002
1.022104e+003,9.995537e-002
1.024032e+003,1.015532e-001
1.025961e+003,1.030834e-001
1.027889e+003,1.046531e-001
1.029818e+003,1.060410e-001
1.031746e+003,1.071459e-001
1.033675e+003,1.075934e-001
1.035603e+003,1.073206e-001
1.037532e+003,1.063342e-001
1.039460e+003,1.049074e-001
1.041389e+003,1.034074e-001
1.043317e+003,1.023487e-001
1.045246e+003,1.017075e-001
1.047174e+003,1.012681e-001
1.049103e+003,1.008911e-001
1.051031e+003,1.006296e-001
1.052960e+003,1.001049e-001
1.054888e+003,9.925593e-002
1.056817e+003,9.790393e-002
1.058745e+003,9.636158e-002
1.060674e+003,9.457048e-002
1.062602e+003,9.249526e-002
1.064531e+003,9.021982e-002
1.066459e+003,8.785138e-002
1.068388e+003,8.563102e-002
1.070316e+003,8.375326e-002
1.072245e+003,8.203736e-002
1.074173e+003,8.041011e-002
1.076102e+003,7.878603e-002
1.078030e+003,7.720386e-002
1.079959e+003,7.559384e-002
1.081887e+003,7.421227e-002
1.083816e+003,7.301046e-002
1.085744e+003,7.214680e-002
1.087673e+003,7.146927e-002
1.089601e+003,7.100403e-002
1.091530e+003,7.057628e-002
1.093458e+003,7.018688e-002
1.095387e+003,6.985600e-002
1.097315e+003,6.965096e-002
1.099244e+003,6.956089e-002
1.101172e+003,6.948428e-002
1.103101e+003,6.927744e-002
1.105029e+003,6.883771e-002
1.106958e+003,6.799874e-002
1.108886e+003,6.680884e-002
1.110815e+003,6.520033e-002
1.112743e+003,6.339993e-002
1.114672e+003,6.138873e-002
1.116600e+003,5.942787e-002
1.118529e+003,5.780015e-002
1.120457e+003,5.643038e-002
1.122386e+003,5.506077e-002
1.124314e+003,5.347491e-002
1.126243e+003,5.165960e-002
1.128171e+003,4.982955e-002
1.130100e+003,4.796129e-002
1.132028e+003,4.614747e-002
1.133957e+003,4.446278e-002
1.135885e+003,4.305939e-002
1.137814e+003,4.195906e-002
1.139742e+003,4.128465e-002
1.141671e+003,4.102026e-002
1.143599e+003,4.107685e-002
1.145528e+003,4.139244e-002
1.147456e+003,4.192289e-002
1.149385e+003,4.252327e-002
1.151313e+003,4.317967e-002
1.153242e+003,4.390975e-002
1.155170e+003,4.466316e-002
1.157099e+003,4.518090e-002
1.159027e+003,4.544316e-002
1.160956e+003,4.538302e-002
1.162884e+003,4.484983e-002
1.164813e+003,4.381434e-002
1.166741e+003,4.231204e-002
1.168670e+003,4.044431e-002
1.170598e+003,3.842221e-002
1.172526e+003,3.634880e-002
1.174455e+003,3.437210e-002
1.176384e+003,3.265100e-002
1.178312e+003,3.122468e-002
1.180240e+003,3.001767e-002
1.182169e+003,2.901740e-002
1.184098e+003,2.825480e-002
1.186026e+003,2.769091e-002
1.187954e+003,2.736857e-002
1.189883e+003,2.730403e-002
1.191812e+003,2.735840e-002
1.193740e+003,2.751267e-002
1.195668e+003,2.783467e-002
1.197597e+003,2.825834e-002
1.199526e+003,2.857733e-002
1.201454e+003,2.874207e-002
1.203382e+003,2.878503e-002
1.205311e+003,2.867351e-002
1.207240e+003,2.844495e-002
1.209168e+003,2.830103e-002
1.211096e+003,2.826542e-002
1.213025e+003,2.836991e-002
1.214953e+003,2.859264e-002
1.216882e+003,2.887802e-002
1.218810e+003,2.925781e-002
1.220739e+003,2.973172e-002
1.222667e+003,3.015940e-002
1.224596e+003,3.059283e-002
1.226524e+003,3.107406e-002
1.228453e+003,3.150780e-002
1.230381e+003,3.184521e-002
1.232310e+003,3.211483e-002
1.234238e+003,3.224231e-002
1.236167e+003,3.226605e-002
1.238095e+003,3.224225e-002
1.240024e+003,3.212937e-002
1.241952e+003,3.193796e-002
1.243881e+003,3.161345e-002
1.245809e+003,3.125275e-002
1.247738e+003,3.082057e-002
1.249666e+003,3.034777e-002
1.251595e+003,2.984614e-002
1.253523e+003,2.931818e-002
1.255452e+003,2.879922e-002
1.257380e+003,2.827904e-002
1.259309e+003,2.778995e-002
1.261237e+003,2.721598e-002
1.263166e+003,2.660240e-002
1.265094e+003,2.596291e-002
1.267023e+003,2.526049e-002
1.268951e+003,2.458673e-002
1.270880e+003,2.402380e-002
1.272808e+003,2.347871e-002
1.274737e+003,2.295471e-002
1.276665e+003,2.246771e-002
1.278594e+003,2.209209e-002
1.280522e+003,2.179216e-002
1.282451e+003,2.149209e-002
1.284379e+003,2.121828e-002
1.286308e+003,2.095041e-002
1.288236e+003,2.068492e-002
1.290165e+003,2.058474e-002
1.292093e+003,2.065436e-002
1.294022e+003,2.078709e-002
1.295950e+003,2.090823e-002
1.297879e+003,2.122349e-002
1.299807e+003,2.160888e-002
1.301736e+003,2.201326e-002
1.303664e+003,2.248926e-002
1.305593e+003,2.299679e-002
1.307521e+003,2.353145e-002
1.309450e+003,2.407725e-002
1.311378e+003,2.457475e-002
1.313307e+003,2.499660e-002
1.315235e+003,2.528257e-002
1.317164e+003,2.539771e-002
1.319092e+003,2.533302e-002
1.321021e+003,2.513509e-002
1.322949e+003,2.484746e-002
1.324878e+003,2.462107e-002
1.326806e+003,2.442396e-002
1.328735e+003,2.431881e-002
1.330663e+003,2.418883e-002
1.332592e+003,2.405462e-002
1.334520e+003,2.387439e-002
1.336449e+003,2.365114e-002
1.338377e+003,2.333684e-002
1.340306e+003,2.302293e-002
1.342234e+003,2.279460e-002
1.344163e+003,2.262360e-002
1.346091e+003,2.250675e-002
1.348020e+003,2.250984e-002
1.349948e+003,2.264138e-002
1.351877e+003,2.282426e-002
1.353805e+003,2.305516e-002
1.355734e+003,2.335825e-002
1.357662e+003,2.362588e-002
1.359591e+003,2.392856e-002
1.361519e+003,2.421870e-002
1.363448e+003,2.450581e-002
1.365376e+003,2.476843e-002
1.367305e+003,2.488693e-002
1.369233e+003,2.488985e-002
1.371162e+003,2.474615e-002
1.373090e+003,2.448018e-002
1.375019e+003,2.416853e-002
1.376947e+003,2.371670e-002
1.378876e+003,2.315250e-002
1.380804e+003,2.248543e-002
1.382733e+003,2.180369e-002
1.384661e+003,2.118431e-002
1.386590e+003,2.063774e-002
1.388518e+003,2.024137e-002
1.390447e+003,1.993291e-002
1.392375e+003,1.967687e-002
1.394304e+003,1.951537e-002
1.396232e+003,1.943299e-002
1.398161e+003,1.940277e-002
1.400089e+003,1.945253e-002
1.402018e+003,1.949978e-002
1.403946e+003,1.957250e-002
1.405875e+003,1.972570e-002
1.407803e+003,1.987199e-002
1.409732e+003,2.006624e-002
1.411660e+003,2.033781e-002
1.413589e+003,2.065381e-002
1.415517e+003,2.098499e-002
1.417446e+003,2.129486e-002
1.419374e+003,2.157326e-002
1.421303e+003,2.177420e-002
1.423231e+003,2.181355e-002
1.425160e+003,2.177044e-002
1.427088e+003,2.160897e-002
1.429017e+003,2.125991e-002
1.430945e+003,2.089832e-002
1.432874e+003,2.054511e-002
1.434802e+003,2.012874e-002
1.436731e+003,1.979349e-002
1.438659e+003,1.954363e-002
1.440588e+003,1.933534e-002
1.442516e+003,1.921003e-002
1.444445e+003,1.919104e-002
1.446373e+003,1.924724e-002
1.448302e+003,1.933642e-002
1.450230e+003,1.935964e-002
1.452159e+003,1.934081e-002
1.454087e+003,1.925936e-002
1.456016e+003,1.912665e-002
1.457944e+003,1.898041e-002
1.459873e+003,1.889201e-002
1.461801e+003,1.875827e-002
1.463730e+003,1.848908e-002
1.465658e+003,1.801744e-002
1.467587e+003,1.733561e-002
1.469515e+003,1.650774e-002
1.471444e+003,1.572866e-002
1.473372e+003,1.506568e-002
1.475301e+003,1.445558e-002
1.477229e+003,1.399458e-002
1.479158e+003,1.366975e-002
1.481086e+003,1.345805e-002
1.483015e+003,1.339535e-002
1.484943e+003,1.341829e-002
1.486872e+003,1.349617e-002
1.488800e+003,1.364184e-002
1.490729e+003,1.390817e-002
1.492657e+003,1.420713e-002
1.494586e+003,1.449119e-002
1.496514e+003,1.478014e-002
1.498443e+003,1.506699e-002
1.500371e+003,1.532370e-002
1.502300e+003,1.548119e-002
1.504228e+003,1.559244e-002
1.506157e+003,1.565076e-002
1.508085e+003,1.569202e-002
1.510014e+003,1.563502e-002
1.511942e+003,1.561051e-002
1.513871e+003,1.552194e-002
1.515799e+003,1.524239e-002
1.517728e+003,1.482742e-002
1.519656e+003,1.441193e-002
1.521585e+003,1.398946e-002
1.523513e+003,1.364339e-002
1.525442e+003,1.347463e-002
1.527370e+003,1.337798e-002
1.529299e+003,1.330520e-002
1.531227e+003,1.323875e-002
1.533156e+003,1.318875e-002
1.535084e+003,1.323787e-002
1.537013e+003,1.328993e-002
1.538941e+003,1.333368e-002
1.540870e+003,1.337027e-002
1.542798e+003,1.337810e-002
1.544727e+003,1.341435e-002
1.546655e+003,1.341789e-002
1.548584e+003,1.340803e-002
1.550512e+003,1.347413e-002
1.552441e+003,1.356610e-002
1.554369e+003,1.358815e-002
1.556298e+003,1.360110e-002
1.558226e+003,1.367528e-002
1.560155e+003,1.381020e-002
1.562083e+003,1.384498e-002
1.564012e+003,1.391493e-002
1.565940e+003,1.404185e-002
1.567869e+003,1.418169e-002
1.569797e+003,1.440665e-002
1.571726e+003,1.466555e-002
1.573654e+003,1.493174e-002
1.575583e+003,1.533567e-002
1.577511e+003,1.569343e-002
1.579440e+003,1.599496e-002
1.581368e+003,1.644806e-002
1.583297e+003,1.694396e-002
1.585225e+003,1.746397e-002
1.587154e+003,1.791614e-002
1.589082e+003,1.833075e-002
1.591010e+003,1.865918e-002
1.592939e+003,1.889692e-002
1.594868e+003,1.902677e-002
1.596796e+003,1.911685e-002
1.598724e+003,1.916738e-002
1.600653e+003,1.921294e-002
1.602582e+003,1.928270e-002
1.604510e+003,1.924603e-002
1.606438e+003,1.910051e-002
1.608367e+003,1.891324e-002
1.610296e+003,1.876785e-002
1.612224e+003,1.869195e-002
1.614152e+003,1.866667e-002
1.616081e+003,1.874659e-002
1.618010e+003,1.884895e-002
1.619938e+003,1.888208e-002
1.621866e+003,1.894109e-002
1.623795e+003,1.901210e-002
1.625724e+003,1.909609e-002
1.627652e+003,1.915973e-002
1.629580e+003,1.913106e-002
1.631509e+003,1.899730e-002
1.633438e+003,1.888940e-002
1.635366e+003,1.879579e-002
1.637294e+003,1.864601e-002
1.639223e+003,1.844804e-002
1.641151e+003,1.834971e-002
1.643080e+003,1.828307e-002
1.645008e+003,1.825732e-002
1.646937e+003,1.816879e-002
1.648865e+003,1.811182e-002
1.650794e+003,1.808543e-002
1.652722e+003,1.795802e-002
1.654651e+003,1.779140e-002
1.656579e+003,1.755077e-002
1.658508e+003,1.722365e-002
1.660436e+003,1.689523e-002
1.662365e+003,1.653847e-002
1.664293e+003,1.621555e-002
1.666222e+003,1.588811e-002
1.668150e+003,1.556303e-002
1.670079e+003,1.525969e-002
1.672007e+003,1.499444e-002
1.673936e+003,1.467185e-002
1.675864e+003,1.447854e-002
1.677793e+003,1.427267e-002
1.679721e+003,1.410117e-002
1.681650e+003,1.389689e-002
1.683578e+003,1.377561e-002
1.685507e+003,1.376484e-002
1.687435e+003,1.360337e-002
1.689364e+003,1.348981e-002
1.691292e+003,1.342499e-002
1.693221e+003,1.340169e-002
1.695149e+003,1.338820e-002
1.697078e+003,1.336374e-002
1.699006e+003,1.318738e-002
1.700935e+003,1.317760e-002
1.702863e+003,1.317103e-002
1.704792e+003,1.316926e-002
1.706720e+003,1.322969e-002
1.708649e+003,1.332670e-002
1.710577e+003,1.346076e-002
1.712506e+003,1.370133e-002
1.714434e+003,1.391732e-002
1.716363e+003,1.405903e-002
1.718291e+003,1.421758e-002
1.720220e+003,1.432646e-002
1.722148e+003,1.450704e-002
1.724077e+003,1.472702e-002
1.726005e+003,1.486629e-002
1.727934e+003,1.492590e-002
1.729862e+003,1.492717e-002
1.731791e+003,1.492397e-002
1.733719e+003,1.483397e-002
1.735648e+003,1.466702e-002
1.737576e+003,1.426763e-002
1.739505e+003,1.384151e-002
1.741433e+003,1.345234e-002
1.743362e+003,1.302728e-002
1.745290e+003,1.253223e-002
1.747219e+003,1.211074e-002
1.749147e+003,1.172416e-002
1.751076e+003,1.136868e-002
1.753004e+003,1.098847e-002
1.754933e+003,1.059756e-002
1.756861e+003,1.026661e-002
1.758790e+003,9.977389e-003
1.760718e+003,9.726764e-003
1.762647e+003,9.526536e-003
1.764575e+003,9.368223e-003
1.766504e+003,9.222339e-003
1.768432e+003,9.125407e-003
1.770361e+003,9.028885e-003
1.772289e+003,8.986742e-003
1.774218e+003,8.920053e-003
1.776146e+003,8.872107e-003
1.778075e+003,8.837855e-003
1.780003e+003,8.777920e-003
1.781932e+003,8.811670e-003
1.783860e+003,8.819697e-003
1.785789e+003,8.845019e-003
1.787717e+003,8.864822e-003
1.789646e+003,8.910744e-003
1.791574e+003,8.927901e-003
1.793503e+003,8.918151e-003
1.795431e+003,8.940938e-003
1.797360e+003,8.956053e-003
1.799288e+003,8.982198e-003
1.801217e+003,9.004024e-003
1.803145e+003,8.997319e-003
1.805074e+003,8.972300e-003
1.807002e+003,8.935081e-003
1.808931e+003,8.957176e-003
1.810859e+003,8.952659e-003
1.812788e+003,8.945792e-003
1.814716e+003,9.004805e-003
1.816645e+003,8.941864e-003
1.818573e+003,8.919947e-003
1.820502e+003,8.934955e-003
1.822430e+003,8.935351e-003
1.824359e+003,8.982606e-003
1.826287e+003,9.016172e-003
1.828216e+003,8.988462e-003
1.830144e+003,8.924344e-003
1.832073e+003,8.928634e-003
1.834001e+003,8.988324e-003
1.835930e+003,8.962848e-003
1.837858e+003,8.904078e-003
1.839787e+003,8.908579e-003
1.841715e+003,8.925710e-003
1.843644e+003,8.859598e-003
1.845572e+003,8.907569e-003
1.847501e+003,8.976866e-003
1.849429e+003,8.983255e-003
1.851358e+003,8.983369e-003
1.853286e+003,8.979233e-003
1.855215e+003,9.046949e-003
1.857143e+003,9.031002e-003
1.859072e+003,8.960366e-003
1.861000e+003,8.976271e-003
1.862929e+003,9.042582e-003
1.864857e+003,8.975069e-003
1.866786e+003,8.989475e-003
1.868714e+003,9.059642e-003
1.870643e+003,9.145805e-003
1.872571e+003,9.236019e-003
1.874500e+003,9.242774e-003
1.876428e+003,9.244213e-003
1.878357e+003,9.194856e-003
1.880285e+003,9.074866e-003
1.882214e+003,9.101710e-003
1.884142e+003,9.245394e-003
1.886071e+003,9.369389e-003
1.887999e+003,9.390672e-003
1.889928e+003,9.312637e-003
1.891856e+003,9.234348e-003
1.893785e+003,9.227982e-003
1.895713e+003,9.351686e-003
1.897642e+003,9.313234e-003
1.899570e+003,9.248341e-003
1.901499e+003,9.187873e-003
1.903427e+003,9.119554e-003
1.905356e+003,9.176842e-003
1.907284e+003,9.377753e-003
1.909213e+003,9.440762e-003
1.911141e+003,9.371825e-003
1.913070e+003,9.361241e-003
1.914998e+003,9.422617e-003
1.916927e+003,9.409115e-003
1.918855e+003,9.422036e-003
1.920784e+003,9.457320e-003
1.922712e+003,9.262607e-003
1.924641e+003,9.479452e-003
1.926569e+003,9.468854e-003
1.928498e+003,9.443062e-003
1.930426e+003,9.352600e-003
1.932355e+003,9.307217e-003
1.934283e+003,9.227983e-003
1.936212e+003,9.637823e-003
1.938140e+003,9.878916e-003
1.940069e+003,9.760872e-003
1.941997e+003,9.236284e-003
1.943926e+003,9.287843e-003
1.945854e+003,9.345616e-003
1.947783e+003,9.422439e-003
1.949711e+003,9.258986e-003
1.951640e+003,8.692561e-003
1.953568e+003,8.543714e-003
1.955497e+003,8.898954e-003
1.957425e+003,8.622367e-003
1.959354e+003,8.748091e-003
1.961282e+003,9.088835e-003
1.963211e+003,8.318312e-003
1.965139e+003,8.006042e-003
1.967068e+003,7.837979e-003
1.968996e+003,6.967459e-003
1.970925e+003,6.715328e-003
1.972853e+003,7.070857e-003
1.974782e+003,7.616573e-003
1.976710e+003,7.284702e-003
1.978639e+003,7.190251e-003
1.980567e+003,7.393780e-003
1.982496e+003,7.309571e-003
1.984424e+003,6.914608e-003
1.986353e+003,7.847400e-003
1.988281e+003,8.036437e-003
1.990210e+003,7.666016e-003
1.992138e+003,7.582747e-003
1.994067e+003,8.190514e-003
1.995995e+003,8.260621e-003
1.997924e+003,8.016340e-003
1.999852e+003,7.865676e-003
2.001781e+003,7.254455e-003
2.003709e+003,6.418584e-003
2.005638e+003,6.124870e-003
2.007566e+003,6.048908e-003
2.009495e+003,6.639877e-003
2.011423e+003,6.156312e-003
2.013352e+003,5.805139e-003
2.015280e+003,6.065228e-003
2.017208e+003,5.398452e-003
2.019137e+003,4.320223e-003
2.021066e+003,4.271365e-003
2.022994e+003,4.265049e-003
2.024922e+003,3.786588e-003
2.026851e+003,4.647408e-003
2.028780e+003,4.304530e-003
2.030708e+003,3.878701e-003
2.032636e+003,3.981544e-003
2.034565e+003,3.437148e-003
2.036494e+003,3.598660e-003
2.038422e+003,4.490671e-003
2.040350e+003,4.523404e-003
2.042279e+003,4.230562e-003
2.044208e+003,3.997672e-003
2.046136e+003,4.001006e-003
2.048064e+003,4.359921e-003
2.049993e+003,4.778837e-003
2.051921e+003,5.747389e-003
2.053850e+003,6.093894e-003
2.055778e+003,5.700095e-003
2.057707e+003,5.832690e-003
2.059635e+003,5.713818e-003
2.061564e+003,6.151962e-003
2.063492e+003,6.428177e-003
2.065421e+003,6.252348e-003
2.067349e+003,6.281212e-003
2.069278e+003,6.384549e-003
2.071206e+003,6.483971e-003
2.073135e+003,6.607650e-003
2.075063e+003,6.535088e-003
2.076992e+003,6.541593e-003
2.078920e+003,6.741060e-003
2.080849e+003,6.974514e-003
2.082777e+003,7.357207e-003
2.084706e+003,7.643586e-003
2.086634e+003,7.667538e-003
2.088563e+003,7.427785e-003
2.090491e+003,7.540122e-003
2.092420e+003,7.719113e-003
2.094348e+003,7.978923e-003
2.096277e+003,7.918589e-003
2.098205e+003,7.759552e-003
2.100134e+003,7.905059e-003
2.102062e+003,8.143651e-003
2.103991e+003,8.280204e-003
2.105919e+003,8.378018e-003
2.107848e+003,8.196154e-003
2.109776e+003,8.332114e-003
2.111705e+003,8.681260e-003
2.113633e+003,8.962897e-003
2.115562e+003,8.860691e-003
2.117490e+003,8.951025e-003
2.119419e+003,8.694815e-003
2.121347e+003,8.587467e-003
2.123276e+003,8.689306e-003
2.125204e+003,8.901848e-003
2.127133e+003,9.195472e-003
2.129061e+003,9.020911e-003
2.130990e+003,8.462070e-003
2.132918e+003,9.090402e-003
2.134847e+003,9.179566e-003
2.136775e+003,8.374133e-003
2.138704e+003,8.112458e-003
2.140632e+003,9.006296e-003
2.142561e+003,8.969798e-003
2.144489e+003,7.562807e-003
2.146418e+003,6.845147e-003
2.148346e+003,7.165645e-003
2.150275e+003,7.231370e-003
2.152203e+003,6.486475e-003
2.154132e+003,5.498196e-003
2.156060e+003,5.277720e-003
2.157989e+003,4.175949e-003
2.159917e+003,3.782873e-003
2.161846e+003,5.353894e-003
2.163774e+003,5.527223e-003
2.165703e+003,5.238213e-003
2.167631e+003,6.255783e-003
2.169560e+003,6.235480e-003
2.171488e+003,6.865546e-003
2.173417e+003,7.407539e-003
2.175345e+003,6.579210e-003
2.177274e+003,6.027128e-003
2.179202e+003,6.298711e-003
2.181131e+003,6.662241e-003
2.183059e+003,6.514761e-003
2.184988e+003,6.108071e-003
2.186916e+003,5.983353e-003
2.188845e+003,6.686803e-003
2.190773e+003,7.017051e-003
2.192702e+003,6.862583e-003
2.194630e+003,6.816873e-003
2.196559e+003,6.725366e-003
2.198487e+003,6.990483e-003
2.200416e+003,6.902104e-003
2.202344e+003,6.336533e-003
2.204273e+003,6.384345e-003
2.206201e+003,7.113133e-003
2.208130e+003,6.706622e-003
2.210058e+003,6.098460e-003
2.211987e+003,6.128368e-003
2.213915e+003,6.640438e-003
2.215844e+003,6.786683e-003
2.217772e+003,6.878102e-003
2.219701e+003,6.894563e-003
2.221629e+003,6.804756e-003
2.223558e+003,7.085481e-003
2.225486e+003,7.587690e-003
2.227415e+003,7.514427e-003
2.229343e+003,7.426447e-003
2.231272e+003,7.488418e-003
2.233200e+003,7.877924e-003
2.235129e+003,8.132992e-003
2.237057e+003,8.092922e-003
2.238986e+003,8.119805e-003
2.240914e+003,8.129016e-003
2.242843e+003,7.988988e-003
2.244771e+003,8.165975e-003
2.246700e+003,8.060887e-003
2.248628e+003,7.681211e-003
2.250557e+003,7.417616e-003
2.252485e+003,7.396057e-003
2.254414e+003,7.505208e-003
2.256342e+003,7.537528e-003
2.258271e+003,7.666202e-003
2.260199e+003,7.767338e-003
2.262128e+003,7.735282e-003
2.264056e+003,7.887769e-003
2.265985e+003,7.866282e-003
2.267913e+003,7.719208e-003
2.269842e+003,7.717310e-003
2.271770e+003,8.281568e-003
2.273699e+003,8.332018e-003
2.275627e+003,8.204793e-003
2.277556e+003,8.176987e-003
2.279484e+003,8.266242e-003
2.281413e+003,8.338489e-003
2.283341e+003,8.414689e-003
2.285270e+003,8.567563e-003
2.287198e+003,8.835329e-003
2.289127e+003,9.120494e-003
2.291055e+003,9.198463e-003
2.292984e+003,9.306108e-003
2.294912e+003,9.614892e-003
2.296841e+003,9.787853e-003
2.298769e+003,9.674168e-003
2.300698e+003,9.833170e-003
2.302626e+003,1.023432e-002
2.304555e+003,1.026250e-002
2.306483e+003,1.030428e-002
2.308412e+003,1.036175e-002
2.310340e+003,1.051715e-002
2.312269e+003,1.044496e-002
2.314197e+003,1.031210e-002
2.316125e+003,1.052255e-002
2.318054e+003,1.088350e-002
2.319983e+003,1.100815e-002
2.321911e+003,1.108993e-002
2.323840e+003,1.145707e-002
2.325768e+003,1.192381e-002
2.327697e+003,1.201441e-002
2.329625e+003,1.212468e-002
2.331553e+003,1.230440e-002
2.333482e+003,1.224460e-002
2.335411e+003,1.226086e-002
2.337339e+003,1.206314e-002
2.339268e+003,1.171701e-002
2.341196e+003,1.144275e-002
2.343125e+003,1.138788e-002
2.345053e+003,1.091025e-002
2.346981e+003,1.045960e-002
2.348910e+003,1.014530e-002
2.350839e+003,9.909937e-003
2.352767e+003,9.681945e-003
2.354696e+003,9.297731e-003
2.356624e+003,9.202152e-003
2.358552e+003,9.117790e-003
2.360481e+003,9.061142e-003
2.362409e+003,9.203605e-003
2.364338e+003,9.163355e-003
2.366267e+003,8.614564e-003
2.368195e+003,8.645775e-003
2.370124e+003,9.114742e-003
2.372052e+003,9.604074e-003
2.373980e+003,9.719082e-003
2.375909e+003,9.997181e-003
2.377838e+003,9.960302e-003
2.379766e+003,9.813194e-003
2.381695e+003,9.737397e-003
2.383623e+003,9.610100e-003
2.385552e+003,9.459884e-003
2.387480e+003,9.491782e-003
2.389408e+003,9.429161e-003
2.391337e+003,9.390743e-003
2.393266e+003,9.357467e-003
2.395194e+003,9.347647e-003
2.397123e+003,9.319867e-003
2.399051e+003,9.311063e-003
2.400979e+003,9.329680e-003
2.402908e+003,9.364449e-003
2.404836e+003,9.551343e-003
2.406765e+003,9.685559e-003
2.408694e+003,9.724660e-003
2.410622e+003,9.717477e-003
2.412551e+003,9.678004e-003
2.414479e+003,9.755868e-003
2.416407e+003,9.763324e-003
2.418336e+003,9.691319e-003
2.420264e+003,9.773219e-003
2.422193e+003,9.822156e-003
2.424122e+003,9.706126e-003
2.426050e+003,9.631048e-003
2.427979e+003,9.657371e-003
2.429907e+003,9.704669e-003
2.431835e+003,9.656558e-003
2.433764e+003,9.550292e-003
2.435692e+003,9.433149e-003
2.437621e+003,9.352600e-003
2.439550e+003,9.261065e-003
2.441478e+003,9.251486e-003
2.443406e+003,9.337230e-003
2.445335e+003,9.308692e-003
2.447263e+003,9.150598e-003
2.449192e+003,9.157062e-003
2.451121e+003,9.237101e-003
2.453049e+003,9.318847e-003
2.454978e+003,9.291563e-003
2.456906e+003,9.249828e-003
2.458834e+003,9.180987e-003
2.460763e+003,9.237270e-003
2.462691e+003,9.309504e-003
2.464620e+003,9.283879e-003
2.466549e+003,9.267361e-003
2.468477e+003,9.222954e-003
2.470406e+003,9.207351e-003
2.472334e+003,9.216794e-003
2.474262e+003,9.164778e-003
2.476191e+003,9.113309e-003
2.478119e+003,9.236120e-003
2.480048e+003,9.193712e-003
2.481977e+003,9.130363e-003
2.483905e+003,9.259813e-003
2.485833e+003,9.352600e-003
2.487762e+003,9.363569e-003
2.489690e+003,9.386863e-003
2.491619e+003,9.363942e-003
2.493547e+003,9.325009e-003
2.495476e+003,9.367395e-003
2.497405e+003,9.485062e-003
2.499333e+003,9.510903e-003
2.501261e+003,9.442495e-003
2.503190e+003,9.446186e-003
2.505118e+003,9.467418e-003
2.507047e+003,9.426749e-003
2.508975e+003,9.417336e-003
2.510904e+003,9.571563e-003
2.512833e+003,9.627219e-003
2.514761e+003,9.578643e-003
2.516689e+003,9.486755e-003
2.518618e+003,9.327413e-003
2.520546e+003,9.344035e-003
2.522475e+003,9.527328e-003
2.524403e+003,9.610993e-003
2.526332e+003,9.583419e-003
2.528260e+003,9.574951e-003
2.530189e+003,9.651984e-003
2.532117e+003,9.645784e-003
2.534046e+003,9.590194e-003
2.535974e+003,9.450588e-003
2.537903e+003,9.459766e-003
2.539831e+003,9.508261e-003
2.541760e+003,9.539454e-003
2.543688e+003,9.498643e-003
2.545617e+003,9.481100e-003
2.547545e+003,9.528887e-003
2.549474e+003,9.509243e-003
2.551402e+003,9.522858e-003
2.553331e+003,9.573054e-003
2.555259e+003,9.548226e-003
2.557188e+003,9.464066e-003
2.559116e+003,9.403623e-003
2.561045e+003,9.473244e-003
2.562973e+003,9.435656e-003
2.564902e+003,9.432168e-003
2.566830e+003,9.496306e-003
2.568759e+003,9.593649e-003
2.570687e+003,9.688270e-003
2.572616e+003,9.648055e-003
2.574544e+003,9.537862e-003
2.576473e+003,9.493393e-003
2.578401e+003,9.440464e-003
2.580330e+003,9.430373e-003
2.582258e+003,9.322775e-003
2.584187e+003,9.381310e-003
2.586115e+003,9.425260e-003
2.588044e+003,9.370917e-003
2.589972e+003,9.327751e-003
2.591901e+003,9.318238e-003
2.593829e+003,9.353886e-003
2.595758e+003,9.383274e-003
2.597686e+003,9.271457e-003
2.599615e+003,9.314548e-003
2.601543e+003,9.264754e-003
2.603472e+003,9.246612e-003
2.605400e+003,9.203832e-003
2.607329e+003,9.159397e-003
2.609257e+003,9.186741e-003
2.611186e+003,9.147756e-003
2.613114e+003,9.100383e-003
2.615043e+003,9.142917e-003
2.616971e+003,9.181935e-003
2.618900e+003,9.212969e-003
2.620828e+003,9.230907e-003
2.622757e+003,9.172223e-003
2.624685e+003,9.157705e-003
2.626614e+003,9.253212e-003
2.628542e+003,9.306559e-003
2.630471e+003,9.297047e-003
2.632399e+003,9.300196e-003
2.634328e+003,9.343933e-003
2.636256e+003,9.420553e-003
2.638185e+003,9.509378e-003
2.640113e+003,9.598053e-003
2.642042e+003,9.716291e-003
2.643970e+003,9.807244e-003
2.645899e+003,9.890793e-003
2.647827e+003,9.966289e-003
2.649756e+003,1.001660e-002
2.651684e+003,1.007177e-002
2.653613e+003,1.020754e-002
2.655541e+003,1.033725e-002
2.657470e+003,1.035937e-002
2.659398e+003,1.039473e-002
2.661327e+003,1.043237e-002
2.663255e+003,1.047361e-002
2.665184e+003,1.051953e-002
2.667112e+003,1.059456e-002
2.669041e+003,1.067212e-002
2.670969e+003,1.073732e-002
2.672898e+003,1.075050e-002
2.674826e+003,1.076843e-002
2.676755e+003,1.075468e-002
2.678683e+003,1.073569e-002
2.680612e+003,1.078871e-002
2.682540e+003,1.080427e-002
2.684469e+003,1.079004e-002
2.686397e+003,1.084683e-002
2.688326e+003,1.088295e-002
2.690254e+003,1.090245e-002
2.692183e+003,1.092766e-002
2.694111e+003,1.093578e-002
2.696040e+003,1.092168e-002
2.697968e+003,1.094771e-002
2.699897e+003,1.093996e-002
2.701825e+003,1.091587e-002
2.703754e+003,1.095532e-002
2.705682e+003,1.095777e-002
2.707611e+003,1.096966e-002
2.709539e+003,1.099022e-002
2.711468e+003,1.098916e-002
2.713396e+003,1.093666e-002
2.715325e+003,1.095987e-002
2.717253e+003,1.100609e-002
2.719182e+003,1.095583e-002
2.721110e+003,1.095641e-002
2.723039e+003,1.100813e-002
2.724967e+003,1.105411e-002
2.726896e+003,1.104908e-002
2.728824e+003,1.104290e-002
2.730753e+003,1.108256e-002
2.732681e+003,1.110765e-002
2.734610e+003,1.110554e-002
2.736538e+003,1.109024e-002
2.738467e+003,1.109602e-002
2.740395e+003,1.108746e-002
2.742324e+003,1.112284e-002
2.744252e+003,1.112243e-002
2.746181e+003,1.112556e-002
2.748109e+003,1.109578e-002
2.750038e+003,1.107957e-002
2.751966e+003,1.112998e-002
2.753895e+003,1.117652e-002
2.755823e+003,1.120603e-002
2.757752e+003,1.121059e-002
2.759680e+003,1.120940e-002
2.761609e+003,1.127883e-002
2.763537e+003,1.132025e-002
2.765466e+003,1.129519e-002
2.767394e+003,1.128213e-002
2.769323e+003,1.130502e-002
2.771251e+003,1.135488e-002
2.773180e+003,1.140753e-002
2.775108e+003,1.143522e-002
2.777037e+003,1.142981e-002
2.778965e+003,1.142821e-002
2.780894e+003,1.146907e-002
2.782822e+003,1.147730e-002
2.784750e+003,1.147723e-002
2.786679e+003,1.146403e-002
2.788608e+003,1.152898e-002
2.790536e+003,1.160864e-002
2.792465e+003,1.163621e-002
2.794393e+003,1.162219e-002
2.796322e+003,1.167038e-002
2.798250e+003,1.172457e-002
2.800178e+003,1.173295e-002
2.802107e+003,1.174629e-002
2.804036e+003,1.180634e-002
2.805964e+003,1.185711e-002
2.807893e+003,1.187009e-002
2.809821e+003,1.192168e-002
2.811750e+003,1.198908e-002
2.813678e+003,1.201476e-002
2.815606e+003,1.207731e-002
2.817535e+003,1.215714e-002
2.819464e+003,1.223286e-002
2.821392e+003,1.235707e-002
2.823321e+003,1.240848e-002
2.825249e+003,1.247790e-002
2.827177e+003,1.253925e-002
2.829106e+003,1.263172e-002
2.831034e+003,1.270742e-002
2.832963e+003,1.278675e-002
2.834892e+003,1.294904e-002
2.836820e+003,1.307304e-002
2.838749e+003,1.313342e-002
2.840677e+003,1.328084e-002
2.842605e+003,1.340470e-002
2.844534e+003,1.350805e-002
2.846462e+003,1.366045e-002
2.848391e+003,1.383176e-002
2.850320e+003,1.399259e-002
2.852248e+003,1.412155e-002
2.854177e+003,1.417625e-002
2.856105e+003,1.417118e-002
2.858033e+003,1.420069e-002
2.859962e+003,1.429287e-002
2.861890e+003,1.439526e-002
2.863819e+003,1.457234e-002
2.865748e+003,1.471076e-002
2.867676e+003,1.469269e-002
2.869604e+003,1.469297e-002
2.871533e+003,1.479790e-002
2.873461e+003,1.489928e-002
2.875390e+003,1.490466e-002
2.877319e+003,1.492325e-002
2.879247e+003,1.492932e-002
2.881176e+003,1.496917e-002
2.883104e+003,1.499349e-002
2.885032e+003,1.501654e-002
2.886961e+003,1.508936e-002
2.888889e+003,1.511320e-002
2.890818e+003,1.512703e-002
2.892747e+003,1.504603e-002
2.894675e+003,1.503619e-002
2.896604e+003,1.515794e-002
2.898532e+003,1.519215e-002
2.900460e+003,1.516316e-002
2.902389e+003,1.508065e-002
2.904317e+003,1.502336e-002
2.906246e+003,1.496478e-002
2.908175e+003,1.490343e-002
2.910103e+003,1.484829e-002
2.912031e+003,1.478010e-002
2.913960e+003,1.471189e-002
2.915888e+003,1.469458e-002
2.917817e+003,1.465616e-002
2.919745e+003,1.457940e-002
2.921674e+003,1.445226e-002
2.923603e+003,1.439427e-002
2.925531e+003,1.436591e-002
2.927459e+003,1.421589e-002
2.929388e+003,1.411224e-002
2.931316e+003,1.410053e-002
2.933245e+003,1.396778e-002
2.935173e+003,1.381388e-002
2.937102e+003,1.376874e-002
2.939031e+003,1.369042e-002
2.940959e+003,1.357212e-002
2.942887e+003,1.347838e-002
2.944816e+003,1.334540e-002
2.946744e+003,1.313515e-002
2.948673e+003,1.296128e-002
2.950601e+003,1.287178e-002
2.952530e+003,1.274218e-002
2.954458e+003,1.249038e-002
2.956387e+003,1.239337e-002
2.958315e+003,1.234698e-002
2.960244e+003,1.229091e-002
2.962172e+003,1.217029e-002
2.964101e+003,1.203356e-002
2.966029e+003,1.202442e-002
2.967958e+003,1.195932e-002
2.969886e+003,1.184679e-002
2.971815e+003,1.177222e-002
2.973743e+003,1.166282e-002
2.975672e+003,1.158772e-002
2.977600e+003,1.149167e-002
2.979529e+003,1.143296e-002
2.981457e+003,1.142626e-002
2.983386e+003,1.137563e-002
2.985314e+003,1.137560e-002
2.987243e+003,1.133671e-002
2.989171e+003,1.127093e-002
2.991100e+003,1.124282e-002
2.993028e+003,1.130201e-002
2.994957e+003,1.131546e-002
2.996885e+003,1.127023e-002
2.998814e+003,1.127413e-002
3.000742e+003,1.128362e-002
3.002671e+003,1.127310e-002
3.004599e+003,1.119628e-002
3.006528e+003,1.116254e-002
3.008456e+003,1.117597e-002
3.010385e+003,1.124567e-002
3.012313e+003,1.131344e-002
3.014242e+003,1.135402e-002
3.016170e+003,1.139291e-002
3.018099e+003,1.132633e-002
3.020027e+003,1.136011e-002
3.021956e+003,1.146752e-002
3.023884e+003,1.142702e-002
3.025813e+003,1.144168e-002
3.027741e+003,1.153038e-002
3.029670e+003,1.154480e-002
3.031598e+003,1.154477e-002
3.033527e+003,1.161689e-002
3.035455e+003,1.169747e-002
3.037384e+003,1.174780e-002
3.039312e+003,1.180244e-002
3.041241e+003,1.177273e-002
3.043169e+003,1.179345e-002
3.045098e+003,1.185656e-002
3.047026e+003,1.185881e-002
3.048955e+003,1.193988e-002
3.050883e+003,1.204450e-002
3.052812e+003,1.204910e-002
3.054740e+003,1.211184e-002
3.056669e+003,1.218349e-002
3.058597e+003,1.219779e-002
3.060526e+003,1.225071e-002
3.062454e+003,1.230851e-002
3.064383e+003,1.229816e-002
3.066311e+003,1.233877e-002
3.068240e+003,1.245124e-002
3.070168e+003,1.252671e-002
3.072097e+003,1.253473e-002
3.074025e+003,1.257015e-002
3.075954e+003,1.265289e-002
3.077882e+003,1.268671e-002
3.079811e+003,1.272234e-002
3.081739e+003,1.281129e-002
3.083668e+003,1.287730e-002
3.085596e+003,1.282293e-002
3.087525e+003,1.295872e-002
3.089453e+003,1.313720e-002
3.091382e+003,1.306822e-002
3.093310e+003,1.305809e-002
3.095239e+003,1.318194e-002
3.097167e+003,1.329674e-002
3.099096e+003,1.336556e-002
3.101024e+003,1.343637e-002
3.102953e+003,1.348217e-002
3.104881e+003,1.346165e-002
3.106810e+003,1.347064e-002
3.108738e+003,1.353623e-002
3.110667e+003,1.363199e-002
3.112595e+003,1.368065e-002
3.114524e+003,1.371480e-002
3.116452e+003,1.379530e-002
3.118381e+003,1.381856e-002
3.120309e+003,1.385208e-002
3.122238e+003,1.395414e-002
3.124166e+003,1.401591e-002
3.126095e+003,1.407764e-002
3.128023e+003,1.413454e-002
3.129952e+003,1.428621e-002
3.131880e+003,1.440167e-002
3.133809e+003,1.442174e-002
3.135737e+003,1.444309e-002
3.137666e+003,1.449877e-002
3.139594e+003,1.463483e-002
3.141523e+003,1.467955e-002
3.143451e+003,1.472075e-002
3.145380e+003,1.477261e-002
3.147308e+003,1.489509e-002
3.149237e+003,1.504125e-002
3.151165e+003,1.517296e-002
3.153094e+003,1.527487e-002
3.155022e+003,1.529995e-002
3.156951e+003,1.532970e-002
3.158879e+003,1.538426e-002
3.160808e+003,1.543796e-002
3.162736e+003,1.552251e-002
3.164665e+003,1.565491e-002
3.166593e+003,1.573705e-002
3.168522e+003,1.575325e-002
3.170450e+003,1.590122e-002
3.172379e+003,1.604188e-002
3.174307e+003,1.608112e-002
3.176236e+003,1.616320e-002
3.178164e+003,1.623058e-002
3.180093e+003,1.629788e-002
3.182021e+003,1.646582e-002
3.183950e+003,1.658658e-002
3.185878e+003,1.658127e-002
3.187807e+003,1.672164e-002
3.189735e+003,1.679820e-002
3.191664e+003,1.691846e-002
3.193592e+003,1.701444e-002
3.195521e+003,1.706240e-002
3.197449e+003,1.724896e-002
3.199378e+003,1.732590e-002
3.201306e+003,1.735728e-002
3.203235e+003,1.745301e-002
3.205163e+003,1.758919e-002
3.207092e+003,1.777929e-002
3.209020e+003,1.782774e-002
3.210948e+003,1.793532e-002
3.212877e+003,1.802564e-002
3.214806e+003,1.802964e-002
3.216734e+003,1.810966e-002
3.218663e+003,1.829695e-002
3.220591e+003,1.843642e-002
3.222520e+003,1.857350e-002
3.224448e+003,1.866639e-002
3.226376e+003,1.868501e-002
3.228305e+003,1.886714e-002
3.230234e+003,1.904431e-002
3.232162e+003,1.906740e-002
3.234091e+003,1.919808e-002
3.236019e+003,1.935139e-002
3.237948e+003,1.939902e-002
3.239876e+003,1.943259e-002
3.241804e+003,1.961204e-002
3.243733e+003,1.977346e-002
3.245662e+003,1.987014e-002
3.247590e+003,2.000013e-002
3.249519e+003,2.011601e-002
3.251447e+003,2.021441e-002
3.253375e+003,2.033906e-002
3.255304e+003,2.049271e-002
3.257232e+003,2.061165e-002
3.259161e+003,2.067931e-002
3.261090e+003,2.080620e-002
3.263018e+003,2.097092e-002
3.264947e+003,2.106906e-002
3.266875e+003,2.114640e-002
3.268803e+003,2.131707e-002
3.270732e+003,2.141516e-002
3.272660e+003,2.148204e-002
3.274589e+003,2.145596e-002
3.276518e+003,2.155260e-002
3.278446e+003,2.178338e-002
3.280375e+003,2.174552e-002
3.282303e+003,2.166985e-002
3.284231e+003,2.183442e-002
3.286160e+003,2.194791e-002
3.288088e+003,2.189002e-002
3.290017e+003,2.186449e-002
3.291946e+003,2.194807e-002
3.293874e+003,2.201440e-002
3.295802e+003,2.204110e-002
3.297731e+003,2.204264e-002
3.299659e+003,2.212557e-002
3.301588e+003,2.210134e-002
3.303516e+003,2.210134e-002
3.305445e+003,2.212312e-002
3.307374e+003,2.216046e-002
3.309302e+003,2.219083e-002
3.311230e+003,2.220233e-002
3.313159e+003,2.224378e-002
3.315087e+003,2.234306e-002
3.317016e+003,2.245075e-002
3.318944e+003,2.254601e-002
3.320873e+003,2.254858e-002
3.322802e+003,2.250411e-002
3.324730e+003,2.252554e-002
3.326658e+003,2.258250e-002
3.328587e+003,2.267597e-002
3.330515e+003,2.265984e-002
3.332444e+003,2.263101e-002
3.334372e+003,2.260851e-002
3.336301e+003,2.259182e-002
3.338229e+003,2.252406e-002
3.340158e+003,2.250439e-002
3.342086e+003,2.254097e-002
3.344015e+003,2.243308e-002
3.345943e+003,2.230297e-002
3.347872e+003,2.225063e-002
3.349800e+003,2.223708e-002
3.351729e+003,2.218165e-002
3.353657e+003,2.205390e-002
3.355586e+003,2.203979e-002
3.357514e+003,2.197040e-002
3.359443e+003,2.184757e-002
3.361371e+003,2.178510e-002
3.363300e+003,2.165248e-002
3.365229e+003,2.157442e-002
3.367157e+003,2.145165e-002
3.369085e+003,2.129218e-002
3.371014e+003,2.121632e-002
3.372942e+003,2.128241e-002
3.374871e+003,2.128511e-002
3.376799e+003,2.115244e-002
3.378728e+003,2.100635e-002
3.380656e+003,2.093539e-002
3.382585e+003,2.090410e-002
3.384513e+003,2.083932e-002
3.386442e+003,2.075141e-002
3.388370e+003,2.065866e-002
3.390299e+003,2.052539e-002
3.392227e+003,2.038803e-002
3.394156e+003,2.028099e-002
3.396084e+003,2.026339e-002
3.398013e+003,2.019933e-002
3.399941e+003,2.001474e-002
3.401870e+003,1.991253e-002
3.403798e+003,1.987339e-002
3.405727e+003,1.971402e-002
3.407655e+003,1.960403e-002
3.409584e+003,1.953986e-002
3.411512e+003,1.946986e-002
3.413441e+003,1.934687e-002
3.415369e+003,1.919322e-002
3.417298e+003,1.900061e-002
3.419226e+003,1.880015e-002
3.421155e+003,1.864014e-002
3.423083e+003,1.854238e-002
3.425012e+003,1.839122e-002
3.426940e+003,1.819765e-002
3.428869e+003,1.803685e-002
3.430797e+003,1.789447e-002
3.432726e+003,1.775340e-002
3.434654e+003,1.760215e-002
3.436583e+003,1.748426e-002
3.438511e+003,1.732462e-002
3.440440e+003,1.713509e-002
3.442368e+003,1.694010e-002
3.444297e+003,1.672414e-002
3.446225e+003,1.647330e-002
3.448154e+003,1.627907e-002
3.450082e+003,1.603337e-002
3.452011e+003,1.587623e-002
3.453939e+003,1.582367e-002
3.455868e+003,1.561707e-002
3.457796e+003,1.538361e-002
3.459725e+003,1.523612e-002
3.461653e+003,1.511828e-002
3.463582e+003,1.487863e-002
3.465510e+003,1.458788e-002
3.467439e+003,1.442211e-002
3.469367e+003,1.427737e-002
3.471296e+003,1.406995e-002
3.473224e+003,1.394008e-002
3.475153e+003,1.377939e-002
3.477081e+003,1.369362e-002
3.479010e+003,1.350796e-002
3.480938e+003,1.333745e-002
3.482867e+003,1.320802e-002
3.484795e+003,1.303392e-002
3.486724e+003,1.279346e-002
3.488652e+003,1.262218e-002
3.490581e+003,1.251672e-002
3.492509e+003,1.244375e-002
3.494438e+003,1.228637e-002
3.496366e+003,1.210131e-002
3.498295e+003,1.194340e-002
3.500223e+003,1.182138e-002
3.502152e+003,1.163667e-002
3.504080e+003,1.160870e-002
3.506009e+003,1.148834e-002
3.507937e+003,1.133389e-002
3.509866e+003,1.120093e-002
3.511794e+003,1.099317e-002
3.513723e+003,1.076074e-002
3.515651e+003,1.075734e-002
3.517580e+003,1.071411e-002
3.519508e+003,1.060033e-002
3.521437e+003,1.039895e-002
3.523365e+003,1.025811e-002
3.525294e+003,1.020244e-002
3.527222e+003,1.010956e-002
3.529151e+003,9.949945e-003
3.531079e+003,9.860002e-003
3.533008e+003,9.714678e-003
3.534936e+003,9.612074e-003
3.536865e+003,9.502847e-003
3.538793e+003,9.340350e-003
3.540722e+003,9.286385e-003
3.542650e+003,9.173173e-003
3.544579e+003,9.036934e-003
3.546507e+003,8.843821e-003
3.548436e+003,8.582250e-003
3.550364e+003,8.458390e-003
3.552293e+003,8.373220e-003
3.554221e+003,8.253281e-003
3.556150e+003,8.187238e-003
3.558078e+003,8.185290e-003
3.560007e+003,8.081743e-003
3.561935e+003,7.922939e-003
3.563864e+003,7.779592e-003
3.565792e+003,7.604490e-003
3.567721e+003,7.353247e-003
3.569649e+003,7.298414e-003
3.571578e+003,7.311866e-003
3.573506e+003,7.223949e-003
3.575435e+003,7.139287e-003
3.577363e+003,6.922471e-003
3.579292e+003,6.692967e-003
3.581220e+003,6.487375e-003
3.583149e+003,6.266576e-003
3.585077e+003,6.081173e-003
3.587006e+003,5.730686e-003
3.588934e+003,5.452850e-003
3.590863e+003,5.253463e-003
3.592791e+003,4.992910e-003
3.594720e+003,4.746931e-003
3.596648e+003,4.642026e-003
3.598577e+003,4.524064e-003
3.600505e+003,4.404549e-003
3.602434e+003,4.320743e-003
3.604362e+003,4.358060e-003
3.606291e+003,4.456401e-003
3.608219e+003,4.633276e-003
3.610148e+003,5.062937e-003
3.612076e+003,5.289126e-003
3.614005e+003,5.047287e-003
3.615933e+003,4.580078e-003
3.617862e+003,4.080952e-003
3.619790e+003,3.642678e-003
3.621719e+003,3.322963e-003
3.623647e+003,3.135003e-003
3.625576e+003,3.036140e-003
3.627504e+003,3.054806e-003
3.629433e+003,3.001244e-003
3.631361e+003,3.063754e-003
3.633290e+003,3.274574e-003
3.635218e+003,3.618482e-003
3.637146e+003,3.833622e-003
3.639075e+003,4.134703e-003
3.641004e+003,4.415467e-003
3.642932e+003,4.542659e-003
3.644861e+003,4.710482e-003
3.646789e+003,4.572681e-003
3.648718e+003,4.400480e-003
3.650646e+003,4.369229e-003
3.652574e+003,4.512253e-003
3.654503e+003,4.537930e-003
3.656432e+003,4.387969e-003
3.658360e+003,4.449061e-003
3.660289e+003,4.468156e-003
3.662217e+003,4.460603e-003
3.664146e+003,4.368318e-003
3.666074e+003,4.326169e-003
3.668002e+003,4.424311e-003
3.669931e+003,4.503344e-003
3.671860e+003,4.236193e-003
3.673788e+003,4.001357e-003
3.675717e+003,3.948914e-003
3.677645e+003,3.935553e-003
3.679573e+003,3.773545e-003
3.681502e+003,3.608758e-003
3.683430e+003,3.425047e-003
3.685359e+003,3.219797e-003
3.687288e+003,3.175285e-003
3.689216e+003,2.892884e-003
3.691145e+003,2.520460e-003
3.693073e+003,2.367457e-003
3.695001e+003,2.185100e-003
3.696930e+003,1.873147e-003
3.698858e+003,1.704299e-003
3.700787e+003,1.709142e-003
3.702716e+003,1.795036e-003
3.704644e+003,1.790958e-003
3.706573e+003,1.903496e-003
3.708501e+003,2.203482e-003
3.710429e+003,2.491623e-003
3.712358e+003,3.017793e-003
3.714286e+003,3.366178e-003
3.716215e+003,3.085422e-003
3.718144e+003,2.400967e-003
3.720072e+003,1.756442e-003
3.722000e+003,1.135009e-003
3.723929e+003,7.460085e-004
3.725857e+003,5.946298e-004
3.727786e+003,5.448121e-004
3.729714e+003,5.340221e-004
3.731643e+003,6.962150e-004
3.733572e+003,9.505430e-004
3.735500e+003,1.335132e-003
3.737428e+003,1.933826e-003
3.739357e+003,2.394916e-003
3.741285e+003,2.883266e-003
3.743214e+003,3.365806e-003
3.745142e+003,3.507545e-003
3.747071e+003,3.633683e-003
3.749000e+003,3.822566e-003
3.750928e+003,3.906995e-003
3.752856e+003,3.915662e-003
3.754785e+003,3.861387e-003
3.756713e+003,3.941783e-003
3.758642e+003,3.940792e-003
3.760570e+003,3.972420e-003
3.762499e+003,3.942546e-003
3.764427e+003,3.897027e-003
3.766356e+003,3.904740e-003
3.768284e+003,4.012874e-003
3.770213e+003,4.021192e-003
3.772141e+003,4.027466e-003
3.774070e+003,3.918055e-003
3.775998e+003,3.918319e-003
3.777927e+003,3.972483e-003
3.779855e+003,3.953475e-003
3.781784e+003,3.984224e-003
3.783712e+003,3.971900e-003
3.785641e+003,3.993714e-003
3.787569e+003,4.072871e-003
3.789498e+003,4.126601e-003
3.791426e+003,4.099858e-003
3.793355e+003,4.143860e-003
3.795283e+003,4.195430e-003
3.797212e+003,4.133832e-003
3.799140e+003,4.127170e-003
3.801069e+003,4.164394e-003
3.802997e+003,4.132989e-003
3.804926e+003,4.162407e-003
3.806854e+003,4.131333e-003
3.808783e+003,4.057810e-003
3.810711e+003,4.107628e-003
3.812640e+003,4.092140e-003
3.814568e+003,4.175086e-003
3.816497e+003,4.150352e-003
3.818425e+003,4.029938e-003
3.820354e+003,4.023743e-003
3.822282e+003,4.060820e-003
3.824211e+003,4.115161e-003
3.826139e+003,4.062119e-003
3.828068e+003,4.153197e-003
3.829996e+003,4.176881e-003
3.831925e+003,4.075261e-003
3.833853e+003,4.081010e-003
3.835782e+003,4.186247e-003
3.837710e+003,4.199551e-003
3.839639e+003,4.049531e-003
3.841567e+003,4.081885e-003
3.843496e+003,4.098047e-003
3.845424e+003,4.088813e-003
3.847353e+003,4.104092e-003
3.849281e+003,4.141646e-003
3.851210e+003,4.219958e-003
3.853138e+003,4.287998e-003
3.855067e+003,4.219147e-003
3.856995e+003,4.100086e-003
3.858924e+003,4.120831e-003
3.860852e+003,4.090481e-003
3.862781e+003,4.115802e-003
3.864709e+003,4.122442e-003
3.866638e+003,4.124777e-003
3.868566e+003,4.203971e-003
3.870495e+003,4.090738e-003
3.872423e+003,4.049269e-003
3.874352e+003,4.130152e-003
3.876280e+003,4.212571e-003
3.878209e+003,4.246469e-003
3.880137e+003,4.070802e-003
3.882066e+003,4.080379e-003
3.883994e+003,4.108636e-003
3.885923e+003,4.070812e-003
3.887851e+003,4.066667e-003
3.889780e+003,4.066173e-003
3.891708e+003,4.060985e-003
3.893637e+003,4.057915e-003
3.895565e+003,4.102994e-003
3.897494e+003,4.096725e-003
3.899422e+003,4.121788e-003
3.901351e+003,4.129678e-003
3.903279e+003,4.145485e-003
3.905208e+003,4.148934e-003
3.907136e+003,4.150060e-003
3.909065e+003,4.199607e-003
3.910993e+003,4.255190e-003
3.912922e+003,4.187780e-003
3.914850e+003,4.084673e-003
3.916779e+003,4.024969e-003
3.918707e+003,4.034312e-003
3.920636e+003,4.122190e-003
3.922564e+003,4.129245e-003
3.924493e+003,4.095281e-003
3.926421e+003,4.051576e-003
3.928350e+003,4.076419e-003
3.930278e+003,4.127939e-003
3.932207e+003,4.120386e-003
3.934135e+003,4.098821e-003
3.936064e+003,4.084182e-003
3.937992e+003,4.085312e-003
3.939921e+003,4.032697e-003
3.941849e+003,4.045284e-003
3.943778e+003,4.077437e-003
3.945706e+003,4.051766e-003
3.947635e+003,4.057250e-003
3.949563e+003,4.056868e-003
3.951492e+003,4.110667e-003
3.953420e+003,4.152730e-003
3.955349e+003,4.167665e-003
3.957277e+003,4.164289e-003
3.959206e+003,4.121049e-003
3.961134e+003,4.094948e-003
3.963063e+003,4.113757e-003
3.964991e+003,4.101028e-003
3.966920e+003,4.046029e-003
3.968848e+003,4.056784e-003
3.970777e+003,4.021570e-003
3.972705e+003,4.030567e-003
3.974634e+003,4.063299e-003
3.976562e+003,4.037798e-003
3.978491e+003,4.051394e-003
3.980419e+003,4.075459e-003
3.982348e+003,4.033780e-003
3.984276e+003,4.030677e-003
3.986205e+003,4.037111e-003
3.988133e+003,4.057116e-003
3.990062e+003,4.046571e-003
3.991990e+003,4.017129e-003
3.993919e+003,4.001362e-003
3.995847e+003,4.006885e-003
3.997776e+003,4.011119e-003
3.999704e+003,4.011887e-003
4.001633e+003,0.000000e+000
