3.991989e+002,4.751161e-002
4.011274e+002,4.021886e-002
4.030559e+002,4.021886e-002
4.049844e+002,4.113881e-002
4.069129e+002,4.326253e-002
4.088414e+002,4.314545e-002
4.107699e+002,4.371573e-002
4.126984e+002,4.369537e-002
4.146269e+002,4.451096e-002
4.165554e+002,4.464858e-002
4.184839e+002,4.617464e-002
4.204124e+002,4.696562e-002
4.223409e+002,4.613272e-002
4.242694e+002,4.611586e-002
4.261979e+002,4.642182e-002
4.281264e+002,4.716217e-002
4.300549e+002,4.754937e-002
4.319834e+002,4.765114e-002
4.339119e+002,4.921118e-002
4.358404e+002,4.979512e-002
4.377689e+002,4.842827e-002
4.396974e+002,4.879463e-002
4.416259e+002,4.938006e-002
4.435544e+002,4.902137e-002
4.454829e+002,4.907164e-002
4.474114e+002,4.880635e-002
4.493399e+002,4.865506e-002
4.512684e+002,4.842487e-002
4.531969e+002,4.852844e-002
4.551254e+002,4.837895e-002
4.570539e+002,4.859282e-002
4.589824e+002,4.878415e-002
4.609109e+002,4.830275e-002
4.628394e+002,4.745490e-002
4.647679e+002,4.691977e-002
4.666964e+002,4.714625e-002
4.686249e+002,4.734614e-002
4.705533e+002,4.629046e-002
4.724819e+002,4.599621e-002
4.744103e+002,4.592955e-002
4.763389e+002,4.513596e-002
4.782673e+002,4.405127e-002
4.801959e+002,4.374035e-002
4.821243e+002,4.339501e-002
4.840529e+002,4.289267e-002
4.859813e+002,4.227009e-002
4.879099e+002,4.136097e-002
4.898383e+002,4.135640e-002
4.917668e+002,4.103544e-002
4.936953e+002,4.035550e-002
4.956238e+002,3.978528e-002
4.975523e+002,3.921939e-002
4.994808e+002,3.907120e-002
5.014093e+002,3.907632e-002
5.033378e+002,3.959181e-002
5.052663e+002,3.912451e-002
5.071948e+002,3.866119e-002
5.091233e+002,3.869219e-002
5.110518e+002,3.875993e-002
5.129803e+002,3.880311e-002
5.149088e+002,3.929412e-002
5.168373e+002,3.978166e-002
5.187658e+002,4.015164e-002
5.206943e+002,4.014714e-002
5.226228e+002,4.051838e-002
5.245513e+002,4.065507e-002
5.264798e+002,4.081941e-002
5.284083e+002,4.017235e-002
5.303368e+002,4.017768e-002
5.322653e+002,4.002120e-002
5.341938e+002,4.022210e-002
5.361223e+002,4.032404e-002
5.380508e+002,4.010844e-002
5.399792e+002,3.977002e-002
5.419078e+002,3.970482e-002
5.438363e+002,3.946530e-002
5.457648e+002,3.964524e-002
5.476932e+002,3.999593e-002
5.496218e+002,4.003444e-002
5.515503e+002,3.980434e-002
5.534788e+002,4.025504e-002
5.554072e+002,4.062920e-002
5.573358e+002,4.086825e-002
5.592643e+002,4.100115e-002
5.611927e+002,4.093986e-002
5.631212e+002,4.039345e-002
5.650497e+002,4.002360e-002
5.669783e+002,3.959509e-002
5.689067e+002,3.928635e-002
5.708352e+002,3.921470e-002
5.727637e+002,3.925725e-002
5.746923e+002,3.884942e-002
5.766207e+002,3.892672e-002
5.785492e+002,3.862686e-002
5.804777e+002,3.831194e-002
5.824063e+002,3.815196e-002
5.843347e+002,3.825900e-002
5.862632e+002,3.830689e-002
5.881917e+002,3.840127e-002
5.901202e+002,3.850570e-002
5.920487e+002,3.850466e-002
5.939772e+002,3.822501e-002
5.959057e+002,3.793187e-002
5.978342e+002,3.770615e-002
5.997627e+002,3.772426e-002
6.016912e+002,3.766879e-002
6.036197e+002,3.776909e-002
6.055482e+002,3.768370e-002
6.074767e+002,3.748687e-002
6.094052e+002,3.707218e-002
6.113337e+002,3.686516e-002
6.132622e+002,3.680840e-002
6.151907e+002,3.653729e-002
6.171192e+002,3.638644e-002
6.190477e+002,3.586444e-002
6.209762e+002,3.512014e-002
6.229047e+002,3.445259e-002
6.248332e+002,3.420218e-002
6.267617e+002,3.389784e-002
6.286902e+002,3.339480e-002
6.306187e+002,3.307793e-002
6.325472e+002,3.279086e-002
6.344756e+002,3.267901e-002
6.364042e+002,3.248936e-002
6.383326e+002,3.223619e-002
6.402612e+002,3.190542e-002
6.421896e+002,3.169708e-002
6.441182e+002,3.146959e-002
6.460466e+002,3.129230e-002
6.479752e+002,3.106734e-002
6.499036e+002,3.095622e-002
6.518322e+002,3.077255e-002
6.537606e+002,3.075588e-002
6.556891e+002,3.065914e-002
6.576177e+002,3.070580e-002
6.595461e+002,3.081896e-002
6.614746e+002,3.085617e-002
6.634031e+002,3.113766e-002
6.653317e+002,3.152063e-002
6.672601e+002,3.099532e-002
6.691886e+002,3.065674e-002
6.711171e+002,3.021434e-002
6.730457e+002,2.944101e-002
6.749741e+002,2.868425e-002
6.769026e+002,2.797136e-002
6.788311e+002,2.731005e-002
6.807596e+002,2.673679e-002
6.826881e+002,2.609193e-002
6.846166e+002,2.583218e-002
6.865451e+002,2.567270e-002
6.884736e+002,2.550680e-002
6.904021e+002,2.521377e-002
6.923306e+002,2.509816e-002
6.942591e+002,2.513060e-002
6.961876e+002,2.500858e-002
6.981161e+002,2.485605e-002
7.000446e+002,2.473531e-002
7.019731e+002,2.463233e-002
7.039016e+002,2.453892e-002
7.058301e+002,2.431154e-002
7.077585e+002,2.411907e-002
7.096871e+002,2.394361e-002
7.116156e+002,2.383900e-002
7.135441e+002,2.356062e-002
7.154725e+002,2.330386e-002
7.174011e+002,2.312172e-002
7.193296e+002,2.324639e-002
7.212581e+002,2.302099e-002
7.231865e+002,2.268303e-002
7.251151e+002,2.249748e-002
7.270436e+002,2.230565e-002
7.289720e+002,2.208600e-002
7.309005e+002,2.184327e-002
7.328290e+002,2.164217e-002
7.347576e+002,2.151067e-002
7.366860e+002,2.130569e-002
7.386145e+002,2.100870e-002
7.405430e+002,2.070206e-002
7.424716e+002,2.049741e-002
7.444000e+002,2.048003e-002
7.463285e+002,2.048349e-002
7.482570e+002,2.031502e-002
7.501855e+002,2.014671e-002
7.521140e+002,1.990655e-002
7.540425e+002,1.971935e-002
7.559710e+002,1.952726e-002
7.578995e+002,1.942237e-002
7.598280e+002,1.930095e-002
7.617565e+002,1.912519e-002
7.636850e+002,1.911820e-002
7.656135e+002,1.912010e-002
7.675420e+002,1.892188e-002
7.694705e+002,1.897370e-002
7.713990e+002,1.896096e-002
7.733275e+002,1.897934e-002
7.752560e+002,1.900575e-002
7.771844e+002,1.899402e-002
7.791130e+002,1.896525e-002
7.810415e+002,1.903763e-002
7.829700e+002,1.910805e-002
7.848984e+002,1.904352e-002
7.868270e+002,1.893057e-002
7.887555e+002,1.891676e-002
7.906840e+002,1.886755e-002
7.926124e+002,1.878907e-002
7.945410e+002,1.865554e-002
7.964695e+002,1.875662e-002
7.983979e+002,1.881243e-002
8.003264e+002,1.871794e-002
8.022549e+002,1.865962e-002
8.041835e+002,1.863624e-002
8.061119e+002,1.852222e-002
8.080404e+002,1.845705e-002
8.099689e+002,1.842787e-002
8.118975e+002,1.842327e-002
8.138259e+002,1.836002e-002
8.157545e+002,1.827268e-002
8.176830e+002,1.817005e-002
8.196115e+002,1.820077e-002
8.215399e+002,1.813367e-002
8.234684e+002,1.807750e-002
8.253970e+002,1.811184e-002
8.273254e+002,1.815475e-002
8.292539e+002,1.811737e-002
8.311824e+002,1.803785e-002
8.331110e+002,1.805322e-002
8.350394e+002,1.806510e-002
8.369679e+002,1.795994e-002
8.388964e+002,1.785442e-002
8.408250e+002,1.765005e-002
8.427534e+002,1.750338e-002
8.446819e+002,1.735862e-002
8.466104e+002,1.727265e-002
8.485389e+002,1.734717e-002
8.504674e+002,1.730276e-002
8.523959e+002,1.726438e-002
8.543244e+002,1.733751e-002
8.562529e+002,1.737252e-002
8.581814e+002,1.736862e-002
8.601099e+002,1.739286e-002
8.620384e+002,1.744870e-002
8.639669e+002,1.749661e-002
8.658954e+002,1.754170e-002
8.678239e+002,1.771876e-002
8.697524e+002,1.783609e-002
8.716809e+002,1.786267e-002
8.736094e+002,1.806652e-002
8.755378e+002,1.821912e-002
8.774664e+002,1.838072e-002
8.793949e+002,1.858488e-002
8.813234e+002,1.886554e-002
8.832518e+002,1.917107e-002
8.851804e+002,1.959095e-002
8.871089e+002,1.999191e-002
8.890374e+002,2.042779e-002
8.909658e+002,2.094964e-002
8.928943e+002,2.148260e-002
8.948229e+002,2.182385e-002
8.967513e+002,2.201458e-002
8.986798e+002,2.194860e-002
9.006083e+002,2.172846e-002
9.025369e+002,2.139352e-002
9.044653e+002,2.110503e-002
9.063938e+002,2.075573e-002
9.083223e+002,2.051147e-002
9.102509e+002,2.031643e-002
9.121793e+002,2.032098e-002
9.141078e+002,2.028351e-002
9.160364e+002,2.031181e-002
9.179648e+002,2.038372e-002
9.198933e+002,2.052758e-002
9.218218e+002,2.073787e-002
9.237504e+002,2.097704e-002
9.256788e+002,2.109039e-002
9.276073e+002,2.127624e-002
9.295358e+002,2.151975e-002
9.314644e+002,2.185621e-002
9.333928e+002,2.220975e-002
9.353213e+002,2.249437e-002
9.372498e+002,2.278005e-002
9.391783e+002,2.306633e-002
9.411068e+002,2.354561e-002
9.430353e+002,2.412908e-002
9.449637e+002,2.467876e-002
9.468923e+002,2.527401e-002
9.488208e+002,2.581790e-002
9.507493e+002,2.648279e-002
9.526777e+002,2.710690e-002
9.546063e+002,2.779383e-002
9.565348e+002,2.855898e-002
9.584633e+002,2.932591e-002
9.603917e+002,2.996147e-002
9.623203e+002,3.058862e-002
9.642488e+002,3.131021e-002
9.661772e+002,3.205683e-002
9.681057e+002,3.268512e-002
9.700343e+002,3.330272e-002
9.719628e+002,3.396248e-002
9.738912e+002,3.471957e-002
9.758197e+002,3.557826e-002
9.777483e+002,3.661836e-002
9.796768e+002,3.776172e-002
9.816052e+002,3.913856e-002
9.835337e+002,4.047548e-002
9.854623e+002,4.176156e-002
9.873907e+002,4.282643e-002
9.893192e+002,4.367904e-002
9.912477e+002,4.422117e-002
9.931763e+002,4.457849e-002
9.951047e+002,4.473471e-002
9.970332e+002,4.497693e-002
9.989617e+002,4.550994e-002
1.000890e+003,4.630252e-002
1.002819e+003,4.709980e-002
1.004747e+003,4.785866e-002
1.006676e+003,4.862100e-002
1.008604e+003,4.937448e-002
1.010533e+003,5.018456e-002
1.012461e+003,5.110263e-002
1.014390e+003,5.213389e-002
1.016318e+003,5.330529e-002
1.018247e+003,5.443245e-002
1.020175e+003,5.551774e-002
1.022104e+003,5.650094e-002
1.024032e+003,5.756857e-002
1.025961e+003,5.861092e-002
1.027889e+003,5.974846e-002
1.029818e+003,6.084976e-002
1.031746e+003,6.171891e-002
1.033675e+003,6.214302e-002
1.035603e+003,6.218623e-002
1.037532e+003,6.173949e-002
1.039460e+003,6.096462e-002
1.041389e+003,6.011247e-002
1.043317e+003,5.956037e-002
1.045246e+003,5.926176e-002
1.047174e+003,5.910877e-002
1.049103e+003,5.907540e-002
1.051031e+003,5.906572e-002
1.052960e+003,5.888696e-002
1.054888e+003,5.855021e-002
1.056817e+003,5.792455e-002
1.058745e+003,5.708022e-002
1.060674e+003,5.600769e-002
1.062602e+003,5.476978e-002
1.064531e+003,5.337328e-002
1.066459e+003,5.192289e-002
1.068388e+003,5.053647e-002
1.070316e+003,4.939356e-002
1.072245e+003,4.835381e-002
1.074173e+003,4.736670e-002
1.076102e+003,4.628210e-002
1.078030e+003,4.516950e-002
1.079959e+003,4.413665e-002
1.081887e+003,4.328142e-002
1.083816e+003,4.253541e-002
1.085744e+003,4.200567e-002
1.087673e+003,4.161906e-002
1.089601e+003,4.136219e-002
1.091530e+003,4.113371e-002
1.093458e+003,4.096239e-002
1.095387e+003,4.080476e-002
1.097315e+003,4.079068e-002
1.099244e+003,4.084884e-002
1.101172e+003,4.088768e-002
1.103101e+003,4.085438e-002
1.105029e+003,4.070028e-002
1.106958e+003,4.026619e-002
1.108886e+003,3.959073e-002
1.110815e+003,3.868575e-002
1.112743e+003,3.760018e-002
1.114672e+003,3.640072e-002
1.116600e+003,3.524027e-002
1.118529e+003,3.421225e-002
1.120457e+003,3.335632e-002
1.122386e+003,3.248604e-002
1.124314e+003,3.151751e-002
1.126243e+003,3.043840e-002
1.128171e+003,2.931290e-002
1.130100e+003,2.821640e-002
1.132028e+003,2.717938e-002
1.133957e+003,2.613818e-002
1.135885e+003,2.525691e-002
1.137814e+003,2.464989e-002
1.139742e+003,2.430986e-002
1.141671e+003,2.415577e-002
1.143599e+003,2.416705e-002
1.145528e+003,2.436435e-002
1.147456e+003,2.471250e-002
1.149385e+003,2.509561e-002
1.151313e+003,2.555172e-002
1.153242e+003,2.597732e-002
1.155170e+003,2.646676e-002
1.157099e+003,2.687571e-002
1.159027e+003,2.709113e-002
1.160956e+003,2.703044e-002
1.162884e+003,2.670341e-002
1.164813e+003,2.608888e-002
1.166741e+003,2.516361e-002
1.168670e+003,2.395580e-002
1.170598e+003,2.270829e-002
1.172526e+003,2.142589e-002
1.174455e+003,2.019829e-002
1.176384e+003,1.913167e-002
1.178312e+003,1.827589e-002
1.180240e+003,1.750272e-002
1.182169e+003,1.689259e-002
1.184098e+003,1.643574e-002
1.186026e+003,1.607118e-002
1.187954e+003,1.584473e-002
1.189883e+003,1.582564e-002
1.191812e+003,1.585651e-002
1.193740e+003,1.596801e-002
1.195668e+003,1.618424e-002
1.197597e+003,1.642458e-002
1.199526e+003,1.662608e-002
1.201454e+003,1.672461e-002
1.203382e+003,1.672787e-002
1.205311e+003,1.662797e-002
1.207240e+003,1.644628e-002
1.209168e+003,1.635678e-002
1.211096e+003,1.632924e-002
1.213025e+003,1.642108e-002
1.214953e+003,1.653784e-002
1.216882e+003,1.666978e-002
1.218810e+003,1.686915e-002
1.220739e+003,1.713813e-002
1.222667e+003,1.742481e-002
1.224596e+003,1.766951e-002
1.226524e+003,1.793036e-002
1.228453e+003,1.818915e-002
1.230381e+003,1.839066e-002
1.232310e+003,1.852524e-002
1.234238e+003,1.864044e-002
1.236167e+003,1.868123e-002
1.238095e+003,1.866264e-002
1.240024e+003,1.861782e-002
1.241952e+003,1.852738e-002
1.243881e+003,1.839864e-002
1.245809e+003,1.822737e-002
1.247738e+003,1.805539e-002
1.249666e+003,1.781684e-002
1.251595e+003,1.755669e-002
1.253523e+003,1.732422e-002
1.255452e+003,1.708656e-002
1.257380e+003,1.679919e-002
1.259309e+003,1.651687e-002
1.261237e+003,1.621227e-002
1.263166e+003,1.592674e-002
1.265094e+003,1.555598e-002
1.267023e+003,1.519540e-002
1.268951e+003,1.482863e-002
1.270880e+003,1.451258e-002
1.272808e+003,1.422409e-002
1.274737e+003,1.392931e-002
1.276665e+003,1.364913e-002
1.278594e+003,1.350205e-002
1.280522e+003,1.334761e-002
1.282451e+003,1.316252e-002
1.284379e+003,1.302631e-002
1.286308e+003,1.288455e-002
1.288236e+003,1.272781e-002
1.290165e+003,1.262955e-002
1.292093e+003,1.264988e-002
1.294022e+003,1.272978e-002
1.295950e+003,1.282544e-002
1.297879e+003,1.298753e-002
1.299807e+003,1.318897e-002
1.301736e+003,1.343381e-002
1.303664e+003,1.368547e-002
1.305593e+003,1.397492e-002
1.307521e+003,1.428309e-002
1.309450e+003,1.459708e-002
1.311378e+003,1.489914e-002
1.313307e+003,1.516471e-002
1.315235e+003,1.535670e-002
1.317164e+003,1.545312e-002
1.319092e+003,1.541467e-002
1.321021e+003,1.532864e-002
1.322949e+003,1.515700e-002
1.324878e+003,1.497504e-002
1.326806e+003,1.484636e-002
1.328735e+003,1.477212e-002
1.330663e+003,1.473316e-002
1.332592e+003,1.471061e-002
1.334520e+003,1.457485e-002
1.336449e+003,1.442342e-002
1.338377e+003,1.423637e-002
1.340306e+003,1.403474e-002
1.342234e+003,1.383182e-002
1.344163e+003,1.369875e-002
1.346091e+003,1.362826e-002
1.348020e+003,1.365957e-002
1.349948e+003,1.374028e-002
1.351877e+003,1.385802e-002
1.353805e+003,1.398773e-002
1.355734e+003,1.412783e-002
1.357662e+003,1.427148e-002
1.359591e+003,1.445153e-002
1.361519e+003,1.458571e-002
1.363448e+003,1.475452e-002
1.365376e+003,1.492079e-002
1.367305e+003,1.497277e-002
1.369233e+003,1.499018e-002
1.371162e+003,1.493443e-002
1.373090e+003,1.475933e-002
1.375019e+003,1.456407e-002
1.376947e+003,1.430048e-002
1.378876e+003,1.399113e-002
1.380804e+003,1.361400e-002
1.382733e+003,1.319717e-002
1.384661e+003,1.283608e-002
1.386590e+003,1.256969e-002
1.388518e+003,1.235159e-002
1.390447e+003,1.214598e-002
1.392375e+003,1.201209e-002
1.394304e+003,1.194549e-002
1.396232e+003,1.188626e-002
1.398161e+003,1.186296e-002
1.400089e+003,1.188628e-002
1.402018e+003,1.190615e-002
1.403946e+003,1.195441e-002
1.405875e+003,1.206744e-002
1.407803e+003,1.216202e-002
1.409732e+003,1.223497e-002
1.411660e+003,1.236800e-002
1.413589e+003,1.257424e-002
1.415517e+003,1.274511e-002
1.417446e+003,1.289471e-002
1.419374e+003,1.307284e-002
1.421303e+003,1.317064e-002
1.423231e+003,1.316841e-002
1.425160e+003,1.315533e-002
1.427088e+003,1.303400e-002
1.429017e+003,1.283435e-002
1.430945e+003,1.267637e-002
1.432874e+003,1.251260e-002
1.434802e+003,1.223403e-002
1.436731e+003,1.205798e-002
1.438659e+003,1.192022e-002
1.440588e+003,1.176063e-002
1.442516e+003,1.167374e-002
1.444445e+003,1.164224e-002
1.446373e+003,1.166096e-002
1.448302e+003,1.169203e-002
1.450230e+003,1.167039e-002
1.452159e+003,1.162975e-002
1.454087e+003,1.161591e-002
1.456016e+003,1.158779e-002
1.457944e+003,1.148324e-002
1.459873e+003,1.138446e-002
1.461801e+003,1.130036e-002
1.463730e+003,1.113354e-002
1.465658e+003,1.090712e-002
1.467587e+003,1.053844e-002
1.469515e+003,1.009059e-002
1.471444e+003,9.629129e-003
1.473372e+003,9.281885e-003
1.475301e+003,8.944914e-003
1.477229e+003,8.678286e-003
1.479158e+003,8.526505e-003
1.481086e+003,8.429165e-003
1.483015e+003,8.351338e-003
1.484943e+003,8.312897e-003
1.486872e+003,8.346002e-003
1.488800e+003,8.410379e-003
1.490729e+003,8.548263e-003
1.492657e+003,8.714070e-003
1.494586e+003,8.875540e-003
1.496514e+003,9.018103e-003
1.498443e+003,9.128670e-003
1.500371e+003,9.274243e-003
1.502300e+003,9.362906e-003
1.504228e+003,9.393123e-003
1.506157e+003,9.395539e-003
1.508085e+003,9.462379e-003
1.510014e+003,9.474963e-003
1.511942e+003,9.463621e-003
1.513871e+003,9.384576e-003
1.515799e+003,9.223741e-003
1.517728e+003,9.002528e-003
1.519656e+003,8.825446e-003
1.521585e+003,8.618016e-003
1.523513e+003,8.424166e-003
1.525442e+003,8.330484e-003
1.527370e+003,8.265637e-003
1.529299e+003,8.237574e-003
1.531227e+003,8.184425e-003
1.533156e+003,8.136497e-003
1.535084e+003,8.174283e-003
1.537013e+003,8.233694e-003
1.538941e+003,8.295131e-003
1.540870e+003,8.290573e-003
1.542798e+003,8.278011e-003
1.544727e+003,8.306887e-003
1.546655e+003,8.311321e-003
1.548584e+003,8.271505e-003
1.550512e+003,8.323917e-003
1.552441e+003,8.376408e-003
1.554369e+003,8.382632e-003
1.556298e+003,8.404153e-003
1.558226e+003,8.429185e-003
1.560155e+003,8.527357e-003
1.562083e+003,8.531135e-003
1.564012e+003,8.555091e-003
1.565940e+003,8.657444e-003
1.567869e+003,8.736900e-003
1.569797e+003,8.806748e-003
1.571726e+003,8.969821e-003
1.573654e+003,9.122247e-003
1.575583e+003,9.369642e-003
1.577511e+003,9.580977e-003
1.579440e+003,9.747501e-003
1.581368e+003,1.002120e-002
1.583297e+003,1.025960e-002
1.585225e+003,1.049833e-002
1.587154e+003,1.078714e-002
1.589082e+003,1.104253e-002
1.591010e+003,1.122382e-002
1.592939e+003,1.137491e-002
1.594868e+003,1.147693e-002
1.596796e+003,1.152820e-002
1.598724e+003,1.156352e-002
1.600653e+003,1.162195e-002
1.602582e+003,1.167264e-002
1.604510e+003,1.164784e-002
1.606438e+003,1.155529e-002
1.608367e+003,1.142637e-002
1.610296e+003,1.135328e-002
1.612224e+003,1.133812e-002
1.614152e+003,1.130542e-002
1.616081e+003,1.133935e-002
1.618010e+003,1.138095e-002
1.619938e+003,1.134563e-002
1.621866e+003,1.135948e-002
1.623795e+003,1.140907e-002
1.625724e+003,1.145075e-002
1.627652e+003,1.148085e-002
1.629580e+003,1.147666e-002
1.631509e+003,1.139997e-002
1.633438e+003,1.133537e-002
1.635366e+003,1.129212e-002
1.637294e+003,1.122238e-002
1.639223e+003,1.108870e-002
1.641151e+003,1.097834e-002
1.643080e+003,1.091955e-002
1.645008e+003,1.090258e-002
1.646937e+003,1.081458e-002
1.648865e+003,1.080925e-002
1.650794e+003,1.084536e-002
1.652722e+003,1.077316e-002
1.654651e+003,1.065891e-002
1.656579e+003,1.045062e-002
1.658508e+003,1.031397e-002
1.660436e+003,1.011181e-002
1.662365e+003,9.901806e-003
1.664293e+003,9.779017e-003
1.666222e+003,9.555306e-003
1.668150e+003,9.358223e-003
1.670079e+003,9.234296e-003
1.672007e+003,9.093902e-003
1.673936e+003,8.916491e-003
1.675864e+003,8.795897e-003
1.677793e+003,8.673282e-003
1.679721e+003,8.608781e-003
1.681650e+003,8.477358e-003
1.683578e+003,8.383769e-003
1.685507e+003,8.401106e-003
1.687435e+003,8.264191e-003
1.689364e+003,8.194502e-003
1.691292e+003,8.143074e-003
1.693221e+003,8.136646e-003
1.695149e+003,8.150097e-003
1.697078e+003,8.132395e-003
1.699006e+003,8.000813e-003
1.700935e+003,7.990316e-003
1.702863e+003,7.951486e-003
1.704792e+003,7.951541e-003
1.706720e+003,8.026771e-003
1.708649e+003,8.060449e-003
1.710577e+003,8.064137e-003
1.712506e+003,8.207527e-003
1.714434e+003,8.266586e-003
1.716363e+003,8.311078e-003
1.718291e+003,8.403111e-003
1.720220e+003,8.487097e-003
1.722148e+003,8.562049e-003
1.724077e+003,8.656232e-003
1.726005e+003,8.660566e-003
1.727934e+003,8.676080e-003
1.729862e+003,8.717566e-003
1.731791e+003,8.710400e-003
1.733719e+003,8.697210e-003
1.735648e+003,8.650622e-003
1.737576e+003,8.449273e-003
1.739505e+003,8.245660e-003
1.741433e+003,7.982347e-003
1.743362e+003,7.731007e-003
1.745290e+003,7.486158e-003
1.747219e+003,7.277291e-003
1.749147e+003,7.149544e-003
1.751076e+003,7.023672e-003
1.753004e+003,6.781906e-003
1.754933e+003,6.519470e-003
1.756861e+003,6.396103e-003
1.758790e+003,6.293661e-003
1.760718e+003,6.147837e-003
1.762647e+003,6.012844e-003
1.764575e+003,5.917917e-003
1.766504e+003,5.870878e-003
1.768432e+003,5.839653e-003
1.770361e+003,5.744623e-003
1.772289e+003,5.714327e-003
1.774218e+003,5.694894e-003
1.776146e+003,5.656453e-003
1.778075e+003,5.673176e-003
1.780003e+003,5.647211e-003
1.781932e+003,5.684038e-003
1.783860e+003,5.677819e-003
1.785789e+003,5.680077e-003
1.787717e+003,5.662260e-003
1.789646e+003,5.700232e-003
1.791574e+003,5.649376e-003
1.793503e+003,5.689805e-003
1.795431e+003,5.746532e-003
1.797360e+003,5.771170e-003
1.799288e+003,5.750455e-003
1.801217e+003,5.788407e-003
1.803145e+003,5.799166e-003
1.805074e+003,5.844632e-003
1.807002e+003,5.851812e-003
1.808931e+003,5.800713e-003
1.810859e+003,5.807824e-003
1.812788e+003,5.855619e-003
1.814716e+003,5.859316e-003
1.816645e+003,5.777507e-003
1.818573e+003,5.771269e-003
1.820502e+003,5.787440e-003
1.822430e+003,5.762327e-003
1.824359e+003,5.752492e-003
1.826287e+003,5.763564e-003
1.828216e+003,5.755860e-003
1.830144e+003,5.771427e-003
1.832073e+003,5.859718e-003
1.834001e+003,5.823917e-003
1.835930e+003,5.806779e-003
1.837858e+003,5.859825e-003
1.839787e+003,5.924307e-003
1.841715e+003,5.883708e-003
1.843644e+003,5.789160e-003
1.845572e+003,5.766103e-003
1.847501e+003,5.795309e-003
1.849429e+003,5.852679e-003
1.851358e+003,5.879804e-003
1.853286e+003,5.826347e-003
1.855215e+003,5.900150e-003
1.857143e+003,5.900253e-003
1.859072e+003,5.827521e-003
1.861000e+003,5.690462e-003
1.862929e+003,5.702851e-003
1.864857e+003,5.718230e-003
1.866786e+003,5.769840e-003
1.868714e+003,5.786802e-003
1.870643e+003,5.897959e-003
1.872571e+003,5.986671e-003
1.874500e+003,5.969130e-003
1.876428e+003,5.960220e-003
1.878357e+003,6.100381e-003
1.880285e+003,6.198943e-003
1.882214e+003,6.122580e-003
1.884142e+003,6.019020e-003
1.886071e+003,6.115721e-003
1.887999e+003,6.131992e-003
1.889928e+003,6.140505e-003
1.891856e+003,6.008425e-003
1.893785e+003,5.951667e-003
1.895713e+003,6.085164e-003
1.897642e+003,6.277739e-003
1.899570e+003,6.194657e-003
1.901499e+003,6.110432e-003
1.903427e+003,6.116782e-003
1.905356e+003,5.984223e-003
1.907284e+003,6.241784e-003
1.909213e+003,6.203890e-003
1.911141e+003,6.094761e-003
1.913070e+003,6.185421e-003
1.914998e+003,6.027984e-003
1.916927e+003,5.971488e-003
1.918855e+003,6.025738e-003
1.920784e+003,6.116727e-003
1.922712e+003,6.181997e-003
1.924641e+003,6.225165e-003
1.926569e+003,6.375747e-003
1.928498e+003,6.266948e-003
1.930426e+003,6.094079e-003
1.932355e+003,6.164619e-003
1.934283e+003,6.308447e-003
1.936212e+003,6.197474e-003
1.938140e+003,6.403698e-003
1.940069e+003,6.639456e-003
1.941997e+003,6.299528e-003
1.943926e+003,6.421746e-003
1.945854e+003,6.641300e-003
1.947783e+003,6.552059e-003
1.949711e+003,6.282745e-003
1.951640e+003,5.864756e-003
1.953568e+003,5.884864e-003
1.955497e+003,6.334181e-003
1.957425e+003,5.926411e-003
1.959354e+003,6.145007e-003
1.961282e+003,6.595576e-003
1.963211e+003,6.260288e-003
1.965139e+003,5.618282e-003
1.967068e+003,5.677436e-003
1.968996e+003,5.472503e-003
1.970925e+003,5.501026e-003
1.972853e+003,5.842089e-003
1.974782e+003,5.833694e-003
1.976710e+003,5.890367e-003
1.978639e+003,5.642178e-003
1.980567e+003,6.161317e-003
1.982496e+003,6.114266e-003
1.984424e+003,5.833948e-003
1.986353e+003,6.097213e-003
1.988281e+003,5.736611e-003
1.990210e+003,4.956474e-003
1.992138e+003,5.097806e-003
1.994067e+003,5.822801e-003
1.995995e+003,5.849719e-003
1.997924e+003,5.459333e-003
1.999852e+003,5.508260e-003
2.001781e+003,5.864521e-003
2.003709e+003,6.110296e-003
2.005638e+003,5.793286e-003
2.007566e+003,5.652643e-003
2.009495e+003,6.132669e-003
2.011423e+003,5.903711e-003
2.013352e+003,4.902421e-003
2.015280e+003,5.635578e-003
2.017208e+003,5.736660e-003
2.019137e+003,4.425018e-003
2.021066e+003,4.395883e-003
2.022994e+003,4.267902e-003
2.024922e+003,4.559388e-003
2.026851e+003,4.915298e-003
2.028780e+003,4.507432e-003
2.030708e+003,3.948759e-003
2.032636e+003,3.575833e-003
2.034565e+003,4.110192e-003
2.036494e+003,4.332499e-003
2.038422e+003,4.156044e-003
2.040350e+003,3.988567e-003
2.042279e+003,4.117809e-003
2.044208e+003,3.932981e-003
2.046136e+003,3.404664e-003
2.048064e+003,3.584476e-003
2.049993e+003,3.696353e-003
2.051921e+003,4.304950e-003
2.053850e+003,4.681683e-003
2.055778e+003,4.151450e-003
2.057707e+003,3.806854e-003
2.059635e+003,3.958304e-003
2.061564e+003,4.371864e-003
2.063492e+003,4.294843e-003
2.065421e+003,4.265353e-003
2.067349e+003,4.359694e-003
2.069278e+003,4.361566e-003
2.071206e+003,4.134436e-003
2.073135e+003,4.419097e-003
2.075063e+003,4.499452e-003
2.076992e+003,4.438752e-003
2.078920e+003,4.476348e-003
2.080849e+003,4.656795e-003
2.082777e+003,4.877308e-003
2.084706e+003,4.847887e-003
2.086634e+003,4.864549e-003
2.088563e+003,4.800403e-003
2.090491e+003,4.958199e-003
2.092420e+003,4.785156e-003
2.094348e+003,4.996930e-003
2.096277e+003,5.148984e-003
2.098205e+003,5.337625e-003
2.100134e+003,5.433403e-003
2.102062e+003,5.331151e-003
2.103991e+003,5.383952e-003
2.105919e+003,5.587229e-003
2.107848e+003,5.184055e-003
2.109776e+003,5.165747e-003
2.111705e+003,5.486283e-003
2.113633e+003,5.799299e-003
2.115562e+003,5.721637e-003
2.117490e+003,5.513296e-003
2.119419e+003,5.495981e-003
2.121347e+003,5.556419e-003
2.123276e+003,5.569676e-003
2.125204e+003,5.863978e-003
2.127133e+003,6.299820e-003
2.129061e+003,6.323555e-003
2.130990e+003,6.005189e-003
2.132918e+003,6.199683e-003
2.134847e+003,6.397593e-003
2.136775e+003,5.933671e-003
2.138704e+003,6.000184e-003
2.140632e+003,7.231774e-003
2.142561e+003,7.123136e-003
2.144489e+003,6.618638e-003
2.146418e+003,6.305737e-003
2.148346e+003,6.294710e-003
2.150275e+003,6.066203e-003
2.152203e+003,6.194877e-003
2.154132e+003,6.012379e-003
2.156060e+003,6.522968e-003
2.157989e+003,5.735334e-003
2.159917e+003,4.694128e-003
2.161846e+003,5.643081e-003
2.163774e+003,6.578200e-003
2.165703e+003,5.644189e-003
2.167631e+003,5.225335e-003
2.169560e+003,5.101239e-003
2.171488e+003,5.551419e-003
2.173417e+003,5.023300e-003
2.175345e+003,4.686894e-003
2.177274e+003,4.714761e-003
2.179202e+003,4.285826e-003
2.181131e+003,4.640542e-003
2.183059e+003,4.398644e-003
2.184988e+003,3.481160e-003
2.186916e+003,4.402125e-003
2.188845e+003,4.942458e-003
2.190773e+003,4.454477e-003
2.192702e+003,4.077739e-003
2.194630e+003,3.808176e-003
2.196559e+003,3.876637e-003
2.198487e+003,4.048006e-003
2.200416e+003,4.240621e-003
2.202344e+003,4.425120e-003
2.204273e+003,4.948691e-003
2.206201e+003,4.992463e-003
2.208130e+003,4.866725e-003
2.210058e+003,4.923423e-003
2.211987e+003,4.683779e-003
2.213915e+003,4.217702e-003
2.215844e+003,4.562818e-003
2.217772e+003,4.700493e-003
2.219701e+003,4.483201e-003
2.221629e+003,4.824340e-003
2.223558e+003,5.267390e-003
2.225486e+003,5.542257e-003
2.227415e+003,5.504571e-003
2.229343e+003,5.276043e-003
2.231272e+003,5.245389e-003
2.233200e+003,5.367983e-003
2.235129e+003,4.963222e-003
2.237057e+003,4.976379e-003
2.238986e+003,5.336673e-003
2.240914e+003,5.377139e-003
2.242843e+003,5.158269e-003
2.244771e+003,4.780662e-003
2.246700e+003,4.526529e-003
2.248628e+003,4.860120e-003
2.250557e+003,4.998907e-003
2.252485e+003,4.774203e-003
2.254414e+003,4.685163e-003
2.256342e+003,4.555006e-003
2.258271e+003,4.716320e-003
2.260199e+003,4.617129e-003
2.262128e+003,4.383438e-003
2.264056e+003,4.479971e-003
2.265985e+003,4.319431e-003
2.267913e+003,4.250165e-003
2.269842e+003,4.327992e-003
2.271770e+003,4.434631e-003
2.273699e+003,4.428964e-003
2.275627e+003,4.389159e-003
2.277556e+003,4.453202e-003
2.279484e+003,4.497601e-003
2.281413e+003,4.500889e-003
2.283341e+003,4.653626e-003
2.285270e+003,4.823010e-003
2.287198e+003,4.992117e-003
2.289127e+003,5.049646e-003
2.291055e+003,5.110218e-003
2.292984e+003,5.292904e-003
2.294912e+003,5.453329e-003
2.296841e+003,5.620601e-003
2.298769e+003,5.629107e-003
2.300698e+003,5.656378e-003
2.302626e+003,5.893774e-003
2.304555e+003,5.962079e-003
2.306483e+003,6.011885e-003
2.308412e+003,6.018716e-003
2.310340e+003,6.205691e-003
2.312269e+003,6.351469e-003
2.314197e+003,6.206060e-003
2.316125e+003,6.290918e-003
2.318054e+003,6.650957e-003
2.319983e+003,7.040923e-003
2.321911e+003,7.020725e-003
2.323840e+003,7.256600e-003
2.325768e+003,7.546581e-003
2.327697e+003,7.230999e-003
2.329625e+003,7.091015e-003
2.331553e+003,7.281657e-003
2.333482e+003,7.205777e-003
2.335411e+003,7.237369e-003
2.337339e+003,7.192307e-003
2.339268e+003,6.983917e-003
2.341196e+003,6.527058e-003
2.343125e+003,6.625862e-003
2.345053e+003,6.208407e-003
2.346981e+003,5.811356e-003
2.348910e+003,5.577390e-003
2.350839e+003,5.368514e-003
2.352767e+003,5.282509e-003
2.354696e+003,4.816387e-003
2.356624e+003,4.977367e-003
2.358552e+003,4.987307e-003
2.360481e+003,4.687372e-003
2.362409e+003,4.427003e-003
2.364338e+003,4.754275e-003
2.366267e+003,4.544718e-003
2.368195e+003,4.385598e-003
2.370124e+003,4.622223e-003
2.372052e+003,5.057938e-003
2.373980e+003,5.075963e-003
2.375909e+003,5.191963e-003
2.377838e+003,5.285234e-003
2.379766e+003,5.244550e-003
2.381695e+003,5.312969e-003
2.383623e+003,5.266154e-003
2.385552e+003,5.202710e-003
2.387480e+003,5.244822e-003
2.389408e+003,5.248389e-003
2.391337e+003,5.214418e-003
2.393266e+003,5.224944e-003
2.395194e+003,5.321221e-003
2.397123e+003,5.214425e-003
2.399051e+003,5.196802e-003
2.400979e+003,5.306028e-003
2.402908e+003,5.426492e-003
2.404836e+003,5.550345e-003
2.406765e+003,5.504638e-003
2.408694e+003,5.452427e-003
2.410622e+003,5.524202e-003
2.412551e+003,5.574274e-003
2.414479e+003,5.634388e-003
2.416407e+003,5.674871e-003
2.418336e+003,5.730735e-003
2.420264e+003,5.719656e-003
2.422193e+003,5.532156e-003
2.424122e+003,5.477022e-003
2.426050e+003,5.583436e-003
2.427979e+003,5.701493e-003
2.429907e+003,5.652850e-003
2.431835e+003,5.565078e-003
2.433764e+003,5.470143e-003
2.435692e+003,5.330480e-003
2.437621e+003,5.226308e-003
2.439550e+003,5.152402e-003
2.441478e+003,5.130474e-003
2.443406e+003,5.206925e-003
2.445335e+003,5.242069e-003
2.447263e+003,5.126284e-003
2.449192e+003,5.074252e-003
2.451121e+003,5.154649e-003
2.453049e+003,5.212894e-003
2.454978e+003,5.205416e-003
2.456906e+003,5.135906e-003
2.458834e+003,5.043948e-003
2.460763e+003,5.123601e-003
2.462691e+003,5.190661e-003
2.464620e+003,5.169972e-003
2.466549e+003,5.262561e-003
2.468477e+003,5.245021e-003
2.470406e+003,5.205650e-003
2.472334e+003,5.175270e-003
2.474262e+003,5.183083e-003
2.476191e+003,5.135034e-003
2.478119e+003,5.174063e-003
2.480048e+003,5.264204e-003
2.481977e+003,5.219332e-003
2.483905e+003,5.264238e-003
2.485833e+003,5.286675e-003
2.487762e+003,5.205013e-003
2.489690e+003,5.277485e-003
2.491619e+003,5.256557e-003
2.493547e+003,5.250353e-003
2.495476e+003,5.260683e-003
2.497405e+003,5.308007e-003
2.499333e+003,5.365736e-003
2.501261e+003,5.340879e-003
2.503190e+003,5.303278e-003
2.505118e+003,5.227850e-003
2.507047e+003,5.139360e-003
2.508975e+003,5.198877e-003
2.510904e+003,5.301097e-003
2.512833e+003,5.296502e-003
2.514761e+003,5.229494e-003
2.516689e+003,5.118103e-003
2.518618e+003,5.082566e-003
2.520546e+003,5.185531e-003
2.522475e+003,5.209540e-003
2.524403e+003,5.202297e-003
2.526332e+003,5.197871e-003
2.528260e+003,5.101541e-003
2.530189e+003,5.256725e-003
2.532117e+003,5.216482e-003
2.534046e+003,5.102077e-003
2.535974e+003,5.058832e-003
2.537903e+003,5.121422e-003
2.539831e+003,5.153643e-003
2.541760e+003,5.123098e-003
2.543688e+003,5.046362e-003
2.545617e+003,5.093294e-003
2.547545e+003,5.103586e-003
2.549474e+003,5.044116e-003
2.551402e+003,5.048105e-003
2.553331e+003,5.104022e-003
2.555259e+003,5.202666e-003
2.557188e+003,5.211150e-003
2.559116e+003,5.092891e-003
2.561045e+003,5.036674e-003
2.562973e+003,4.968800e-003
2.564902e+003,5.023567e-003
2.566830e+003,5.069794e-003
2.568759e+003,5.098122e-003
2.570687e+003,5.086153e-003
2.572616e+003,5.026048e-003
2.574544e+003,4.985558e-003
2.576473e+003,5.016864e-003
2.578401e+003,4.992731e-003
2.580330e+003,4.960321e-003
2.582258e+003,4.831175e-003
2.584187e+003,4.876643e-003
2.586115e+003,4.868869e-003
2.588044e+003,4.960656e-003
2.589972e+003,5.011199e-003
2.591901e+003,5.117869e-003
2.593829e+003,5.144221e-003
2.595758e+003,5.123400e-003
2.597686e+003,4.993100e-003
2.599615e+003,4.935521e-003
2.601543e+003,4.917357e-003
2.603472e+003,4.897586e-003
2.605400e+003,4.928919e-003
2.607329e+003,4.947586e-003
2.609257e+003,4.901607e-003
2.611186e+003,4.794924e-003
2.613114e+003,4.753317e-003
2.615043e+003,4.752412e-003
2.616971e+003,4.729935e-003
2.618900e+003,4.787956e-003
2.620828e+003,4.834257e-003
2.622757e+003,4.764003e-003
2.624685e+003,4.681300e-003
2.626614e+003,4.716771e-003
2.628542e+003,4.776800e-003
2.630471e+003,4.774991e-003
2.632399e+003,4.764405e-003
2.634328e+003,4.782863e-003
2.636256e+003,4.827121e-003
2.638185e+003,4.923088e-003
2.640113e+003,5.003758e-003
2.642042e+003,5.024842e-003
2.643970e+003,5.102815e-003
2.645899e+003,5.157465e-003
2.647827e+003,5.215677e-003
2.649756e+003,5.234591e-003
2.651684e+003,5.321390e-003
2.653613e+003,5.397706e-003
2.655541e+003,5.491417e-003
2.657470e+003,5.524907e-003
2.659398e+003,5.544874e-003
2.661327e+003,5.622169e-003
2.663255e+003,5.681149e-003
2.665184e+003,5.698740e-003
2.667112e+003,5.758602e-003
2.669041e+003,5.777540e-003
2.670969e+003,5.798829e-003
2.672898e+003,5.815182e-003
2.674826e+003,5.816021e-003
2.676755e+003,5.856824e-003
2.678683e+003,5.907170e-003
2.680612e+003,5.921579e-003
2.682540e+003,5.911401e-003
2.684469e+003,5.898940e-003
2.686397e+003,5.931689e-003
2.688326e+003,5.941699e-003
2.690254e+003,5.919731e-003
2.692183e+003,5.941296e-003
2.694111e+003,6.009255e-003
2.696040e+003,6.037745e-003
2.697968e+003,5.963029e-003
2.699897e+003,5.956983e-003
2.701825e+003,5.996757e-003
2.703754e+003,5.988157e-003
2.705682e+003,5.986712e-003
2.707611e+003,6.011841e-003
2.709539e+003,5.995917e-003
2.711468e+003,6.020240e-003
2.713396e+003,5.983655e-003
2.715325e+003,5.948417e-003
2.717253e+003,5.949895e-003
2.719182e+003,5.938441e-003
2.721110e+003,6.005055e-003
2.723039e+003,6.053805e-003
2.724967e+003,6.050781e-003
2.726896e+003,6.019300e-003
2.728824e+003,6.019098e-003
2.730753e+003,6.004249e-003
2.732681e+003,6.025414e-003
2.734610e+003,6.079677e-003
2.736538e+003,6.065531e-003
2.738467e+003,6.014462e-003
2.740395e+003,5.992558e-003
2.742324e+003,6.029379e-003
2.744252e+003,6.030757e-003
2.746181e+003,6.044061e-003
2.748109e+003,6.059416e-003
2.750038e+003,6.062272e-003
2.751966e+003,6.076182e-003
2.753895e+003,6.058945e-003
2.755823e+003,6.011371e-003
2.757752e+003,6.028371e-003
2.759680e+003,6.087708e-003
2.761609e+003,6.148229e-003
2.763537e+003,6.165503e-003
2.765466e+003,6.146515e-003
2.767394e+003,6.125377e-003
2.769323e+003,6.155891e-003
2.771251e+003,6.187181e-003
2.773180e+003,6.200288e-003
2.775108e+003,6.210539e-003
2.777037e+003,6.197263e-003
2.778965e+003,6.194742e-003
2.780894e+003,6.211010e-003
2.782822e+003,6.227245e-003
2.784750e+003,6.184357e-003
2.786679e+003,6.163083e-003
2.788608e+003,6.203447e-003
2.790536e+003,6.238135e-003
2.792465e+003,6.289735e-003
2.794393e+003,6.256119e-003
2.796322e+003,6.247749e-003
2.798250e+003,6.317336e-003
2.800178e+003,6.355328e-003
2.802107e+003,6.344602e-003
2.804036e+003,6.345779e-003
2.805964e+003,6.379839e-003
2.807893e+003,6.443965e-003
2.809821e+003,6.467069e-003
2.811750e+003,6.496666e-003
2.813678e+003,6.516039e-003
2.815606e+003,6.509548e-003
2.817535e+003,6.550920e-003
2.819464e+003,6.571035e-003
2.821392e+003,6.565317e-003
2.823321e+003,6.587822e-003
2.825249e+003,6.678627e-003
2.827177e+003,6.749663e-003
2.829106e+003,6.754374e-003
2.831034e+003,6.794895e-003
2.832963e+003,6.832793e-003
2.834892e+003,6.883522e-003
2.836820e+003,6.966981e-003
2.838749e+003,6.977082e-003
2.840677e+003,7.040758e-003
2.842605e+003,7.110674e-003
2.844534e+003,7.154798e-003
2.846462e+003,7.223722e-003
2.848391e+003,7.265600e-003
2.850320e+003,7.321467e-003
2.852248e+003,7.426818e-003
2.854177e+003,7.469828e-003
2.856105e+003,7.484256e-003
2.858033e+003,7.432514e-003
2.859962e+003,7.410067e-003
2.861890e+003,7.523833e-003
2.863819e+003,7.697389e-003
2.865748e+003,7.743631e-003
2.867676e+003,7.693544e-003
2.869604e+003,7.690812e-003
2.871533e+003,7.721673e-003
2.873461e+003,7.737424e-003
2.875390e+003,7.750276e-003
2.877319e+003,7.780870e-003
2.879247e+003,7.789472e-003
2.881176e+003,7.817708e-003
2.883104e+003,7.837445e-003
2.885032e+003,7.869901e-003
2.886961e+003,7.908232e-003
2.888889e+003,7.944472e-003
2.890818e+003,7.977579e-003
2.892747e+003,7.915992e-003
2.894675e+003,7.852593e-003
2.896604e+003,7.898885e-003
2.898532e+003,7.922336e-003
2.900460e+003,7.899728e-003
2.902389e+003,7.847667e-003
2.904317e+003,7.794026e-003
2.906246e+003,7.774022e-003
2.908175e+003,7.771391e-003
2.910103e+003,7.744271e-003
2.912031e+003,7.714286e-003
2.913960e+003,7.640530e-003
2.915888e+003,7.580104e-003
2.917817e+003,7.485638e-003
2.919745e+003,7.454424e-003
2.921674e+003,7.433155e-003
2.923603e+003,7.451727e-003
2.925531e+003,7.402281e-003
2.927459e+003,7.337137e-003
2.929388e+003,7.236861e-003
2.931316e+003,7.168104e-003
2.933245e+003,7.141493e-003
2.935173e+003,7.104352e-003
2.937102e+003,7.071189e-003
2.939031e+003,7.012125e-003
2.940959e+003,6.992644e-003
2.942887e+003,6.994833e-003
2.944816e+003,6.891480e-003
2.946744e+003,6.753135e-003
2.948673e+003,6.630675e-003
2.950601e+003,6.566211e-003
2.952530e+003,6.542956e-003
2.954458e+003,6.456264e-003
2.956387e+003,6.411997e-003
2.958315e+003,6.357634e-003
2.960244e+003,6.321469e-003
2.962172e+003,6.307492e-003
2.964101e+003,6.225424e-003
2.966029e+003,6.183219e-003
2.967958e+003,6.124061e-003
2.969886e+003,6.049508e-003
2.971815e+003,6.039768e-003
2.973743e+003,6.061087e-003
2.975672e+003,6.041578e-003
2.977600e+003,5.928001e-003
2.979529e+003,5.851272e-003
2.981457e+003,5.825006e-003
2.983386e+003,5.863336e-003
2.985314e+003,5.862327e-003
2.987243e+003,5.831650e-003
2.989171e+003,5.795441e-003
2.991100e+003,5.793062e-003
2.993028e+003,5.776610e-003
2.994957e+003,5.736084e-003
2.996885e+003,5.728586e-003
2.998814e+003,5.765986e-003
3.000742e+003,5.753486e-003
3.002671e+003,5.739709e-003
3.004599e+003,5.698565e-003
3.006528e+003,5.709755e-003
3.008456e+003,5.773542e-003
3.010385e+003,5.776330e-003
3.012313e+003,5.793296e-003
3.014242e+003,5.807362e-003
3.016170e+003,5.795448e-003
3.018099e+003,5.782521e-003
3.020027e+003,5.762608e-003
3.021956e+003,5.818191e-003
3.023884e+003,5.815750e-003
3.025813e+003,5.836013e-003
3.027741e+003,5.911124e-003
3.029670e+003,5.932556e-003
3.031598e+003,5.904431e-003
3.033527e+003,5.947850e-003
3.035455e+003,5.929788e-003
3.037384e+003,5.961346e-003
3.039312e+003,5.976808e-003
3.041241e+003,5.956650e-003
3.043169e+003,5.972993e-003
3.045098e+003,6.036323e-003
3.047026e+003,5.995134e-003
3.048955e+003,6.051440e-003
3.050883e+003,6.115342e-003
3.052812e+003,6.073677e-003
3.054740e+003,6.038634e-003
3.056669e+003,6.149354e-003
3.058597e+003,6.203037e-003
3.060526e+003,6.201702e-003
3.062454e+003,6.224101e-003
3.064383e+003,6.241155e-003
3.066311e+003,6.279782e-003
3.068240e+003,6.359611e-003
3.070168e+003,6.392666e-003
3.072097e+003,6.420416e-003
3.074025e+003,6.426370e-003
3.075954e+003,6.414630e-003
3.077882e+003,6.404785e-003
3.079811e+003,6.370320e-003
3.081739e+003,6.447515e-003
3.083668e+003,6.515604e-003
3.085596e+003,6.539588e-003
3.087525e+003,6.578989e-003
3.089453e+003,6.632231e-003
3.091382e+003,6.608409e-003
3.093310e+003,6.643141e-003
3.095239e+003,6.739988e-003
3.097167e+003,6.755624e-003
3.099096e+003,6.772481e-003
3.101024e+003,6.770568e-003
3.102953e+003,6.809229e-003
3.104881e+003,6.843731e-003
3.106810e+003,6.831049e-003
3.108738e+003,6.877657e-003
3.110667e+003,6.952776e-003
3.112595e+003,6.933171e-003
3.114524e+003,6.966294e-003
3.116452e+003,7.016402e-003
3.118381e+003,7.036113e-003
3.120309e+003,6.947999e-003
3.122238e+003,6.934376e-003
3.124166e+003,7.050182e-003
3.126095e+003,7.098882e-003
3.128023e+003,7.144382e-003
3.129952e+003,7.216786e-003
3.131880e+003,7.290139e-003
3.133809e+003,7.292014e-003
3.135737e+003,7.253446e-003
3.137666e+003,7.297886e-003
3.139594e+003,7.370190e-003
3.141523e+003,7.437855e-003
3.143451e+003,7.392845e-003
3.145380e+003,7.375822e-003
3.147308e+003,7.460998e-003
3.149237e+003,7.521950e-003
3.151165e+003,7.517290e-003
3.153094e+003,7.632956e-003
3.155022e+003,7.672453e-003
3.156951e+003,7.688780e-003
3.158879e+003,7.755039e-003
3.160808e+003,7.779459e-003
3.162736e+003,7.794356e-003
3.164665e+003,7.917384e-003
3.166593e+003,8.008606e-003
3.168522e+003,8.001138e-003
3.170450e+003,8.023333e-003
3.172379e+003,8.154292e-003
3.174307e+003,8.238395e-003
3.176236e+003,8.249800e-003
3.178164e+003,8.259071e-003
3.180093e+003,8.247268e-003
3.182021e+003,8.295350e-003
3.183950e+003,8.376135e-003
3.185878e+003,8.438584e-003
3.187807e+003,8.512644e-003
3.189735e+003,8.519350e-003
3.191664e+003,8.553520e-003
3.193592e+003,8.645489e-003
3.195521e+003,8.692370e-003
3.197449e+003,8.760094e-003
3.199378e+003,8.771112e-003
3.201306e+003,8.797423e-003
3.203235e+003,8.908598e-003
3.205163e+003,8.937912e-003
3.207092e+003,8.996506e-003
3.209020e+003,8.990196e-003
3.210948e+003,9.034331e-003
3.212877e+003,9.026068e-003
3.214806e+003,9.093224e-003
3.216734e+003,9.199731e-003
3.218663e+003,9.341875e-003
3.220591e+003,9.376376e-003
3.222520e+003,9.442340e-003
3.224448e+003,9.485373e-003
3.226376e+003,9.509122e-003
3.228305e+003,9.562244e-003
3.230234e+003,9.643830e-003
3.232162e+003,9.656236e-003
3.234091e+003,9.723753e-003
3.236019e+003,9.875312e-003
3.237948e+003,9.921638e-003
3.239876e+003,9.939764e-003
3.241804e+003,1.003487e-002
3.243733e+003,1.012828e-002
3.245662e+003,1.021069e-002
3.247590e+003,1.023439e-002
3.249519e+003,1.020720e-002
3.251447e+003,1.021801e-002
3.253375e+003,1.026174e-002
3.255304e+003,1.037355e-002
3.257232e+003,1.051236e-002
3.259161e+003,1.054322e-002
3.261090e+003,1.060246e-002
3.263018e+003,1.068387e-002
3.264947e+003,1.080755e-002
3.266875e+003,1.091201e-002
3.268803e+003,1.088941e-002
3.270732e+003,1.091759e-002
3.272660e+003,1.103221e-002
3.274589e+003,1.111195e-002
3.276518e+003,1.117998e-002
3.278446e+003,1.117371e-002
3.280375e+003,1.110127e-002
3.282303e+003,1.105387e-002
3.284231e+003,1.116731e-002
3.286160e+003,1.127997e-002
3.288088e+003,1.127103e-002
3.290017e+003,1.130931e-002
3.291946e+003,1.132523e-002
3.293874e+003,1.123423e-002
3.295802e+003,1.120885e-002
3.297731e+003,1.121410e-002
3.299659e+003,1.131049e-002
3.301588e+003,1.139072e-002
3.303516e+003,1.138867e-002
3.305445e+003,1.133423e-002
3.307374e+003,1.136420e-002
3.309302e+003,1.133402e-002
3.311230e+003,1.129927e-002
3.313159e+003,1.134142e-002
3.315087e+003,1.140329e-002
3.317016e+003,1.149597e-002
3.318944e+003,1.150657e-002
3.320873e+003,1.152107e-002
3.322802e+003,1.155502e-002
3.324730e+003,1.161553e-002
3.326658e+003,1.159470e-002
3.328587e+003,1.166555e-002
3.330515e+003,1.175568e-002
3.332444e+003,1.173823e-002
3.334372e+003,1.167928e-002
3.336301e+003,1.166938e-002
3.338229e+003,1.162427e-002
3.340158e+003,1.162068e-002
3.342086e+003,1.157072e-002
3.344015e+003,1.142623e-002
3.345943e+003,1.143051e-002
3.347872e+003,1.148604e-002
3.349800e+003,1.141996e-002
3.351729e+003,1.143322e-002
3.353657e+003,1.143183e-002
3.355586e+003,1.134245e-002
3.357514e+003,1.130639e-002
3.359443e+003,1.120958e-002
3.361371e+003,1.120531e-002
3.363300e+003,1.111138e-002
3.365229e+003,1.099941e-002
3.367157e+003,1.100505e-002
3.369085e+003,1.100962e-002
3.371014e+003,1.093586e-002
3.372942e+003,1.089753e-002
3.374871e+003,1.093477e-002
3.376799e+003,1.090180e-002
3.378728e+003,1.073851e-002
3.380656e+003,1.071937e-002
3.382585e+003,1.077569e-002
3.384513e+003,1.066814e-002
3.386442e+003,1.057415e-002
3.388370e+003,1.054263e-002
3.390299e+003,1.050600e-002
3.392227e+003,1.042929e-002
3.394156e+003,1.037171e-002
3.396084e+003,1.040958e-002
3.398013e+003,1.035355e-002
3.399941e+003,1.027715e-002
3.401870e+003,1.026104e-002
3.403798e+003,1.018697e-002
3.405727e+003,1.011582e-002
3.407655e+003,1.004884e-002
3.409584e+003,9.942286e-003
3.411512e+003,9.952839e-003
3.413441e+003,9.969304e-003
3.415369e+003,9.867247e-003
3.417298e+003,9.692244e-003
3.419226e+003,9.568812e-003
3.421155e+003,9.556167e-003
3.423083e+003,9.548070e-003
3.425012e+003,9.417633e-003
3.426940e+003,9.252233e-003
3.428869e+003,9.150093e-003
3.430797e+003,9.074870e-003
3.432726e+003,8.930249e-003
3.434654e+003,8.761447e-003
3.436583e+003,8.745871e-003
3.438511e+003,8.753027e-003
3.440440e+003,8.590506e-003
3.442368e+003,8.442599e-003
3.444297e+003,8.345932e-003
3.446225e+003,8.280146e-003
3.448154e+003,8.139779e-003
3.450082e+003,8.041571e-003
3.452011e+003,7.945350e-003
3.453939e+003,7.798818e-003
3.455868e+003,7.639292e-003
3.457796e+003,7.552244e-003
3.459725e+003,7.477515e-003
3.461653e+003,7.448723e-003
3.463582e+003,7.321940e-003
3.465510e+003,7.142561e-003
3.467439e+003,7.032625e-003
3.469367e+003,7.001518e-003
3.471296e+003,6.917888e-003
3.473224e+003,6.826442e-003
3.475153e+003,6.704384e-003
3.477081e+003,6.617532e-003
3.479010e+003,6.435911e-003
3.480938e+003,6.372754e-003
3.482867e+003,6.327661e-003
3.484795e+003,6.279360e-003
3.486724e+003,6.194075e-003
3.488652e+003,6.108455e-003
3.490581e+003,6.038935e-003
3.492509e+003,5.995506e-003
3.494438e+003,5.885807e-003
3.496366e+003,5.731194e-003
3.498295e+003,5.614661e-003
3.500223e+003,5.523336e-003
3.502152e+003,5.484073e-003
3.504080e+003,5.460251e-003
3.506009e+003,5.387707e-003
3.507937e+003,5.259684e-003
3.509866e+003,5.076529e-003
3.511794e+003,5.041015e-003
3.513723e+003,5.024848e-003
3.515651e+003,5.041765e-003
3.517580e+003,4.972643e-003
3.519508e+003,4.880026e-003
3.521437e+003,4.845167e-003
3.523365e+003,4.702992e-003
3.525294e+003,4.685252e-003
3.527222e+003,4.672372e-003
3.529151e+003,4.581315e-003
3.531079e+003,4.593980e-003
3.533008e+003,4.561590e-003
3.534936e+003,4.375369e-003
3.536865e+003,4.238553e-003
3.538793e+003,4.116913e-003
3.540722e+003,4.118328e-003
3.542650e+003,4.081060e-003
3.544579e+003,3.964156e-003
3.546507e+003,3.876489e-003
3.548436e+003,3.804069e-003
3.550364e+003,3.714819e-003
3.552293e+003,3.705226e-003
3.554221e+003,3.692178e-003
3.556150e+003,3.540152e-003
3.558078e+003,3.530416e-003
3.560007e+003,3.541682e-003
3.561935e+003,3.301323e-003
3.563864e+003,3.125858e-003
3.565792e+003,3.115521e-003
3.567721e+003,3.059705e-003
3.569649e+003,3.061064e-003
3.571578e+003,3.015616e-003
3.573506e+003,2.881266e-003
3.575435e+003,2.807248e-003
3.577363e+003,2.742273e-003
3.579292e+003,2.572155e-003
3.581220e+003,2.435822e-003
3.583149e+003,2.310222e-003
3.585077e+003,2.028165e-003
3.587006e+003,1.777068e-003
3.588934e+003,1.657511e-003
3.590863e+003,1.454884e-003
3.592791e+003,1.262471e-003
3.594720e+003,1.179895e-003
3.596648e+003,1.073058e-003
3.598577e+003,8.641243e-004
3.600505e+003,7.836145e-004
3.602434e+003,8.708919e-004
3.604362e+003,9.758404e-004
3.606291e+003,1.147217e-003
3.608219e+003,1.380404e-003
3.610148e+003,1.712541e-003
3.612076e+003,1.882557e-003
3.614005e+003,1.599021e-003
3.615933e+003,1.152115e-003
3.617862e+003,7.375543e-004
3.619790e+003,4.086724e-004
3.621719e+003,1.310942e-004
3.623647e+003,-6.310927e-005
3.625576e+003,-2.108940e-004
3.627504e+003,-2.046178e-004
3.629433e+003,-1.608588e-004
3.631361e+003,1.760749e-005
3.633290e+003,1.941804e-004
3.635218e+003,4.307019e-004
3.637146e+003,6.828097e-004
3.639075e+003,1.029983e-003
3.641004e+003,1.206456e-003
3.642932e+003,1.359903e-003
3.644861e+003,1.578356e-003
3.646789e+003,1.524782e-003
3.648718e+003,1.368416e-003
3.650646e+003,1.323036e-003
3.652574e+003,1.389761e-003
3.654503e+003,1.462432e-003
3.656432e+003,1.444817e-003
3.658360e+003,1.477096e-003
3.660289e+003,1.469572e-003
3.662217e+003,1.437681e-003
3.664146e+003,1.342585e-003
3.666074e+003,1.358491e-003
3.668002e+003,1.383084e-003
3.669931e+003,1.428232e-003
3.671860e+003,1.242402e-003
3.673788e+003,1.100518e-003
3.675717e+003,1.007292e-003
3.677645e+003,9.334405e-004
3.679573e+003,8.222709e-004
3.681502e+003,7.291671e-004
3.683430e+003,6.647330e-004
3.685359e+003,6.232478e-004
3.687288e+003,4.508832e-004
3.689216e+003,1.127205e-004
3.691145e+003,-1.869156e-004
3.693073e+003,-3.370070e-004
3.695001e+003,-5.210962e-004
3.696930e+003,-8.165195e-004
3.698858e+003,-9.392246e-004
3.700787e+003,-8.715506e-004
3.702716e+003,-9.031852e-004
3.704644e+003,-9.742487e-004
3.706573e+003,-9.069322e-004
3.708501e+003,-6.227525e-004
3.710429e+003,-2.991181e-004
3.712358e+003,2.064721e-004
3.714286e+003,6.083701e-004
3.716215e+003,3.359814e-004
3.718144e+003,-3.543414e-004
3.720072e+003,-9.051168e-004
3.722000e+003,-1.440304e-003
3.723929e+003,-1.727536e-003
3.725857e+003,-1.949399e-003
3.727786e+003,-2.138742e-003
3.729714e+003,-2.159726e-003
3.731643e+003,-1.997818e-003
3.733572e+003,-1.677671e-003
3.735500e+003,-1.315024e-003
3.737428e+003,-8.423342e-004
3.739357e+003,-5.000074e-004
3.741285e+003,2.215385e-005
3.743214e+003,6.034998e-004
3.745142e+003,7.000784e-004
3.747071e+003,7.934658e-004
3.749000e+003,9.633686e-004
3.750928e+003,1.082139e-003
3.752856e+003,1.125437e-003
3.754785e+003,1.002114e-003
3.756713e+003,9.871663e-004
3.758642e+003,9.576362e-004
3.760570e+003,9.480042e-004
3.762499e+003,9.095595e-004
3.764427e+003,9.478125e-004
3.766356e+003,9.559455e-004
3.768284e+003,9.647262e-004
3.770213e+003,9.707967e-004
3.772141e+003,1.012585e-003
3.774070e+003,9.680702e-004
3.775998e+003,1.042320e-003
3.777927e+003,1.057294e-003
3.779855e+003,1.096715e-003
3.781784e+003,1.080263e-003
3.783712e+003,1.040788e-003
3.785641e+003,1.103458e-003
3.787569e+003,1.190603e-003
3.789498e+003,1.114169e-003
3.791426e+003,1.123615e-003
3.793355e+003,1.154265e-003
3.795283e+003,1.160423e-003
3.797212e+003,1.129769e-003
3.799140e+003,1.162863e-003
3.801069e+003,1.144849e-003
3.802997e+003,1.107775e-003
3.804926e+003,1.176718e-003
3.806854e+003,1.155033e-003
3.808783e+003,1.106387e-003
3.810711e+003,1.163719e-003
3.812640e+003,1.199804e-003
3.814568e+003,1.284325e-003
3.816497e+003,1.232564e-003
3.818425e+003,1.130191e-003
3.820354e+003,1.065681e-003
3.822282e+003,1.046562e-003
3.824211e+003,1.088357e-003
3.826139e+003,1.072680e-003
3.828068e+003,1.119324e-003
3.829996e+003,1.037082e-003
3.831925e+003,1.053270e-003
3.833853e+003,1.100376e-003
3.835782e+003,1.152333e-003
3.837710e+003,1.149213e-003
3.839639e+003,9.965716e-004
3.841567e+003,9.804402e-004
3.843496e+003,1.015534e-003
3.845424e+003,1.088499e-003
3.847353e+003,1.138277e-003
3.849281e+003,1.150483e-003
3.851210e+003,1.188850e-003
3.853138e+003,1.156642e-003
3.855067e+003,1.127840e-003
3.856995e+003,1.052554e-003
3.858924e+003,1.047373e-003
3.860852e+003,1.060857e-003
3.862781e+003,1.097907e-003
3.864709e+003,1.107622e-003
3.866638e+003,1.076082e-003
3.868566e+003,1.123178e-003
3.870495e+003,1.060351e-003
3.872423e+003,1.039883e-003
3.874352e+003,1.102835e-003
3.876280e+003,1.137315e-003
3.878209e+003,1.106622e-003
3.880137e+003,9.969351e-004
3.882066e+003,1.074860e-003
3.883994e+003,1.110378e-003
3.885923e+003,1.030230e-003
3.887851e+003,1.059671e-003
3.889780e+003,1.105468e-003
3.891708e+003,1.061128e-003
3.893637e+003,1.074547e-003
3.895565e+003,1.092756e-003
3.897494e+003,1.050844e-003
3.899422e+003,1.023742e-003
3.901351e+003,1.068954e-003
3.903279e+003,1.096479e-003
3.905208e+003,1.101616e-003
3.907136e+003,1.147509e-003
3.909065e+003,1.168713e-003
3.910993e+003,1.147187e-003
3.912922e+003,1.095983e-003
3.914850e+003,1.045977e-003
3.916779e+003,1.013875e-003
3.918707e+003,9.882068e-004
3.920636e+003,1.072494e-003
3.922564e+003,1.100020e-003
3.924493e+003,1.002253e-003
3.926421e+003,9.779665e-004
3.928350e+003,1.026619e-003
3.930278e+003,9.827169e-004
3.932207e+003,9.520723e-004
3.934135e+003,9.594812e-004
3.936064e+003,9.898058e-004
3.937992e+003,1.027540e-003
3.939921e+003,9.850806e-004
3.941849e+003,1.040407e-003
3.943778e+003,1.085046e-003
3.945706e+003,1.050851e-003
3.947635e+003,9.884612e-004
3.949563e+003,1.022446e-003
3.951492e+003,1.095348e-003
3.953420e+003,1.041728e-003
3.955349e+003,9.758216e-004
3.957277e+003,9.672747e-004
3.959206e+003,1.024574e-003
3.961134e+003,1.062387e-003
3.963063e+003,9.967480e-004
3.964991e+003,9.880585e-004
3.966920e+003,9.605289e-004
3.968848e+003,1.000621e-003
3.970777e+003,9.944290e-004
3.972705e+003,8.817714e-004
3.974634e+003,8.630070e-004
3.976562e+003,8.687272e-004
3.978491e+003,8.967424e-004
3.980419e+003,8.765517e-004
3.982348e+003,9.245143e-004
3.984276e+003,9.913854e-004
3.986205e+003,9.676077e-004
3.988133e+003,9.945397e-004
3.990062e+003,9.943803e-004
3.991990e+003,9.439751e-004
3.993919e+003,1.006434e-003
3.995847e+003,9.599664e-004
3.997776e+003,8.823007e-004
3.999704e+003,8.831242e-004
4.001633e+003,0.000000e+000
