3.991989e+002,2.531812e-002
4.011274e+002,2.631099e-002
4.030559e+002,2.631099e-002
4.049844e+002,2.536856e-002
4.069129e+002,2.538567e-002
4.088414e+002,2.588401e-002
4.107699e+002,2.638196e-002
4.126984e+002,2.613008e-002
4.146269e+002,2.519139e-002
4.165554e+002,2.504604e-002
4.184839e+002,2.520411e-002
4.204124e+002,2.669806e-002
4.223409e+002,2.747866e-002
4.242694e+002,2.714686e-002
4.261979e+002,2.707629e-002
4.281264e+002,2.791749e-002
4.300549e+002,2.778542e-002
4.319834e+002,2.730755e-002
4.339119e+002,2.744917e-002
4.358404e+002,2.730095e-002
4.377689e+002,2.766586e-002
4.396974e+002,2.763120e-002
4.416259e+002,2.779161e-002
4.435544e+002,2.762449e-002
4.454829e+002,2.680841e-002
4.474114e+002,2.742406e-002
4.493399e+002,2.692945e-002
4.512684e+002,2.667811e-002
4.531969e+002,2.659809e-002
4.551254e+002,2.688837e-002
4.570539e+002,2.730392e-002
4.589824e+002,2.763881e-002
4.609109e+002,2.755732e-002
4.628394e+002,2.726333e-002
4.647679e+002,2.639497e-002
4.666964e+002,2.620791e-002
4.686249e+002,2.613600e-002
4.705533e+002,2.620765e-002
4.724819e+002,2.616786e-002
4.744103e+002,2.582839e-002
4.763389e+002,2.590694e-002
4.782673e+002,2.592686e-002
4.801959e+002,2.591446e-002
4.821243e+002,2.564269e-002
4.840529e+002,2.517734e-002
4.859813e+002,2.494926e-002
4.879099e+002,2.489972e-002
4.898383e+002,2.466976e-002
4.917668e+002,2.449760e-002
4.936953e+002,2.450826e-002
4.956238e+002,2.403826e-002
4.975523e+002,2.388924e-002
4.994808e+002,2.334403e-002
5.014093e+002,2.351714e-002
5.033378e+002,2.370192e-002
5.052663e+002,2.348929e-002
5.071948e+002,2.379799e-002
5.091233e+002,2.413797e-002
5.110518e+002,2.411856e-002
5.129803e+002,2.426116e-002
5.149088e+002,2.426592e-002
5.168373e+002,2.448680e-002
5.187658e+002,2.418407e-002
5.206943e+002,2.428601e-002
5.226228e+002,2.387533e-002
5.245513e+002,2.405110e-002
5.264798e+002,2.406538e-002
5.284083e+002,2.459892e-002
5.303368e+002,2.448494e-002
5.322653e+002,2.419087e-002
5.341938e+002,2.390480e-002
5.361223e+002,2.398945e-002
5.380508e+002,2.397462e-002
5.399792e+002,2.408751e-002
5.419078e+002,2.357291e-002
5.438363e+002,2.325691e-002
5.457648e+002,2.367263e-002
5.476932e+002,2.397320e-002
5.496218e+002,2.401572e-002
5.515503e+002,2.391562e-002
5.534788e+002,2.433375e-002
5.554072e+002,2.466280e-002
5.573358e+002,2.494908e-002
5.592643e+002,2.510963e-002
5.611927e+002,2.491494e-002
5.631212e+002,2.458450e-002
5.650497e+002,2.443988e-002
5.669783e+002,2.428606e-002
5.689067e+002,2.405490e-002
5.708352e+002,2.392193e-002
5.727637e+002,2.390679e-002
5.746923e+002,2.364012e-002
5.766207e+002,2.338405e-002
5.785492e+002,2.330503e-002
5.804777e+002,2.338845e-002
5.824063e+002,2.328831e-002
5.843347e+002,2.341094e-002
5.862632e+002,2.366858e-002
5.881917e+002,2.345629e-002
5.901202e+002,2.353212e-002
5.920487e+002,2.327886e-002
5.939772e+002,2.312488e-002
5.959057e+002,2.327214e-002
5.978342e+002,2.322870e-002
5.997627e+002,2.300696e-002
6.016912e+002,2.286766e-002
6.036197e+002,2.273625e-002
6.055482e+002,2.261979e-002
6.074767e+002,2.243367e-002
6.094052e+002,2.265515e-002
6.113337e+002,2.244427e-002
6.132622e+002,2.225786e-002
6.151907e+002,2.221411e-002
6.171192e+002,2.222244e-002
6.190477e+002,2.201275e-002
6.209762e+002,2.185553e-002
6.229047e+002,2.152399e-002
6.248332e+002,2.105861e-002
6.267617e+002,2.069731e-002
6.286902e+002,2.048974e-002
6.306187e+002,2.044763e-002
6.325472e+002,2.034822e-002
6.344756e+002,2.000042e-002
6.364042e+002,1.982013e-002
6.383326e+002,1.966956e-002
6.402612e+002,1.961528e-002
6.421896e+002,1.965457e-002
6.441182e+002,1.966773e-002
6.460466e+002,1.959491e-002
6.479752e+002,1.942885e-002
6.499036e+002,1.927894e-002
6.518322e+002,1.922150e-002
6.537606e+002,1.899040e-002
6.556891e+002,1.898734e-002
6.576177e+002,1.906323e-002
6.595461e+002,1.910763e-002
6.614746e+002,1.928586e-002
6.634031e+002,1.940840e-002
6.653317e+002,1.929740e-002
6.672601e+002,1.919076e-002
6.691886e+002,1.906335e-002
6.711171e+002,1.892893e-002
6.730457e+002,1.869768e-002
6.749741e+002,1.836642e-002
6.769026e+002,1.770587e-002
6.788311e+002,1.745263e-002
6.807596e+002,1.712892e-002
6.826881e+002,1.679275e-002
6.846166e+002,1.643406e-002
6.865451e+002,1.632540e-002
6.884736e+002,1.623215e-002
6.904021e+002,1.611588e-002
6.923306e+002,1.590706e-002
6.942591e+002,1.582331e-002
6.961876e+002,1.578010e-002
6.981161e+002,1.574235e-002
7.000446e+002,1.572282e-002
7.019731e+002,1.570593e-002
7.039016e+002,1.552093e-002
7.058301e+002,1.540050e-002
7.077585e+002,1.528712e-002
7.096871e+002,1.526134e-002
7.116156e+002,1.515399e-002
7.135441e+002,1.505906e-002
7.154725e+002,1.490144e-002
7.174011e+002,1.496505e-002
7.193296e+002,1.481774e-002
7.212581e+002,1.451107e-002
7.231865e+002,1.438210e-002
7.251151e+002,1.448262e-002
7.270436e+002,1.431610e-002
7.289720e+002,1.410435e-002
7.309005e+002,1.398404e-002
7.328290e+002,1.404066e-002
7.347576e+002,1.390234e-002
7.366860e+002,1.372625e-002
7.386145e+002,1.363358e-002
7.405430e+002,1.358575e-002
7.424716e+002,1.342876e-002
7.444000e+002,1.317491e-002
7.463285e+002,1.299155e-002
7.482570e+002,1.307219e-002
7.501855e+002,1.298908e-002
7.521140e+002,1.285329e-002
7.540425e+002,1.281006e-002
7.559710e+002,1.276897e-002
7.578995e+002,1.276326e-002
7.598280e+002,1.279641e-002
7.617565e+002,1.269230e-002
7.636850e+002,1.254951e-002
7.656135e+002,1.241731e-002
7.675420e+002,1.238720e-002
7.694705e+002,1.233433e-002
7.713990e+002,1.244288e-002
7.733275e+002,1.242010e-002
7.752560e+002,1.248523e-002
7.771844e+002,1.242085e-002
7.791130e+002,1.239658e-002
7.810415e+002,1.234462e-002
7.829700e+002,1.233368e-002
7.848984e+002,1.240312e-002
7.868270e+002,1.236354e-002
7.887555e+002,1.232141e-002
7.906840e+002,1.236238e-002
7.926124e+002,1.232485e-002
7.945410e+002,1.232962e-002
7.964695e+002,1.227798e-002
7.983979e+002,1.226019e-002
8.003264e+002,1.230488e-002
8.022549e+002,1.228483e-002
8.041835e+002,1.211812e-002
8.061119e+002,1.208821e-002
8.080404e+002,1.216365e-002
8.099689e+002,1.215230e-002
8.118975e+002,1.216007e-002
8.138259e+002,1.225416e-002
8.157545e+002,1.214007e-002
8.176830e+002,1.204631e-002
8.196115e+002,1.198867e-002
8.215399e+002,1.199869e-002
8.234684e+002,1.199569e-002
8.253970e+002,1.200669e-002
8.273254e+002,1.210818e-002
8.292539e+002,1.216906e-002
8.311824e+002,1.224175e-002
8.331110e+002,1.228657e-002
8.350394e+002,1.228855e-002
8.369679e+002,1.223098e-002
8.388964e+002,1.214259e-002
8.408250e+002,1.203524e-002
8.427534e+002,1.191296e-002
8.446819e+002,1.189423e-002
8.466104e+002,1.180495e-002
8.485389e+002,1.181254e-002
8.504674e+002,1.183859e-002
8.523959e+002,1.179548e-002
8.543244e+002,1.168325e-002
8.562529e+002,1.163434e-002
8.581814e+002,1.167164e-002
8.601099e+002,1.175739e-002
8.620384e+002,1.181554e-002
8.639669e+002,1.187169e-002
8.658954e+002,1.193377e-002
8.678239e+002,1.201051e-002
8.697524e+002,1.203762e-002
8.716809e+002,1.211983e-002
8.736094e+002,1.214150e-002
8.755378e+002,1.216109e-002
8.774664e+002,1.229745e-002
8.793949e+002,1.242570e-002
8.813234e+002,1.250961e-002
8.832518e+002,1.273840e-002
8.851804e+002,1.296549e-002
8.871089e+002,1.324432e-002
8.890374e+002,1.349656e-002
8.909658e+002,1.381069e-002
8.928943e+002,1.401271e-002
8.948229e+002,1.427054e-002
8.967513e+002,1.440883e-002
8.986798e+002,1.443188e-002
9.006083e+002,1.429338e-002
9.025369e+002,1.409601e-002
9.044653e+002,1.393603e-002
9.063938e+002,1.379314e-002
9.083223e+002,1.362103e-002
9.102509e+002,1.356397e-002
9.121793e+002,1.356189e-002
9.141078e+002,1.357754e-002
9.160364e+002,1.352808e-002
9.179648e+002,1.358835e-002
9.198933e+002,1.365539e-002
9.218218e+002,1.376701e-002
9.237504e+002,1.380864e-002
9.256788e+002,1.393117e-002
9.276073e+002,1.410793e-002
9.295358e+002,1.429526e-002
9.314644e+002,1.443503e-002
9.333928e+002,1.463392e-002
9.353213e+002,1.478607e-002
9.372498e+002,1.484085e-002
9.391783e+002,1.503519e-002
9.411068e+002,1.541240e-002
9.430353e+002,1.574292e-002
9.449637e+002,1.601718e-002
9.468923e+002,1.638430e-002
9.488208e+002,1.675265e-002
9.507493e+002,1.708885e-002
9.526777e+002,1.749303e-002
9.546063e+002,1.790144e-002
9.565348e+002,1.828253e-002
9.584633e+002,1.870954e-002
9.603917e+002,1.914836e-002
9.623203e+002,1.955497e-002
9.642488e+002,2.000780e-002
9.661772e+002,2.045391e-002
9.681057e+002,2.093160e-002
9.700343e+002,2.133829e-002
9.719628e+002,2.165981e-002
9.738912e+002,2.209304e-002
9.758197e+002,2.266246e-002
9.777483e+002,2.330326e-002
9.796768e+002,2.396575e-002
9.816052e+002,2.467679e-002
9.835337e+002,2.543650e-002
9.854623e+002,2.613107e-002
9.873907e+002,2.678738e-002
9.893192e+002,2.721974e-002
9.912477e+002,2.749096e-002
9.931763e+002,2.768003e-002
9.951047e+002,2.774816e-002
9.970332e+002,2.783855e-002
9.989617e+002,2.812405e-002
1.000890e+003,2.852738e-002
1.002819e+003,2.899463e-002
1.004747e+003,2.935196e-002
1.006676e+003,2.967632e-002
1.008604e+003,3.015148e-002
1.010533e+003,3.055271e-002
1.012461e+003,3.089554e-002
1.014390e+003,3.136128e-002
1.016318e+003,3.195878e-002
1.018247e+003,3.257303e-002
1.020175e+003,3.306010e-002
1.022104e+003,3.353063e-002
1.024032e+003,3.406783e-002
1.025961e+003,3.466275e-002
1.027889e+003,3.521605e-002
1.029818e+003,3.568645e-002
1.031746e+003,3.615135e-002
1.033675e+003,3.637416e-002
1.035603e+003,3.635366e-002
1.037532e+003,3.609665e-002
1.039460e+003,3.567591e-002
1.041389e+003,3.519913e-002
1.043317e+003,3.483982e-002
1.045246e+003,3.463645e-002
1.047174e+003,3.455912e-002
1.049103e+003,3.449548e-002
1.051031e+003,3.449638e-002
1.052960e+003,3.449677e-002
1.054888e+003,3.432322e-002
1.056817e+003,3.393661e-002
1.058745e+003,3.347802e-002
1.060674e+003,3.296743e-002
1.062602e+003,3.229437e-002
1.064531e+003,3.147900e-002
1.066459e+003,3.068576e-002
1.068388e+003,2.993275e-002
1.070316e+003,2.924105e-002
1.072245e+003,2.864753e-002
1.074173e+003,2.808110e-002
1.076102e+003,2.751263e-002
1.078030e+003,2.693740e-002
1.079959e+003,2.625833e-002
1.081887e+003,2.571119e-002
1.083816e+003,2.528939e-002
1.085744e+003,2.497409e-002
1.087673e+003,2.479682e-002
1.089601e+003,2.465466e-002
1.091530e+003,2.452310e-002
1.093458e+003,2.442362e-002
1.095387e+003,2.439803e-002
1.097315e+003,2.439617e-002
1.099244e+003,2.440459e-002
1.101172e+003,2.443196e-002
1.103101e+003,2.446267e-002
1.105029e+003,2.443112e-002
1.106958e+003,2.416082e-002
1.108886e+003,2.382823e-002
1.110815e+003,2.341896e-002
1.112743e+003,2.284154e-002
1.114672e+003,2.218635e-002
1.116600e+003,2.156216e-002
1.118529e+003,2.103954e-002
1.120457e+003,2.059397e-002
1.122386e+003,2.017021e-002
1.124314e+003,1.972969e-002
1.126243e+003,1.916470e-002
1.128171e+003,1.851932e-002
1.130100e+003,1.788632e-002
1.132028e+003,1.722315e-002
1.133957e+003,1.661565e-002
1.135885e+003,1.606583e-002
1.137814e+003,1.564931e-002
1.139742e+003,1.540553e-002
1.141671e+003,1.537491e-002
1.143599e+003,1.546486e-002
1.145528e+003,1.562984e-002
1.147456e+003,1.580460e-002
1.149385e+003,1.605747e-002
1.151313e+003,1.629918e-002
1.153242e+003,1.659844e-002
1.155170e+003,1.688822e-002
1.157099e+003,1.713035e-002
1.159027e+003,1.724804e-002
1.160956e+003,1.728158e-002
1.162884e+003,1.716182e-002
1.164813e+003,1.677145e-002
1.166741e+003,1.624741e-002
1.168670e+003,1.562960e-002
1.170598e+003,1.493011e-002
1.172526e+003,1.415362e-002
1.174455e+003,1.342086e-002
1.176384e+003,1.279262e-002
1.178312e+003,1.222877e-002
1.180240e+003,1.177676e-002
1.182169e+003,1.144488e-002
1.184098e+003,1.121001e-002
1.186026e+003,1.099764e-002
1.187954e+003,1.087037e-002
1.189883e+003,1.086018e-002
1.191812e+003,1.087912e-002
1.193740e+003,1.093858e-002
1.195668e+003,1.111187e-002
1.197597e+003,1.130093e-002
1.199526e+003,1.144367e-002
1.201454e+003,1.149767e-002
1.203382e+003,1.152139e-002
1.205311e+003,1.151121e-002
1.207240e+003,1.144243e-002
1.209168e+003,1.143090e-002
1.211096e+003,1.143116e-002
1.213025e+003,1.146520e-002
1.214953e+003,1.158868e-002
1.216882e+003,1.176364e-002
1.218810e+003,1.193147e-002
1.220739e+003,1.206318e-002
1.222667e+003,1.228304e-002
1.224596e+003,1.247102e-002
1.226524e+003,1.262257e-002
1.228453e+003,1.280393e-002
1.230381e+003,1.297206e-002
1.232310e+003,1.307509e-002
1.234238e+003,1.314503e-002
1.236167e+003,1.312882e-002
1.238095e+003,1.306511e-002
1.240024e+003,1.303054e-002
1.241952e+003,1.301705e-002
1.243881e+003,1.298014e-002
1.245809e+003,1.287162e-002
1.247738e+003,1.269645e-002
1.249666e+003,1.254672e-002
1.251595e+003,1.239812e-002
1.253523e+003,1.224591e-002
1.255452e+003,1.211266e-002
1.257380e+003,1.197233e-002
1.259309e+003,1.177723e-002
1.261237e+003,1.158601e-002
1.263166e+003,1.141061e-002
1.265094e+003,1.123823e-002
1.267023e+003,1.105092e-002
1.268951e+003,1.082072e-002
1.270880e+003,1.060775e-002
1.272808e+003,1.045063e-002
1.274737e+003,1.030979e-002
1.276665e+003,1.017907e-002
1.278594e+003,1.006467e-002
1.280522e+003,9.958884e-003
1.282451e+003,9.868995e-003
1.284379e+003,9.749309e-003
1.286308e+003,9.656447e-003
1.288236e+003,9.603948e-003
1.290165e+003,9.532400e-003
1.292093e+003,9.502316e-003
1.294022e+003,9.551425e-003
1.295950e+003,9.627823e-003
1.297879e+003,9.738758e-003
1.299807e+003,9.875459e-003
1.301736e+003,1.001982e-002
1.303664e+003,1.017799e-002
1.305593e+003,1.036071e-002
1.307521e+003,1.053916e-002
1.309450e+003,1.073523e-002
1.311378e+003,1.094863e-002
1.313307e+003,1.111892e-002
1.315235e+003,1.123361e-002
1.317164e+003,1.131529e-002
1.319092e+003,1.134648e-002
1.321021e+003,1.132845e-002
1.322949e+003,1.124603e-002
1.324878e+003,1.110693e-002
1.326806e+003,1.101154e-002
1.328735e+003,1.094405e-002
1.330663e+003,1.088304e-002
1.332592e+003,1.082887e-002
1.334520e+003,1.077208e-002
1.336449e+003,1.068237e-002
1.338377e+003,1.057702e-002
1.340306e+003,1.042364e-002
1.342234e+003,1.030282e-002
1.344163e+003,1.022961e-002
1.346091e+003,1.017978e-002
1.348020e+003,1.018511e-002
1.349948e+003,1.021946e-002
1.351877e+003,1.024943e-002
1.353805e+003,1.035376e-002
1.355734e+003,1.043832e-002
1.357662e+003,1.053964e-002
1.359591e+003,1.066942e-002
1.361519e+003,1.078941e-002
1.363448e+003,1.088734e-002
1.365376e+003,1.098360e-002
1.367305e+003,1.105197e-002
1.369233e+003,1.105496e-002
1.371162e+003,1.101527e-002
1.373090e+003,1.093894e-002
1.375019e+003,1.080039e-002
1.376947e+003,1.063276e-002
1.378876e+003,1.044247e-002
1.380804e+003,1.020878e-002
1.382733e+003,9.980721e-003
1.384661e+003,9.761104e-003
1.386590e+003,9.562888e-003
1.388518e+003,9.433583e-003
1.390447e+003,9.328736e-003
1.392375e+003,9.239427e-003
1.394304e+003,9.168891e-003
1.396232e+003,9.161773e-003
1.398161e+003,9.150809e-003
1.400089e+003,9.115457e-003
1.402018e+003,9.119382e-003
1.403946e+003,9.178080e-003
1.405875e+003,9.244869e-003
1.407803e+003,9.323387e-003
1.409732e+003,9.371047e-003
1.411660e+003,9.473613e-003
1.413589e+003,9.579179e-003
1.415517e+003,9.701193e-003
1.417446e+003,9.836475e-003
1.419374e+003,9.944738e-003
1.421303e+003,1.004849e-002
1.423231e+003,1.006092e-002
1.425160e+003,1.003093e-002
1.427088e+003,9.945457e-003
1.429017e+003,9.839607e-003
1.430945e+003,9.775990e-003
1.432874e+003,9.640844e-003
1.434802e+003,9.506241e-003
1.436731e+003,9.363911e-003
1.438659e+003,9.268712e-003
1.440588e+003,9.224989e-003
1.442516e+003,9.196814e-003
1.444445e+003,9.212033e-003
1.446373e+003,9.213014e-003
1.448302e+003,9.198485e-003
1.450230e+003,9.231913e-003
1.452159e+003,9.232985e-003
1.454087e+003,9.230652e-003
1.456016e+003,9.192731e-003
1.457944e+003,9.153659e-003
1.459873e+003,9.089380e-003
1.461801e+003,9.039705e-003
1.463730e+003,8.935068e-003
1.465658e+003,8.777169e-003
1.467587e+003,8.560032e-003
1.469515e+003,8.275338e-003
1.471444e+003,8.000012e-003
1.473372e+003,7.715940e-003
1.475301e+003,7.513412e-003
1.477229e+003,7.351685e-003
1.479158e+003,7.233331e-003
1.481086e+003,7.168113e-003
1.483015e+003,7.124098e-003
1.484943e+003,7.104169e-003
1.486872e+003,7.131272e-003
1.488800e+003,7.200575e-003
1.490729e+003,7.313513e-003
1.492657e+003,7.426855e-003
1.494586e+003,7.495168e-003
1.496514e+003,7.600165e-003
1.498443e+003,7.736383e-003
1.500371e+003,7.877806e-003
1.502300e+003,7.944426e-003
1.504228e+003,7.972595e-003
1.506157e+003,7.985535e-003
1.508085e+003,7.972021e-003
1.510014e+003,7.946051e-003
1.511942e+003,7.938080e-003
1.513871e+003,7.907567e-003
1.515799e+003,7.819032e-003
1.517728e+003,7.644708e-003
1.519656e+003,7.468445e-003
1.521585e+003,7.295091e-003
1.523513e+003,7.174303e-003
1.525442e+003,7.123708e-003
1.527370e+003,7.058496e-003
1.529299e+003,7.055904e-003
1.531227e+003,7.027691e-003
1.533156e+003,7.001390e-003
1.535084e+003,7.007216e-003
1.537013e+003,7.010533e-003
1.538941e+003,7.030391e-003
1.540870e+003,7.053845e-003
1.542798e+003,7.063007e-003
1.544727e+003,7.074324e-003
1.546655e+003,7.114362e-003
1.548584e+003,7.127815e-003
1.550512e+003,7.086285e-003
1.552441e+003,7.073302e-003
1.554369e+003,7.111344e-003
1.556298e+003,7.150456e-003
1.558226e+003,7.186895e-003
1.560155e+003,7.173450e-003
1.562083e+003,7.187469e-003
1.564012e+003,7.238491e-003
1.565940e+003,7.283122e-003
1.567869e+003,7.351704e-003
1.569797e+003,7.439741e-003
1.571726e+003,7.502429e-003
1.573654e+003,7.617479e-003
1.575583e+003,7.750566e-003
1.577511e+003,7.919075e-003
1.579440e+003,8.082143e-003
1.581368e+003,8.227711e-003
1.583297e+003,8.393954e-003
1.585225e+003,8.633445e-003
1.587154e+003,8.819101e-003
1.589082e+003,8.905312e-003
1.591010e+003,9.008425e-003
1.592939e+003,9.099921e-003
1.594868e+003,9.131742e-003
1.596796e+003,9.126979e-003
1.598724e+003,9.137957e-003
1.600653e+003,9.207026e-003
1.602582e+003,9.253714e-003
1.604510e+003,9.221482e-003
1.606438e+003,9.105989e-003
1.608367e+003,8.965283e-003
1.610296e+003,8.839251e-003
1.612224e+003,8.764837e-003
1.614152e+003,8.735916e-003
1.616081e+003,8.724533e-003
1.618010e+003,8.724612e-003
1.619938e+003,8.769698e-003
1.621866e+003,8.794215e-003
1.623795e+003,8.821752e-003
1.625724e+003,8.850123e-003
1.627652e+003,8.869780e-003
1.629580e+003,8.873362e-003
1.631509e+003,8.855543e-003
1.633438e+003,8.840828e-003
1.635366e+003,8.796267e-003
1.637294e+003,8.761907e-003
1.639223e+003,8.687231e-003
1.641151e+003,8.612282e-003
1.643080e+003,8.619204e-003
1.645008e+003,8.628572e-003
1.646937e+003,8.588989e-003
1.648865e+003,8.546475e-003
1.650794e+003,8.536248e-003
1.652722e+003,8.477655e-003
1.654651e+003,8.442785e-003
1.656579e+003,8.393639e-003
1.658508e+003,8.301566e-003
1.660436e+003,8.216909e-003
1.662365e+003,8.090565e-003
1.664293e+003,8.019377e-003
1.666222e+003,8.016451e-003
1.668150e+003,7.917316e-003
1.670079e+003,7.737438e-003
1.672007e+003,7.676595e-003
1.673936e+003,7.631028e-003
1.675864e+003,7.566678e-003
1.677793e+003,7.509362e-003
1.679721e+003,7.412991e-003
1.681650e+003,7.358701e-003
1.683578e+003,7.325399e-003
1.685507e+003,7.290587e-003
1.687435e+003,7.276264e-003
1.689364e+003,7.288698e-003
1.691292e+003,7.292878e-003
1.693221e+003,7.264534e-003
1.695149e+003,7.239230e-003
1.697078e+003,7.235817e-003
1.699006e+003,7.234070e-003
1.700935e+003,7.209278e-003
1.702863e+003,7.181951e-003
1.704792e+003,7.220328e-003
1.706720e+003,7.295761e-003
1.708649e+003,7.347112e-003
1.710577e+003,7.332473e-003
1.712506e+003,7.373445e-003
1.714434e+003,7.423336e-003
1.716363e+003,7.495070e-003
1.718291e+003,7.521534e-003
1.720220e+003,7.547786e-003
1.722148e+003,7.653187e-003
1.724077e+003,7.708649e-003
1.726005e+003,7.712719e-003
1.727934e+003,7.714687e-003
1.729862e+003,7.713082e-003
1.731791e+003,7.741211e-003
1.733719e+003,7.761362e-003
1.735648e+003,7.703986e-003
1.737576e+003,7.551288e-003
1.739505e+003,7.458423e-003
1.741433e+003,7.368794e-003
1.743362e+003,7.243962e-003
1.745290e+003,7.050778e-003
1.747219e+003,6.903206e-003
1.749147e+003,6.796148e-003
1.751076e+003,6.660958e-003
1.753004e+003,6.532253e-003
1.754933e+003,6.388240e-003
1.756861e+003,6.282228e-003
1.758790e+003,6.190372e-003
1.760718e+003,6.139630e-003
1.762647e+003,6.065311e-003
1.764575e+003,5.954258e-003
1.766504e+003,5.875238e-003
1.768432e+003,5.839833e-003
1.770361e+003,5.851490e-003
1.772289e+003,5.851701e-003
1.774218e+003,5.852085e-003
1.776146e+003,5.819347e-003
1.778075e+003,5.755672e-003
1.780003e+003,5.711350e-003
1.781932e+003,5.696980e-003
1.783860e+003,5.675810e-003
1.785789e+003,5.688421e-003
1.787717e+003,5.750226e-003
1.789646e+003,5.774448e-003
1.791574e+003,5.737407e-003
1.793503e+003,5.792886e-003
1.795431e+003,5.831728e-003
1.797360e+003,5.828501e-003
1.799288e+003,5.788208e-003
1.801217e+003,5.777061e-003
1.803145e+003,5.774322e-003
1.805074e+003,5.838092e-003
1.807002e+003,5.790722e-003
1.808931e+003,5.756137e-003
1.810859e+003,5.753356e-003
1.812788e+003,5.810278e-003
1.814716e+003,5.815203e-003
1.816645e+003,5.791955e-003
1.818573e+003,5.821550e-003
1.820502e+003,5.834815e-003
1.822430e+003,5.731979e-003
1.824359e+003,5.737445e-003
1.826287e+003,5.750764e-003
1.828216e+003,5.734534e-003
1.830144e+003,5.672016e-003
1.832073e+003,5.620068e-003
1.834001e+003,5.684319e-003
1.835930e+003,5.783335e-003
1.837858e+003,5.784053e-003
1.839787e+003,5.718858e-003
1.841715e+003,5.703701e-003
1.843644e+003,5.764536e-003
1.845572e+003,5.725975e-003
1.847501e+003,5.766327e-003
1.849429e+003,5.860577e-003
1.851358e+003,5.909242e-003
1.853286e+003,5.805735e-003
1.855215e+003,5.772924e-003
1.857143e+003,5.791542e-003
1.859072e+003,5.763379e-003
1.861000e+003,5.869038e-003
1.862929e+003,5.784050e-003
1.864857e+003,5.590102e-003
1.866786e+003,5.587207e-003
1.868714e+003,5.640815e-003
1.870643e+003,5.736016e-003
1.872571e+003,5.846343e-003
1.874500e+003,5.965452e-003
1.876428e+003,5.919349e-003
1.878357e+003,5.848290e-003
1.880285e+003,5.860298e-003
1.882214e+003,5.879341e-003
1.884142e+003,5.856666e-003
1.886071e+003,5.934204e-003
1.887999e+003,6.001497e-003
1.889928e+003,5.902911e-003
1.891856e+003,5.688076e-003
1.893785e+003,5.749633e-003
1.895713e+003,5.961973e-003
1.897642e+003,5.894851e-003
1.899570e+003,5.840363e-003
1.901499e+003,5.893114e-003
1.903427e+003,5.804814e-003
1.905356e+003,5.696978e-003
1.907284e+003,5.912356e-003
1.909213e+003,6.104968e-003
1.911141e+003,5.872133e-003
1.913070e+003,5.840646e-003
1.914998e+003,5.896429e-003
1.916927e+003,5.798250e-003
1.918855e+003,5.753010e-003
1.920784e+003,5.659723e-003
1.922712e+003,5.995329e-003
1.924641e+003,6.302478e-003
1.926569e+003,6.202927e-003
1.928498e+003,6.004182e-003
1.930426e+003,5.936915e-003
1.932355e+003,5.989327e-003
1.934283e+003,5.921720e-003
1.936212e+003,5.691644e-003
1.938140e+003,5.768087e-003
1.940069e+003,5.743012e-003
1.941997e+003,5.639897e-003
1.943926e+003,5.857323e-003
1.945854e+003,6.076274e-003
1.947783e+003,5.870835e-003
1.949711e+003,5.824086e-003
1.951640e+003,5.789635e-003
1.953568e+003,5.762087e-003
1.955497e+003,6.056486e-003
1.957425e+003,5.752289e-003
1.959354e+003,4.964550e-003
1.961282e+003,4.409629e-003
1.963211e+003,4.714240e-003
1.965139e+003,5.563056e-003
1.967068e+003,5.614875e-003
1.968996e+003,4.836238e-003
1.970925e+003,4.036847e-003
1.972853e+003,4.296132e-003
1.974782e+003,4.565587e-003
1.976710e+003,4.271816e-003
1.978639e+003,4.343419e-003
1.980567e+003,4.837454e-003
1.982496e+003,4.671910e-003
1.984424e+003,5.000706e-003
1.986353e+003,5.397043e-003
1.988281e+003,4.815489e-003
1.990210e+003,4.473014e-003
1.992138e+003,4.988385e-003
1.994067e+003,5.424372e-003
1.995995e+003,5.045327e-003
1.997924e+003,5.317944e-003
1.999852e+003,5.097738e-003
2.001781e+003,5.090772e-003
2.003709e+003,5.284763e-003
2.005638e+003,4.895789e-003
2.007566e+003,4.197891e-003
2.009495e+003,3.361809e-003
2.011423e+003,3.307869e-003
2.013352e+003,3.496368e-003
2.015280e+003,3.742538e-003
2.017208e+003,3.873539e-003
2.019137e+003,4.035272e-003
2.021066e+003,3.971417e-003
2.022994e+003,3.919798e-003
2.024922e+003,3.278781e-003
2.026851e+003,2.822715e-003
2.028780e+003,3.335635e-003
2.030708e+003,4.092815e-003
2.032636e+003,3.957410e-003
2.034565e+003,3.892059e-003
2.036494e+003,3.468549e-003
2.038422e+003,3.336984e-003
2.040350e+003,3.989760e-003
2.042279e+003,3.457853e-003
2.044208e+003,3.739520e-003
2.046136e+003,4.763881e-003
2.048064e+003,4.855582e-003
2.049993e+003,4.576871e-003
2.051921e+003,4.765137e-003
2.053850e+003,4.919446e-003
2.055778e+003,4.366231e-003
2.057707e+003,3.948314e-003
2.059635e+003,4.241165e-003
2.061564e+003,4.363265e-003
2.063492e+003,4.772912e-003
2.065421e+003,4.793970e-003
2.067349e+003,4.760657e-003
2.069278e+003,4.761655e-003
2.071206e+003,4.745068e-003
2.073135e+003,4.949035e-003
2.075063e+003,5.023760e-003
2.076992e+003,4.695587e-003
2.078920e+003,4.529281e-003
2.080849e+003,4.901513e-003
2.082777e+003,5.378199e-003
2.084706e+003,5.686409e-003
2.086634e+003,5.426959e-003
2.088563e+003,5.132161e-003
2.090491e+003,5.178050e-003
2.092420e+003,5.268323e-003
2.094348e+003,5.291953e-003
2.096277e+003,5.506405e-003
2.098205e+003,5.416594e-003
2.100134e+003,5.451454e-003
2.102062e+003,5.729996e-003
2.103991e+003,5.860955e-003
2.105919e+003,5.756487e-003
2.107848e+003,5.582429e-003
2.109776e+003,5.551352e-003
2.111705e+003,5.622740e-003
2.113633e+003,5.737953e-003
2.115562e+003,5.996556e-003
2.117490e+003,5.972838e-003
2.119419e+003,5.825256e-003
2.121347e+003,5.900217e-003
2.123276e+003,5.927826e-003
2.125204e+003,5.754238e-003
2.127133e+003,5.574307e-003
2.129061e+003,5.640900e-003
2.130990e+003,5.847857e-003
2.132918e+003,5.884397e-003
2.134847e+003,5.992524e-003
2.136775e+003,5.759005e-003
2.138704e+003,5.369392e-003
2.140632e+003,5.462728e-003
2.142561e+003,5.061580e-003
2.144489e+003,4.764439e-003
2.146418e+003,4.826685e-003
2.148346e+003,4.433422e-003
2.150275e+003,4.036969e-003
2.152203e+003,3.495055e-003
2.154132e+003,3.285509e-003
2.156060e+003,3.054108e-003
2.157989e+003,3.128759e-003
2.159917e+003,2.600209e-003
2.161846e+003,2.611776e-003
2.163774e+003,3.204223e-003
2.165703e+003,4.019646e-003
2.167631e+003,4.472923e-003
2.169560e+003,4.285726e-003
2.171488e+003,4.166314e-003
2.173417e+003,4.389272e-003
2.175345e+003,4.365776e-003
2.177274e+003,4.232658e-003
2.179202e+003,4.590812e-003
2.181131e+003,5.020987e-003
2.183059e+003,3.873060e-003
2.184988e+003,3.084007e-003
2.186916e+003,3.483097e-003
2.188845e+003,4.482163e-003
2.190773e+003,4.203081e-003
2.192702e+003,3.882555e-003
2.194630e+003,4.103560e-003
2.196559e+003,4.283551e-003
2.198487e+003,3.845714e-003
2.200416e+003,4.342583e-003
2.202344e+003,4.600087e-003
2.204273e+003,4.428334e-003
2.206201e+003,4.186152e-003
2.208130e+003,4.515541e-003
2.210058e+003,4.987837e-003
2.211987e+003,4.462746e-003
2.213915e+003,4.034795e-003
2.215844e+003,4.472822e-003
2.217772e+003,4.488222e-003
2.219701e+003,4.187257e-003
2.221629e+003,4.267891e-003
2.223558e+003,4.607421e-003
2.225486e+003,4.822263e-003
2.227415e+003,5.073414e-003
2.229343e+003,4.917625e-003
2.231272e+003,4.876837e-003
2.233200e+003,4.880894e-003
2.235129e+003,4.532496e-003
2.237057e+003,4.659180e-003
2.238986e+003,4.907929e-003
2.240914e+003,4.955043e-003
2.242843e+003,5.146269e-003
2.244771e+003,5.620180e-003
2.246700e+003,5.622531e-003
2.248628e+003,5.218470e-003
2.250557e+003,5.181583e-003
2.252485e+003,5.157023e-003
2.254414e+003,4.961525e-003
2.256342e+003,5.077969e-003
2.258271e+003,5.166535e-003
2.260199e+003,5.249998e-003
2.262128e+003,5.228070e-003
2.264056e+003,5.054989e-003
2.265985e+003,5.062542e-003
2.267913e+003,5.365099e-003
2.269842e+003,5.493595e-003
2.271770e+003,5.166560e-003
2.273699e+003,5.288974e-003
2.275627e+003,5.402939e-003
2.277556e+003,5.367455e-003
2.279484e+003,5.597806e-003
2.281413e+003,5.607132e-003
2.283341e+003,5.621094e-003
2.285270e+003,5.773571e-003
2.287198e+003,5.886480e-003
2.289127e+003,5.990941e-003
2.291055e+003,5.911247e-003
2.292984e+003,5.914107e-003
2.294912e+003,5.901162e-003
2.296841e+003,5.741765e-003
2.298769e+003,5.553936e-003
2.300698e+003,5.542107e-003
2.302626e+003,5.779504e-003
2.304555e+003,5.892755e-003
2.306483e+003,5.851288e-003
2.308412e+003,5.865640e-003
2.310340e+003,5.881466e-003
2.312269e+003,6.039643e-003
2.314197e+003,6.142695e-003
2.316125e+003,6.172628e-003
2.318054e+003,6.058953e-003
2.319983e+003,6.174182e-003
2.321911e+003,6.158456e-003
2.323840e+003,6.012138e-003
2.325768e+003,6.055212e-003
2.327697e+003,5.907296e-003
2.329625e+003,5.700121e-003
2.331553e+003,5.685733e-003
2.333482e+003,5.576058e-003
2.335411e+003,5.865023e-003
2.337339e+003,6.008206e-003
2.339268e+003,6.011050e-003
2.341196e+003,5.944322e-003
2.343125e+003,5.998799e-003
2.345053e+003,5.824686e-003
2.346981e+003,5.746636e-003
2.348910e+003,5.655986e-003
2.350839e+003,5.691286e-003
2.352767e+003,5.573273e-003
2.354696e+003,5.573427e-003
2.356624e+003,5.851119e-003
2.358552e+003,5.785035e-003
2.360481e+003,5.685452e-003
2.362409e+003,5.583982e-003
2.364338e+003,5.778910e-003
2.366267e+003,5.865665e-003
2.368195e+003,5.917007e-003
2.370124e+003,5.834009e-003
2.372052e+003,5.784855e-003
2.373980e+003,5.975679e-003
2.375909e+003,6.159398e-003
2.377838e+003,6.102368e-003
2.379766e+003,6.016956e-003
2.381695e+003,5.995128e-003
2.383623e+003,6.108635e-003
2.385552e+003,6.123263e-003
2.387480e+003,6.069089e-003
2.389408e+003,6.047097e-003
2.391337e+003,6.095836e-003
2.393266e+003,6.128541e-003
2.395194e+003,6.163766e-003
2.397123e+003,6.123849e-003
2.399051e+003,6.138473e-003
2.400979e+003,6.157605e-003
2.402908e+003,6.059953e-003
2.404836e+003,6.124772e-003
2.406765e+003,6.180660e-003
2.408694e+003,6.178039e-003
2.410622e+003,6.176190e-003
2.412551e+003,6.225329e-003
2.414479e+003,6.276725e-003
2.416407e+003,6.319084e-003
2.418336e+003,6.336667e-003
2.420264e+003,6.311721e-003
2.422193e+003,6.192322e-003
2.424122e+003,6.028404e-003
2.426050e+003,6.093655e-003
2.427979e+003,6.241833e-003
2.429907e+003,6.221564e-003
2.431835e+003,6.122957e-003
2.433764e+003,6.152262e-003
2.435692e+003,6.159353e-003
2.437621e+003,6.126015e-003
2.439550e+003,6.270809e-003
2.441478e+003,6.365045e-003
2.443406e+003,6.328430e-003
2.445335e+003,6.277969e-003
2.447263e+003,6.317066e-003
2.449192e+003,6.425974e-003
2.451121e+003,6.353814e-003
2.453049e+003,6.181904e-003
2.454978e+003,6.171687e-003
2.456906e+003,6.257396e-003
2.458834e+003,6.312293e-003
2.460763e+003,6.236925e-003
2.462691e+003,6.217665e-003
2.464620e+003,6.215749e-003
2.466549e+003,6.324665e-003
2.468477e+003,6.354823e-003
2.470406e+003,6.363498e-003
2.472334e+003,6.228152e-003
2.474262e+003,6.234034e-003
2.476191e+003,6.347964e-003
2.478119e+003,6.386059e-003
2.480048e+003,6.224656e-003
2.481977e+003,6.134753e-003
2.483905e+003,6.191549e-003
2.485833e+003,6.173199e-003
2.487762e+003,6.136097e-003
2.489690e+003,6.048664e-003
2.491619e+003,6.025986e-003
2.493547e+003,6.094159e-003
2.495476e+003,6.129174e-003
2.497405e+003,6.218808e-003
2.499333e+003,6.216993e-003
2.501261e+003,6.266472e-003
2.503190e+003,6.301165e-003
2.505118e+003,6.253665e-003
2.507047e+003,6.142011e-003
2.508975e+003,6.139357e-003
2.510904e+003,6.205296e-003
2.512833e+003,6.215178e-003
2.514761e+003,6.149405e-003
2.516689e+003,6.219883e-003
2.518618e+003,6.218640e-003
2.520546e+003,6.090430e-003
2.522475e+003,6.172930e-003
2.524403e+003,6.169099e-003
2.526332e+003,6.181500e-003
2.528260e+003,6.258606e-003
2.530189e+003,6.157504e-003
2.532117e+003,6.084851e-003
2.534046e+003,6.110524e-003
2.535974e+003,6.091774e-003
2.537903e+003,6.039592e-003
2.539831e+003,6.124772e-003
2.541760e+003,6.157135e-003
2.543688e+003,6.191650e-003
2.545617e+003,6.177804e-003
2.547545e+003,6.176661e-003
2.549474e+003,6.035393e-003
2.551402e+003,5.955505e-003
2.553331e+003,5.983253e-003
2.555259e+003,6.071680e-003
2.557188e+003,6.087506e-003
2.559116e+003,6.019804e-003
2.561045e+003,5.934443e-003
2.562973e+003,5.949358e-003
2.564902e+003,6.120840e-003
2.566830e+003,6.194507e-003
2.568759e+003,6.042213e-003
2.570687e+003,5.965448e-003
2.572616e+003,5.979087e-003
2.574544e+003,6.035292e-003
2.576473e+003,6.032336e-003
2.578401e+003,6.053368e-003
2.580330e+003,6.138315e-003
2.582258e+003,6.076250e-003
2.584187e+003,6.010800e-003
2.586115e+003,5.954363e-003
2.588044e+003,6.016008e-003
2.589972e+003,6.083743e-003
2.591901e+003,6.011808e-003
2.593829e+003,6.054208e-003
2.595758e+003,6.066170e-003
2.597686e+003,6.010531e-003
2.599615e+003,6.049269e-003
2.601543e+003,5.999277e-003
2.603472e+003,5.985772e-003
2.605400e+003,6.042213e-003
2.607329e+003,6.006668e-003
2.609257e+003,5.941699e-003
2.611186e+003,6.018998e-003
2.613114e+003,6.057702e-003
2.615043e+003,6.039357e-003
2.616971e+003,6.010733e-003
2.618900e+003,6.027363e-003
2.620828e+003,6.078434e-003
2.622757e+003,6.154782e-003
2.624685e+003,6.176089e-003
2.626614e+003,6.188021e-003
2.628542e+003,6.156194e-003
2.630471e+003,6.181164e-003
2.632399e+003,6.165738e-003
2.634328e+003,6.211682e-003
2.636256e+003,6.256892e-003
2.638185e+003,6.299820e-003
2.640113e+003,6.347897e-003
2.642042e+003,6.365246e-003
2.643970e+003,6.370558e-003
2.645899e+003,6.387808e-003
2.647827e+003,6.430984e-003
2.649756e+003,6.491116e-003
2.651684e+003,6.515097e-003
2.653613e+003,6.589773e-003
2.655541e+003,6.611842e-003
2.657470e+003,6.600504e-003
2.659398e+003,6.644375e-003
2.661327e+003,6.672840e-003
2.663255e+003,6.693399e-003
2.665184e+003,6.701945e-003
2.667112e+003,6.706185e-003
2.669041e+003,6.668970e-003
2.670969e+003,6.651138e-003
2.672898e+003,6.689562e-003
2.674826e+003,6.738355e-003
2.676755e+003,6.735730e-003
2.678683e+003,6.728092e-003
2.680612e+003,6.756158e-003
2.682540e+003,6.752658e-003
2.684469e+003,6.782745e-003
2.686397e+003,6.835823e-003
2.688326e+003,6.806809e-003
2.690254e+003,6.806809e-003
2.692183e+003,6.808795e-003
2.694111e+003,6.837674e-003
2.696040e+003,6.850061e-003
2.697968e+003,6.837876e-003
2.699897e+003,6.856389e-003
2.701825e+003,6.863660e-003
2.703754e+003,6.859756e-003
2.705682e+003,6.825759e-003
2.707611e+003,6.819465e-003
2.709539e+003,6.843329e-003
2.711468e+003,6.872244e-003
2.713396e+003,6.875509e-003
2.715325e+003,6.860732e-003
2.717253e+003,6.850970e-003
2.719182e+003,6.845416e-003
2.721110e+003,6.875038e-003
2.723039e+003,6.893519e-003
2.724967e+003,6.913988e-003
2.726896e+003,6.872547e-003
2.728824e+003,6.862314e-003
2.730753e+003,6.926680e-003
2.732681e+003,6.938261e-003
2.734610e+003,6.913011e-003
2.736538e+003,6.907491e-003
2.738467e+003,6.864064e-003
2.740395e+003,6.833130e-003
2.742324e+003,6.875610e-003
2.744252e+003,6.916244e-003
2.746181e+003,6.885474e-003
2.748109e+003,6.867935e-003
2.750038e+003,6.874264e-003
2.751966e+003,6.873894e-003
2.753895e+003,6.882714e-003
2.755823e+003,6.900454e-003
2.757752e+003,6.932707e-003
2.759680e+003,6.904797e-003
2.761609e+003,6.912271e-003
2.763537e+003,6.945265e-003
2.765466e+003,6.973109e-003
2.767394e+003,6.984860e-003
2.769323e+003,6.996780e-003
2.771251e+003,6.994221e-003
2.773180e+003,7.028736e-003
2.775108e+003,7.008700e-003
2.777037e+003,6.960011e-003
2.778965e+003,6.981897e-003
2.780894e+003,7.049210e-003
2.782822e+003,7.030857e-003
2.784750e+003,7.002874e-003
2.786679e+003,7.001561e-003
2.788608e+003,7.013246e-003
2.790536e+003,7.056417e-003
2.792465e+003,7.063153e-003
2.794393e+003,7.046011e-003
2.796322e+003,7.058808e-003
2.798250e+003,7.050692e-003
2.800178e+003,7.117309e-003
2.802107e+003,7.166116e-003
2.804036e+003,7.145906e-003
2.805964e+003,7.179826e-003
2.807893e+003,7.239523e-003
2.809821e+003,7.236727e-003
2.811750e+003,7.198321e-003
2.813678e+003,7.260311e-003
2.815606e+003,7.259367e-003
2.817535e+003,7.234166e-003
2.819464e+003,7.214525e-003
2.821392e+003,7.249866e-003
2.823321e+003,7.306742e-003
2.825249e+003,7.333194e-003
2.827177e+003,7.382161e-003
2.829106e+003,7.408988e-003
2.831034e+003,7.458907e-003
2.832963e+003,7.527407e-003
2.834892e+003,7.514528e-003
2.836820e+003,7.534622e-003
2.838749e+003,7.574811e-003
2.840677e+003,7.625422e-003
2.842605e+003,7.660696e-003
2.844534e+003,7.675704e-003
2.846462e+003,7.719784e-003
2.848391e+003,7.781140e-003
2.850320e+003,7.839873e-003
2.852248e+003,7.807419e-003
2.854177e+003,7.814436e-003
2.856105e+003,7.858294e-003
2.858033e+003,7.892676e-003
2.859962e+003,7.953078e-003
2.861890e+003,7.988547e-003
2.863819e+003,8.011024e-003
2.865748e+003,8.026550e-003
2.867676e+003,8.106179e-003
2.869604e+003,8.129540e-003
2.871533e+003,8.091832e-003
2.873461e+003,8.073333e-003
2.875390e+003,8.069484e-003
2.877319e+003,8.065806e-003
2.879247e+003,8.114550e-003
2.881176e+003,8.113403e-003
2.883104e+003,8.101047e-003
2.885032e+003,8.188287e-003
2.886961e+003,8.212057e-003
2.888889e+003,8.171438e-003
2.890818e+003,8.162896e-003
2.892747e+003,8.203886e-003
2.894675e+003,8.252917e-003
2.896604e+003,8.251937e-003
2.898532e+003,8.201995e-003
2.900460e+003,8.171910e-003
2.902389e+003,8.167961e-003
2.904317e+003,8.183728e-003
2.906246e+003,8.139026e-003
2.908175e+003,8.049299e-003
2.910103e+003,8.045620e-003
2.912031e+003,8.096389e-003
2.913960e+003,8.068404e-003
2.915888e+003,7.960097e-003
2.917817e+003,7.940558e-003
2.919745e+003,7.901550e-003
2.921674e+003,7.851850e-003
2.923603e+003,7.778273e-003
2.925531e+003,7.729161e-003
2.927459e+003,7.720762e-003
2.929388e+003,7.711959e-003
2.931316e+003,7.681234e-003
2.933245e+003,7.658605e-003
2.935173e+003,7.661607e-003
2.937102e+003,7.658095e-003
2.939031e+003,7.699348e-003
2.940959e+003,7.679157e-003
2.942887e+003,7.649581e-003
2.944816e+003,7.560042e-003
2.946744e+003,7.477431e-003
2.948673e+003,7.405206e-003
2.950601e+003,7.355340e-003
2.952530e+003,7.341238e-003
2.954458e+003,7.345134e-003
2.956387e+003,7.309564e-003
2.958315e+003,7.245476e-003
2.960244e+003,7.210810e-003
2.962172e+003,7.217103e-003
2.964101e+003,7.224150e-003
2.966029e+003,7.224913e-003
2.967958e+003,7.194539e-003
2.969886e+003,7.121497e-003
2.971815e+003,7.012912e-003
2.973743e+003,6.989698e-003
2.975672e+003,6.978661e-003
2.977600e+003,6.993478e-003
2.979529e+003,7.003288e-003
2.981457e+003,6.988973e-003
2.983386e+003,7.016726e-003
2.985314e+003,6.983398e-003
2.987243e+003,6.981243e-003
2.989171e+003,7.055632e-003
2.991100e+003,7.053883e-003
2.993028e+003,6.995081e-003
2.994957e+003,6.936132e-003
2.996885e+003,6.950903e-003
2.998814e+003,6.971953e-003
3.000742e+003,6.978949e-003
3.002671e+003,6.944449e-003
3.004599e+003,6.935561e-003
3.006528e+003,6.982711e-003
3.008456e+003,6.964284e-003
3.010385e+003,6.984086e-003
3.012313e+003,7.026571e-003
3.014242e+003,7.085589e-003
3.016170e+003,7.082209e-003
3.018099e+003,7.007923e-003
3.020027e+003,6.996258e-003
3.021956e+003,7.024574e-003
3.023884e+003,6.985946e-003
3.025813e+003,6.984422e-003
3.027741e+003,7.038163e-003
3.029670e+003,7.097142e-003
3.031598e+003,7.064599e-003
3.033527e+003,7.081346e-003
3.035455e+003,7.154812e-003
3.037384e+003,7.173952e-003
3.039312e+003,7.076806e-003
3.041241e+003,7.036925e-003
3.043169e+003,7.070500e-003
3.045098e+003,7.087801e-003
3.047026e+003,7.163858e-003
3.048955e+003,7.167402e-003
3.050883e+003,7.155379e-003
3.052812e+003,7.191193e-003
3.054740e+003,7.240737e-003
3.056669e+003,7.273719e-003
3.058597e+003,7.285368e-003
3.060526e+003,7.282676e-003
3.062454e+003,7.275877e-003
3.064383e+003,7.343926e-003
3.066311e+003,7.359521e-003
3.068240e+003,7.350827e-003
3.070168e+003,7.336888e-003
3.072097e+003,7.381509e-003
3.074025e+003,7.355789e-003
3.075954e+003,7.445558e-003
3.077882e+003,7.514726e-003
3.079811e+003,7.499020e-003
3.081739e+003,7.446235e-003
3.083668e+003,7.471923e-003
3.085596e+003,7.497551e-003
3.087525e+003,7.521100e-003
3.089453e+003,7.524925e-003
3.091382e+003,7.496626e-003
3.093310e+003,7.520761e-003
3.095239e+003,7.582635e-003
3.097167e+003,7.612869e-003
3.099096e+003,7.564499e-003
3.101024e+003,7.565151e-003
3.102953e+003,7.567628e-003
3.104881e+003,7.618062e-003
3.106810e+003,7.632869e-003
3.108738e+003,7.675934e-003
3.110667e+003,7.713383e-003
3.112595e+003,7.723111e-003
3.114524e+003,7.749818e-003
3.116452e+003,7.747103e-003
3.118381e+003,7.774129e-003
3.120309e+003,7.739748e-003
3.122238e+003,7.731462e-003
3.124166e+003,7.869717e-003
3.126095e+003,7.894193e-003
3.128023e+003,7.900028e-003
3.129952e+003,7.937338e-003
3.131880e+003,7.969139e-003
3.133809e+003,8.013462e-003
3.135737e+003,8.075546e-003
3.137666e+003,8.051982e-003
3.139594e+003,7.983191e-003
3.141523e+003,7.976406e-003
3.143451e+003,8.037052e-003
3.145380e+003,8.152839e-003
3.147308e+003,8.135828e-003
3.149237e+003,8.121474e-003
3.151165e+003,8.225351e-003
3.153094e+003,8.237403e-003
3.155022e+003,8.240291e-003
3.156951e+003,8.302907e-003
3.158879e+003,8.341164e-003
3.160808e+003,8.348803e-003
3.162736e+003,8.345888e-003
3.164665e+003,8.411467e-003
3.166593e+003,8.438788e-003
3.168522e+003,8.415864e-003
3.170450e+003,8.410103e-003
3.172379e+003,8.436938e-003
3.174307e+003,8.523304e-003
3.176236e+003,8.623409e-003
3.178164e+003,8.626439e-003
3.180093e+003,8.612103e-003
3.182021e+003,8.607875e-003
3.183950e+003,8.647589e-003
3.185878e+003,8.689397e-003
3.187807e+003,8.727909e-003
3.189735e+003,8.767480e-003
3.191664e+003,8.845202e-003
3.193592e+003,8.846299e-003
3.195521e+003,8.891285e-003
3.197449e+003,8.932666e-003
3.199378e+003,8.942920e-003
3.201306e+003,8.931364e-003
3.203235e+003,9.002268e-003
3.205163e+003,9.041491e-003
3.207092e+003,9.096408e-003
3.209020e+003,9.137179e-003
3.210948e+003,9.090665e-003
3.212877e+003,9.120184e-003
3.214806e+003,9.239966e-003
3.216734e+003,9.358916e-003
3.218663e+003,9.398619e-003
3.220591e+003,9.389034e-003
3.222520e+003,9.421445e-003
3.224448e+003,9.439642e-003
3.226376e+003,9.482434e-003
3.228305e+003,9.512973e-003
3.230234e+003,9.566775e-003
3.232162e+003,9.733542e-003
3.234091e+003,9.762917e-003
3.236019e+003,9.693804e-003
3.237948e+003,9.719231e-003
3.239876e+003,9.814606e-003
3.241804e+003,9.860935e-003
3.243733e+003,9.806664e-003
3.245662e+003,9.790028e-003
3.247590e+003,9.959671e-003
3.249519e+003,1.011909e-002
3.251447e+003,1.014464e-002
3.253375e+003,1.018670e-002
3.255304e+003,1.020687e-002
3.257232e+003,1.013049e-002
3.259161e+003,1.011803e-002
3.261090e+003,1.021683e-002
3.263018e+003,1.029697e-002
3.264947e+003,1.033140e-002
3.266875e+003,1.032597e-002
3.268803e+003,1.032348e-002
3.270732e+003,1.042366e-002
3.272660e+003,1.040964e-002
3.274589e+003,1.034810e-002
3.276518e+003,1.042537e-002
3.278446e+003,1.049159e-002
3.280375e+003,1.056006e-002
3.282303e+003,1.062931e-002
3.284231e+003,1.063639e-002
3.286160e+003,1.056142e-002
3.288088e+003,1.059419e-002
3.290017e+003,1.061512e-002
3.291946e+003,1.071061e-002
3.293874e+003,1.076898e-002
3.295802e+003,1.077853e-002
3.297731e+003,1.071842e-002
3.299659e+003,1.069718e-002
3.301588e+003,1.077983e-002
3.303516e+003,1.087443e-002
3.305445e+003,1.092022e-002
3.307374e+003,1.094697e-002
3.309302e+003,1.089236e-002
3.311230e+003,1.078348e-002
3.313159e+003,1.078978e-002
3.315087e+003,1.086025e-002
3.317016e+003,1.085249e-002
3.318944e+003,1.086576e-002
3.320873e+003,1.098064e-002
3.322802e+003,1.107243e-002
3.324730e+003,1.101553e-002
3.326658e+003,1.097232e-002
3.328587e+003,1.102707e-002
3.330515e+003,1.098046e-002
3.332444e+003,1.097788e-002
3.334372e+003,1.100598e-002
3.336301e+003,1.094317e-002
3.338229e+003,1.093088e-002
3.340158e+003,1.099658e-002
3.342086e+003,1.100075e-002
3.344015e+003,1.094254e-002
3.345943e+003,1.090799e-002
3.347872e+003,1.090738e-002
3.349800e+003,1.093186e-002
3.351729e+003,1.092212e-002
3.353657e+003,1.080337e-002
3.355586e+003,1.071951e-002
3.357514e+003,1.071591e-002
3.359443e+003,1.070156e-002
3.361371e+003,1.066687e-002
3.363300e+003,1.063409e-002
3.365229e+003,1.066156e-002
3.367157e+003,1.069809e-002
3.369085e+003,1.065558e-002
3.371014e+003,1.063209e-002
3.372942e+003,1.058808e-002
3.374871e+003,1.052503e-002
3.376799e+003,1.050306e-002
3.378728e+003,1.051286e-002
3.380656e+003,1.047833e-002
3.382585e+003,1.042877e-002
3.384513e+003,1.049128e-002
3.386442e+003,1.046811e-002
3.388370e+003,1.038035e-002
3.390299e+003,1.034792e-002
3.392227e+003,1.039156e-002
3.394156e+003,1.035206e-002
3.396084e+003,1.021812e-002
3.398013e+003,1.018004e-002
3.399941e+003,1.015458e-002
3.401870e+003,1.017631e-002
3.403798e+003,1.014292e-002
3.405727e+003,1.007622e-002
3.407655e+003,1.003752e-002
3.409584e+003,9.948050e-003
3.411512e+003,9.882623e-003
3.413441e+003,9.882565e-003
3.415369e+003,9.841748e-003
3.417298e+003,9.834010e-003
3.419226e+003,9.785773e-003
3.421155e+003,9.630778e-003
3.423083e+003,9.571020e-003
3.425012e+003,9.541734e-003
3.426940e+003,9.563128e-003
3.428869e+003,9.478810e-003
3.430797e+003,9.426895e-003
3.432726e+003,9.440599e-003
3.434654e+003,9.331917e-003
3.436583e+003,9.249961e-003
3.438511e+003,9.197773e-003
3.440440e+003,9.205035e-003
3.442368e+003,9.176833e-003
3.444297e+003,9.141507e-003
3.446225e+003,9.009783e-003
3.448154e+003,8.830245e-003
3.450082e+003,8.853918e-003
3.452011e+003,8.849999e-003
3.453939e+003,8.726684e-003
3.455868e+003,8.682712e-003
3.457796e+003,8.636934e-003
3.459725e+003,8.533556e-003
3.461653e+003,8.395211e-003
3.463582e+003,8.397790e-003
3.465510e+003,8.438388e-003
3.467439e+003,8.338661e-003
3.469367e+003,8.323387e-003
3.471296e+003,8.285518e-003
3.473224e+003,8.149143e-003
3.475153e+003,8.078053e-003
3.477081e+003,8.018314e-003
3.479010e+003,8.031106e-003
3.480938e+003,8.012732e-003
3.482867e+003,7.942122e-003
3.484795e+003,7.807557e-003
3.486724e+003,7.776065e-003
3.488652e+003,7.694293e-003
3.490581e+003,7.585288e-003
3.492509e+003,7.520814e-003
3.494438e+003,7.471985e-003
3.496366e+003,7.496355e-003
3.498295e+003,7.410140e-003
3.500223e+003,7.334334e-003
3.502152e+003,7.350805e-003
3.504080e+003,7.323690e-003
3.506009e+003,7.299384e-003
3.507937e+003,7.229571e-003
3.509866e+003,7.245311e-003
3.511794e+003,7.216519e-003
3.513723e+003,7.148282e-003
3.515651e+003,7.126729e-003
3.517580e+003,7.045668e-003
3.519508e+003,6.913788e-003
3.521437e+003,6.907120e-003
3.523365e+003,6.923363e-003
3.525294e+003,6.930697e-003
3.527222e+003,6.811141e-003
3.529151e+003,6.711538e-003
3.531079e+003,6.755942e-003
3.533008e+003,6.733414e-003
3.534936e+003,6.697870e-003
3.536865e+003,6.586405e-003
3.538793e+003,6.589018e-003
3.540722e+003,6.602584e-003
3.542650e+003,6.568067e-003
3.544579e+003,6.541162e-003
3.546507e+003,6.592507e-003
3.548436e+003,6.533066e-003
3.550364e+003,6.374927e-003
3.552293e+003,6.371615e-003
3.554221e+003,6.355433e-003
3.556150e+003,6.281101e-003
3.558078e+003,6.335606e-003
3.560007e+003,6.339224e-003
3.561935e+003,6.189000e-003
3.563864e+003,6.164123e-003
3.565792e+003,6.243793e-003
3.567721e+003,6.213967e-003
3.569649e+003,6.157902e-003
3.571578e+003,6.212773e-003
3.573506e+003,6.129454e-003
3.575435e+003,6.034745e-003
3.577363e+003,5.964175e-003
3.579292e+003,5.866882e-003
3.581220e+003,5.908260e-003
3.583149e+003,5.996411e-003
3.585077e+003,6.021648e-003
3.587006e+003,5.895590e-003
3.588934e+003,5.895602e-003
3.590863e+003,5.931167e-003
3.592791e+003,5.908468e-003
3.594720e+003,5.963491e-003
3.596648e+003,5.991095e-003
3.598577e+003,5.985566e-003
3.600505e+003,5.917046e-003
3.602434e+003,5.908332e-003
3.604362e+003,5.826167e-003
3.606291e+003,5.694421e-003
3.608219e+003,5.605267e-003
3.610148e+003,5.450804e-003
3.612076e+003,5.438150e-003
3.614005e+003,5.561839e-003
3.615933e+003,5.590724e-003
3.617862e+003,5.647809e-003
3.619790e+003,5.696070e-003
3.621719e+003,5.626177e-003
3.623647e+003,5.695770e-003
3.625576e+003,5.758985e-003
3.627504e+003,5.691725e-003
3.629433e+003,5.647095e-003
3.631361e+003,5.543238e-003
3.633290e+003,5.452278e-003
3.635218e+003,5.455317e-003
3.637146e+003,5.410875e-003
3.639075e+003,5.428626e-003
3.641004e+003,5.440492e-003
3.642932e+003,5.309634e-003
3.644861e+003,5.295412e-003
3.646789e+003,5.250314e-003
3.648718e+003,5.129413e-003
3.650646e+003,5.121646e-003
3.652574e+003,5.125261e-003
3.654503e+003,5.027452e-003
3.656432e+003,5.010697e-003
3.658360e+003,5.084619e-003
3.660289e+003,5.148706e-003
3.662217e+003,5.103424e-003
3.664146e+003,5.115662e-003
3.666074e+003,5.086334e-003
3.668002e+003,5.095060e-003
3.669931e+003,5.052022e-003
3.671860e+003,5.074191e-003
3.673788e+003,5.128267e-003
3.675717e+003,5.138593e-003
3.677645e+003,5.115887e-003
3.679573e+003,5.117286e-003
3.681502e+003,5.077119e-003
3.683430e+003,5.062369e-003
3.685359e+003,5.135083e-003
3.687288e+003,5.287442e-003
3.689216e+003,5.275127e-003
3.691145e+003,5.266229e-003
3.693073e+003,5.354922e-003
3.695001e+003,5.273454e-003
3.696930e+003,5.239519e-003
3.698858e+003,5.320429e-003
3.700787e+003,5.397562e-003
3.702716e+003,5.502092e-003
3.704644e+003,5.526026e-003
3.706573e+003,5.411072e-003
3.708501e+003,5.282596e-003
3.710429e+003,5.276923e-003
3.712358e+003,5.129693e-003
3.714286e+003,5.062954e-003
3.716215e+003,5.164000e-003
3.718144e+003,5.240364e-003
3.720072e+003,5.274490e-003
3.722000e+003,5.290736e-003
3.723929e+003,5.379180e-003
3.725857e+003,5.481155e-003
3.727786e+003,5.548944e-003
3.729714e+003,5.524232e-003
3.731643e+003,5.510948e-003
3.733572e+003,5.404593e-003
3.735500e+003,5.329626e-003
3.737428e+003,5.236783e-003
3.739357e+003,5.239522e-003
3.741285e+003,5.128033e-003
3.743214e+003,5.025033e-003
3.745142e+003,5.024379e-003
3.747071e+003,4.954405e-003
3.749000e+003,4.962622e-003
3.750928e+003,4.967397e-003
3.752856e+003,4.944277e-003
3.754785e+003,4.926431e-003
3.756713e+003,4.942329e-003
3.758642e+003,4.996716e-003
3.760570e+003,5.021046e-003
3.762499e+003,5.048216e-003
3.764427e+003,5.031868e-003
3.766356e+003,5.007396e-003
3.768284e+003,5.026542e-003
3.770213e+003,5.021653e-003
3.772141e+003,5.062131e-003
3.774070e+003,4.979149e-003
3.775998e+003,4.977620e-003
3.777927e+003,4.981680e-003
3.779855e+003,5.057469e-003
3.781784e+003,5.092119e-003
3.783712e+003,5.153262e-003
3.785641e+003,5.169153e-003
3.787569e+003,5.138924e-003
3.789498e+003,5.098316e-003
3.791426e+003,5.053179e-003
3.793355e+003,5.046831e-003
3.795283e+003,5.025197e-003
3.797212e+003,5.118654e-003
3.799140e+003,5.176955e-003
3.801069e+003,5.081448e-003
3.802997e+003,5.083936e-003
3.804926e+003,5.077116e-003
3.806854e+003,5.176582e-003
3.808783e+003,5.154336e-003
3.810711e+003,5.119847e-003
3.812640e+003,5.084934e-003
3.814568e+003,5.127640e-003
3.816497e+003,5.124644e-003
3.818425e+003,5.070639e-003
3.820354e+003,5.099896e-003
3.822282e+003,5.078420e-003
3.824211e+003,5.068612e-003
3.826139e+003,5.131759e-003
3.828068e+003,5.102927e-003
3.829996e+003,5.077764e-003
3.831925e+003,5.016810e-003
3.833853e+003,5.023036e-003
3.835782e+003,5.119339e-003
3.837710e+003,5.190805e-003
3.839639e+003,5.167765e-003
3.841567e+003,5.184426e-003
3.843496e+003,5.238615e-003
3.845424e+003,5.180675e-003
3.847353e+003,5.196860e-003
3.849281e+003,5.251400e-003
3.851210e+003,5.182668e-003
3.853138e+003,5.134837e-003
3.855067e+003,5.148833e-003
3.856995e+003,5.162382e-003
3.858924e+003,5.206451e-003
3.860852e+003,5.204808e-003
3.862781e+003,5.129513e-003
3.864709e+003,5.162827e-003
3.866638e+003,5.259515e-003
3.868566e+003,5.221781e-003
3.870495e+003,5.182970e-003
3.872423e+003,5.186093e-003
3.874352e+003,5.203131e-003
3.876280e+003,5.190365e-003
3.878209e+003,5.183035e-003
3.880137e+003,5.223012e-003
3.882066e+003,5.216965e-003
3.883994e+003,5.157648e-003
3.885923e+003,5.167713e-003
3.887851e+003,5.149859e-003
3.889780e+003,5.146096e-003
3.891708e+003,5.223655e-003
3.893637e+003,5.196777e-003
3.895565e+003,5.168405e-003
3.897494e+003,5.155259e-003
3.899422e+003,5.163901e-003
3.901351e+003,5.169424e-003
3.903279e+003,5.227301e-003
3.905208e+003,5.282970e-003
3.907136e+003,5.282233e-003
3.909065e+003,5.212225e-003
3.910993e+003,5.196802e-003
3.912922e+003,5.241896e-003
3.914850e+003,5.247104e-003
3.916779e+003,5.225474e-003
3.918707e+003,5.302601e-003
3.920636e+003,5.373070e-003
3.922564e+003,5.281188e-003
3.924493e+003,5.263561e-003
3.926421e+003,5.267535e-003
3.928350e+003,5.260996e-003
3.930278e+003,5.299205e-003
3.932207e+003,5.355030e-003
3.934135e+003,5.282531e-003
3.936064e+003,5.230558e-003
3.937992e+003,5.225126e-003
3.939921e+003,5.261292e-003
3.941849e+003,5.250774e-003
3.943778e+003,5.287648e-003
3.945706e+003,5.290115e-003
3.947635e+003,5.323086e-003
3.949563e+003,5.416382e-003
3.951492e+003,5.356905e-003
3.953420e+003,5.294343e-003
3.955349e+003,5.343434e-003
3.957277e+003,5.317110e-003
3.959206e+003,5.206407e-003
3.961134e+003,5.171405e-003
3.963063e+003,5.288693e-003
3.964991e+003,5.325196e-003
3.966920e+003,5.328930e-003
3.968848e+003,5.353296e-003
3.970777e+003,5.347528e-003
3.972705e+003,5.285961e-003
3.974634e+003,5.202844e-003
3.976562e+003,5.230665e-003
3.978491e+003,5.269552e-003
3.980419e+003,5.352430e-003
3.982348e+003,5.297382e-003
3.984276e+003,5.194873e-003
3.986205e+003,5.198076e-003
3.988133e+003,5.285040e-003
3.990062e+003,5.299681e-003
3.991990e+003,5.318715e-003
3.993919e+003,5.325754e-003
3.995847e+003,5.337199e-003
3.997776e+003,5.319105e-003
3.999704e+003,5.318942e-003
4.001633e+003,0.000000e+000
