3.991989e+002,4.296541e-002
4.011274e+002,4.410743e-002
4.030559e+002,4.410743e-002
4.049844e+002,4.755312e-002
4.069129e+002,4.606829e-002
4.088414e+002,4.533020e-002
4.107699e+002,4.665738e-002
4.126984e+002,4.741836e-002
4.146269e+002,4.665127e-002
4.165554e+002,4.725365e-002
4.184839e+002,4.881016e-002
4.204124e+002,5.066777e-002
4.223409e+002,5.047667e-002
4.242694e+002,5.058913e-002
4.261979e+002,5.064987e-002
4.281264e+002,5.174816e-002
4.300549e+002,5.186592e-002
4.319834e+002,5.192647e-002
4.339119e+002,5.285641e-002
4.358404e+002,5.307517e-002
4.377689e+002,5.229608e-002
4.396974e+002,5.218121e-002
4.416259e+002,5.243736e-002
4.435544e+002,5.246305e-002
4.454829e+002,5.220535e-002
4.474114e+002,5.261465e-002
4.493399e+002,5.244042e-002
4.512684e+002,5.215279e-002
4.531969e+002,5.169611e-002
4.551254e+002,5.207178e-002
4.570539e+002,5.271890e-002
4.589824e+002,5.248338e-002
4.609109e+002,5.210323e-002
4.628394e+002,5.144131e-002
4.647679e+002,5.104313e-002
4.666964e+002,5.077828e-002
4.686249e+002,5.093325e-002
4.705533e+002,5.056100e-002
4.724819e+002,5.018043e-002
4.744103e+002,4.980870e-002
4.763389e+002,4.955376e-002
4.782673e+002,4.956502e-002
4.801959e+002,4.972725e-002
4.821243e+002,4.906204e-002
4.840529e+002,4.825630e-002
4.859813e+002,4.784690e-002
4.879099e+002,4.742071e-002
4.898383e+002,4.684721e-002
4.917668e+002,4.652905e-002
4.936953e+002,4.642641e-002
4.956238e+002,4.605449e-002
4.975523e+002,4.587819e-002
4.994808e+002,4.561297e-002
5.014093e+002,4.571322e-002
5.033378e+002,4.584099e-002
5.052663e+002,4.551323e-002
5.071948e+002,4.552574e-002
5.091233e+002,4.549497e-002
5.110518e+002,4.516636e-002
5.129803e+002,4.546785e-002
5.149088e+002,4.617896e-002
5.168373e+002,4.687038e-002
5.187658e+002,4.665545e-002
5.206943e+002,4.716422e-002
5.226228e+002,4.714862e-002
5.245513e+002,4.727528e-002
5.264798e+002,4.684611e-002
5.284083e+002,4.683118e-002
5.303368e+002,4.684896e-002
5.322653e+002,4.667909e-002
5.341938e+002,4.638582e-002
5.361223e+002,4.647571e-002
5.380508e+002,4.555229e-002
5.399792e+002,4.550561e-002
5.419078e+002,4.576824e-002
5.438363e+002,4.596492e-002
5.457648e+002,4.612063e-002
5.476932e+002,4.635989e-002
5.496218e+002,4.651588e-002
5.515503e+002,4.685665e-002
5.534788e+002,4.713273e-002
5.554072e+002,4.755635e-002
5.573358e+002,4.795894e-002
5.592643e+002,4.837533e-002
5.611927e+002,4.803633e-002
5.631212e+002,4.729234e-002
5.650497e+002,4.676804e-002
5.669783e+002,4.654454e-002
5.689067e+002,4.645507e-002
5.708352e+002,4.615354e-002
5.727637e+002,4.589453e-002
5.746923e+002,4.546253e-002
5.766207e+002,4.515502e-002
5.785492e+002,4.523268e-002
5.804777e+002,4.513124e-002
5.824063e+002,4.496570e-002
5.843347e+002,4.502302e-002
5.862632e+002,4.500387e-002
5.881917e+002,4.485571e-002
5.901202e+002,4.505346e-002
5.920487e+002,4.503887e-002
5.939772e+002,4.490809e-002
5.959057e+002,4.467543e-002
5.978342e+002,4.440171e-002
5.997627e+002,4.418520e-002
6.016912e+002,4.420527e-002
6.036197e+002,4.387082e-002
6.055482e+002,4.366938e-002
6.074767e+002,4.359998e-002
6.094052e+002,4.372059e-002
6.113337e+002,4.328921e-002
6.132622e+002,4.279488e-002
6.151907e+002,4.224931e-002
6.171192e+002,4.216446e-002
6.190477e+002,4.200725e-002
6.209762e+002,4.159960e-002
6.229047e+002,4.068245e-002
6.248332e+002,3.986083e-002
6.267617e+002,3.926365e-002
6.286902e+002,3.882293e-002
6.306187e+002,3.844667e-002
6.325472e+002,3.816771e-002
6.344756e+002,3.769530e-002
6.364042e+002,3.741587e-002
6.383326e+002,3.717155e-002
6.402612e+002,3.701706e-002
6.421896e+002,3.696981e-002
6.441182e+002,3.673993e-002
6.460466e+002,3.647471e-002
6.479752e+002,3.637936e-002
6.499036e+002,3.609335e-002
6.518322e+002,3.594915e-002
6.537606e+002,3.586946e-002
6.556891e+002,3.602343e-002
6.576177e+002,3.613340e-002
6.595461e+002,3.631129e-002
6.614746e+002,3.647429e-002
6.634031e+002,3.654008e-002
6.653317e+002,3.627685e-002
6.672601e+002,3.603680e-002
6.691886e+002,3.577205e-002
6.711171e+002,3.550624e-002
6.730457e+002,3.481733e-002
6.749741e+002,3.399918e-002
6.769026e+002,3.298884e-002
6.788311e+002,3.236257e-002
6.807596e+002,3.169490e-002
6.826881e+002,3.114869e-002
6.846166e+002,3.075260e-002
6.865451e+002,3.053910e-002
6.884736e+002,3.015597e-002
6.904021e+002,3.003929e-002
6.923306e+002,2.975585e-002
6.942591e+002,2.956918e-002
6.961876e+002,2.938925e-002
6.981161e+002,2.929384e-002
7.000446e+002,2.912595e-002
7.019731e+002,2.909968e-002
7.039016e+002,2.893075e-002
7.058301e+002,2.887054e-002
7.077585e+002,2.867953e-002
7.096871e+002,2.848855e-002
7.116156e+002,2.823566e-002
7.135441e+002,2.804626e-002
7.154725e+002,2.784709e-002
7.174011e+002,2.774276e-002
7.193296e+002,2.751459e-002
7.212581e+002,2.728076e-002
7.231865e+002,2.698463e-002
7.251151e+002,2.684481e-002
7.270436e+002,2.663758e-002
7.289720e+002,2.641920e-002
7.309005e+002,2.610677e-002
7.328290e+002,2.591615e-002
7.347576e+002,2.570430e-002
7.366860e+002,2.550683e-002
7.386145e+002,2.520412e-002
7.405430e+002,2.502932e-002
7.424716e+002,2.482874e-002
7.444000e+002,2.458196e-002
7.463285e+002,2.432835e-002
7.482570e+002,2.426417e-002
7.501855e+002,2.404549e-002
7.521140e+002,2.384185e-002
7.540425e+002,2.368688e-002
7.559710e+002,2.350576e-002
7.578995e+002,2.334994e-002
7.598280e+002,2.326610e-002
7.617565e+002,2.312504e-002
7.636850e+002,2.311626e-002
7.656135e+002,2.299310e-002
7.675420e+002,2.290186e-002
7.694705e+002,2.275948e-002
7.713990e+002,2.277027e-002
7.733275e+002,2.275442e-002
7.752560e+002,2.277823e-002
7.771844e+002,2.270550e-002
7.791130e+002,2.270725e-002
7.810415e+002,2.268448e-002
7.829700e+002,2.270351e-002
7.848984e+002,2.276650e-002
7.868270e+002,2.281158e-002
7.887555e+002,2.267593e-002
7.906840e+002,2.268651e-002
7.926124e+002,2.262922e-002
7.945410e+002,2.251314e-002
7.964695e+002,2.241855e-002
7.983979e+002,2.253907e-002
8.003264e+002,2.255851e-002
8.022549e+002,2.249234e-002
8.041835e+002,2.244716e-002
8.061119e+002,2.241820e-002
8.080404e+002,2.241056e-002
8.099689e+002,2.234305e-002
8.118975e+002,2.226649e-002
8.138259e+002,2.227901e-002
8.157545e+002,2.227479e-002
8.176830e+002,2.234145e-002
8.196115e+002,2.234574e-002
8.215399e+002,2.237965e-002
8.234684e+002,2.234399e-002
8.253970e+002,2.242186e-002
8.273254e+002,2.257317e-002
8.292539e+002,2.278197e-002
8.311824e+002,2.284269e-002
8.331110e+002,2.286749e-002
8.350394e+002,2.278657e-002
8.369679e+002,2.264657e-002
8.388964e+002,2.247371e-002
8.408250e+002,2.230800e-002
8.427534e+002,2.203981e-002
8.446819e+002,2.181228e-002
8.466104e+002,2.170833e-002
8.485389e+002,2.167893e-002
8.504674e+002,2.159050e-002
8.523959e+002,2.159325e-002
8.543244e+002,2.152636e-002
8.562529e+002,2.148302e-002
8.581814e+002,2.156376e-002
8.601099e+002,2.165730e-002
8.620384e+002,2.164608e-002
8.639669e+002,2.174988e-002
8.658954e+002,2.184472e-002
8.678239e+002,2.200861e-002
8.697524e+002,2.215926e-002
8.716809e+002,2.227559e-002
8.736094e+002,2.239915e-002
8.755378e+002,2.255757e-002
8.774664e+002,2.267317e-002
8.793949e+002,2.296816e-002
8.813234e+002,2.331777e-002
8.832518e+002,2.364349e-002
8.851804e+002,2.404093e-002
8.871089e+002,2.458937e-002
8.890374e+002,2.516305e-002
8.909658e+002,2.581192e-002
8.928943e+002,2.634120e-002
8.948229e+002,2.680888e-002
8.967513e+002,2.698076e-002
8.986798e+002,2.689954e-002
9.006083e+002,2.656513e-002
9.025369e+002,2.621926e-002
9.044653e+002,2.587233e-002
9.063938e+002,2.547881e-002
9.083223e+002,2.517404e-002
9.102509e+002,2.506008e-002
9.121793e+002,2.504362e-002
9.141078e+002,2.504032e-002
9.160364e+002,2.494847e-002
9.179648e+002,2.511333e-002
9.198933e+002,2.521108e-002
9.218218e+002,2.538374e-002
9.237504e+002,2.558855e-002
9.256788e+002,2.583741e-002
9.276073e+002,2.619382e-002
9.295358e+002,2.648183e-002
9.314644e+002,2.675714e-002
9.333928e+002,2.711995e-002
9.353213e+002,2.744094e-002
9.372498e+002,2.775515e-002
9.391783e+002,2.814823e-002
9.411068e+002,2.877135e-002
9.430353e+002,2.939610e-002
9.449637e+002,2.991284e-002
9.468923e+002,3.052680e-002
9.488208e+002,3.124213e-002
9.507493e+002,3.194965e-002
9.526777e+002,3.279188e-002
9.546063e+002,3.373320e-002
9.565348e+002,3.467937e-002
9.584633e+002,3.552946e-002
9.603917e+002,3.645062e-002
9.623203e+002,3.737724e-002
9.642488e+002,3.826481e-002
9.661772e+002,3.909045e-002
9.681057e+002,3.988868e-002
9.700343e+002,4.066250e-002
9.719628e+002,4.145043e-002
9.738912e+002,4.244311e-002
9.758197e+002,4.358067e-002
9.777483e+002,4.482907e-002
9.796768e+002,4.622328e-002
9.816052e+002,4.772939e-002
9.835337e+002,4.930729e-002
9.854623e+002,5.079383e-002
9.873907e+002,5.197872e-002
9.893192e+002,5.278313e-002
9.912477e+002,5.336133e-002
9.931763e+002,5.358439e-002
9.951047e+002,5.371170e-002
9.970332e+002,5.395629e-002
9.989617e+002,5.457050e-002
1.000890e+003,5.537533e-002
1.002819e+003,5.626284e-002
1.004747e+003,5.705676e-002
1.006676e+003,5.781068e-002
1.008604e+003,5.860257e-002
1.010533e+003,5.943182e-002
1.012461e+003,6.031545e-002
1.014390e+003,6.127501e-002
1.016318e+003,6.239179e-002
1.018247e+003,6.362644e-002
1.020175e+003,6.474325e-002
1.022104e+003,6.582793e-002
1.024032e+003,6.697895e-002
1.025961e+003,6.815132e-002
1.027889e+003,6.934491e-002
1.029818e+003,7.039774e-002
1.031746e+003,7.120175e-002
1.033675e+003,7.165118e-002
1.035603e+003,7.149931e-002
1.037532e+003,7.081896e-002
1.039460e+003,6.981187e-002
1.041389e+003,6.878367e-002
1.043317e+003,6.801249e-002
1.045246e+003,6.764598e-002
1.047174e+003,6.748347e-002
1.049103e+003,6.739102e-002
1.051031e+003,6.727545e-002
1.052960e+003,6.706679e-002
1.054888e+003,6.659786e-002
1.056817e+003,6.584520e-002
1.058745e+003,6.482948e-002
1.060674e+003,6.349403e-002
1.062602e+003,6.199754e-002
1.064531e+003,6.033845e-002
1.066459e+003,5.864387e-002
1.068388e+003,5.708487e-002
1.070316e+003,5.563260e-002
1.072245e+003,5.441484e-002
1.074173e+003,5.326712e-002
1.076102e+003,5.205656e-002
1.078030e+003,5.085116e-002
1.079959e+003,4.966005e-002
1.081887e+003,4.855927e-002
1.083816e+003,4.771075e-002
1.085744e+003,4.718389e-002
1.087673e+003,4.690780e-002
1.089601e+003,4.661776e-002
1.091530e+003,4.638244e-002
1.093458e+003,4.618233e-002
1.095387e+003,4.608262e-002
1.097315e+003,4.604876e-002
1.099244e+003,4.616321e-002
1.101172e+003,4.634432e-002
1.103101e+003,4.647890e-002
1.105029e+003,4.640420e-002
1.106958e+003,4.601428e-002
1.108886e+003,4.539607e-002
1.110815e+003,4.450099e-002
1.112743e+003,4.335494e-002
1.114672e+003,4.207035e-002
1.116600e+003,4.081346e-002
1.118529e+003,3.981582e-002
1.120457e+003,3.896278e-002
1.122386e+003,3.809419e-002
1.124314e+003,3.710743e-002
1.126243e+003,3.595715e-002
1.128171e+003,3.466433e-002
1.130100e+003,3.329814e-002
1.132028e+003,3.194198e-002
1.133957e+003,3.069948e-002
1.135885e+003,2.961686e-002
1.137814e+003,2.881861e-002
1.139742e+003,2.836072e-002
1.141671e+003,2.829614e-002
1.143599e+003,2.847074e-002
1.145528e+003,2.884779e-002
1.147456e+003,2.932084e-002
1.149385e+003,2.988718e-002
1.151313e+003,3.045294e-002
1.153242e+003,3.104598e-002
1.155170e+003,3.166362e-002
1.157099e+003,3.216136e-002
1.159027e+003,3.244330e-002
1.160956e+003,3.249161e-002
1.162884e+003,3.217399e-002
1.164813e+003,3.148064e-002
1.166741e+003,3.042934e-002
1.168670e+003,2.903813e-002
1.170598e+003,2.752386e-002
1.172526e+003,2.597606e-002
1.174455e+003,2.449127e-002
1.176384e+003,2.324904e-002
1.178312e+003,2.218283e-002
1.180240e+003,2.133425e-002
1.182169e+003,2.067789e-002
1.184098e+003,2.019596e-002
1.186026e+003,1.978968e-002
1.187954e+003,1.954250e-002
1.189883e+003,1.949574e-002
1.191812e+003,1.955293e-002
1.193740e+003,1.972488e-002
1.195668e+003,2.001846e-002
1.197597e+003,2.036122e-002
1.199526e+003,2.065927e-002
1.201454e+003,2.087480e-002
1.203382e+003,2.096020e-002
1.205311e+003,2.088129e-002
1.207240e+003,2.076264e-002
1.209168e+003,2.071059e-002
1.211096e+003,2.073167e-002
1.213025e+003,2.089639e-002
1.214953e+003,2.115809e-002
1.216882e+003,2.149626e-002
1.218810e+003,2.183799e-002
1.220739e+003,2.219115e-002
1.222667e+003,2.258025e-002
1.224596e+003,2.296762e-002
1.226524e+003,2.336428e-002
1.228453e+003,2.371120e-002
1.230381e+003,2.398838e-002
1.232310e+003,2.418219e-002
1.234238e+003,2.432697e-002
1.236167e+003,2.445468e-002
1.238095e+003,2.442968e-002
1.240024e+003,2.433131e-002
1.241952e+003,2.423199e-002
1.243881e+003,2.413619e-002
1.245809e+003,2.392416e-002
1.247738e+003,2.360783e-002
1.249666e+003,2.328644e-002
1.251595e+003,2.295605e-002
1.253523e+003,2.266299e-002
1.255452e+003,2.234776e-002
1.257380e+003,2.197482e-002
1.259309e+003,2.161673e-002
1.261237e+003,2.127151e-002
1.263166e+003,2.089455e-002
1.265094e+003,2.050057e-002
1.267023e+003,2.008707e-002
1.268951e+003,1.965632e-002
1.270880e+003,1.927584e-002
1.272808e+003,1.890210e-002
1.274737e+003,1.857292e-002
1.276665e+003,1.826722e-002
1.278594e+003,1.797648e-002
1.280522e+003,1.775850e-002
1.282451e+003,1.758681e-002
1.284379e+003,1.739021e-002
1.286308e+003,1.715264e-002
1.288236e+003,1.698142e-002
1.290165e+003,1.686116e-002
1.292093e+003,1.681322e-002
1.294022e+003,1.684931e-002
1.295950e+003,1.696827e-002
1.297879e+003,1.711474e-002
1.299807e+003,1.740278e-002
1.301736e+003,1.778231e-002
1.303664e+003,1.815262e-002
1.305593e+003,1.854060e-002
1.307521e+003,1.893832e-002
1.309450e+003,1.931908e-002
1.311378e+003,1.967132e-002
1.313307e+003,1.997261e-002
1.315235e+003,2.019918e-002
1.317164e+003,2.032535e-002
1.319092e+003,2.032852e-002
1.321021e+003,2.023961e-002
1.322949e+003,2.014126e-002
1.324878e+003,1.999093e-002
1.326806e+003,1.983402e-002
1.328735e+003,1.970836e-002
1.330663e+003,1.960514e-002
1.332592e+003,1.947143e-002
1.334520e+003,1.935007e-002
1.336449e+003,1.914617e-002
1.338377e+003,1.888284e-002
1.340306e+003,1.862285e-002
1.342234e+003,1.839970e-002
1.344163e+003,1.819892e-002
1.346091e+003,1.809400e-002
1.348020e+003,1.809110e-002
1.349948e+003,1.815727e-002
1.351877e+003,1.828360e-002
1.353805e+003,1.849338e-002
1.355734e+003,1.867231e-002
1.357662e+003,1.883687e-002
1.359591e+003,1.905161e-002
1.361519e+003,1.933451e-002
1.363448e+003,1.954148e-002
1.365376e+003,1.967620e-002
1.367305e+003,1.978594e-002
1.369233e+003,1.981522e-002
1.371162e+003,1.972767e-002
1.373090e+003,1.953830e-002
1.375019e+003,1.927701e-002
1.376947e+003,1.895079e-002
1.378876e+003,1.855626e-002
1.380804e+003,1.812153e-002
1.382733e+003,1.760663e-002
1.384661e+003,1.713734e-002
1.386590e+003,1.678304e-002
1.388518e+003,1.650921e-002
1.390447e+003,1.627685e-002
1.392375e+003,1.608516e-002
1.394304e+003,1.596354e-002
1.396232e+003,1.590338e-002
1.398161e+003,1.589787e-002
1.400089e+003,1.591571e-002
1.402018e+003,1.593521e-002
1.403946e+003,1.598590e-002
1.405875e+003,1.608433e-002
1.407803e+003,1.623286e-002
1.409732e+003,1.640539e-002
1.411660e+003,1.659956e-002
1.413589e+003,1.686951e-002
1.415517e+003,1.713787e-002
1.417446e+003,1.740272e-002
1.419374e+003,1.768144e-002
1.421303e+003,1.785860e-002
1.423231e+003,1.787128e-002
1.425160e+003,1.784781e-002
1.427088e+003,1.769444e-002
1.429017e+003,1.748664e-002
1.430945e+003,1.726323e-002
1.432874e+003,1.695838e-002
1.434802e+003,1.667717e-002
1.436731e+003,1.644425e-002
1.438659e+003,1.625673e-002
1.440588e+003,1.611762e-002
1.442516e+003,1.603207e-002
1.444445e+003,1.606890e-002
1.446373e+003,1.615351e-002
1.448302e+003,1.624529e-002
1.450230e+003,1.632498e-002
1.452159e+003,1.630514e-002
1.454087e+003,1.630714e-002
1.456016e+003,1.629465e-002
1.457944e+003,1.619202e-002
1.459873e+003,1.605756e-002
1.461801e+003,1.600170e-002
1.463730e+003,1.580657e-002
1.465658e+003,1.544251e-002
1.467587e+003,1.491503e-002
1.469515e+003,1.432460e-002
1.471444e+003,1.372583e-002
1.473372e+003,1.318283e-002
1.475301e+003,1.277332e-002
1.477229e+003,1.245556e-002
1.479158e+003,1.219916e-002
1.481086e+003,1.208179e-002
1.483015e+003,1.204247e-002
1.484943e+003,1.202480e-002
1.486872e+003,1.209575e-002
1.488800e+003,1.221369e-002
1.490729e+003,1.239757e-002
1.492657e+003,1.262673e-002
1.494586e+003,1.285828e-002
1.496514e+003,1.309389e-002
1.498443e+003,1.334786e-002
1.500371e+003,1.356925e-002
1.502300e+003,1.370171e-002
1.504228e+003,1.377933e-002
1.506157e+003,1.380563e-002
1.508085e+003,1.377758e-002
1.510014e+003,1.375380e-002
1.511942e+003,1.372538e-002
1.513871e+003,1.364487e-002
1.515799e+003,1.343160e-002
1.517728e+003,1.303408e-002
1.519656e+003,1.260921e-002
1.521585e+003,1.220611e-002
1.523513e+003,1.191088e-002
1.525442e+003,1.174899e-002
1.527370e+003,1.165655e-002
1.529299e+003,1.162147e-002
1.531227e+003,1.158474e-002
1.533156e+003,1.151652e-002
1.535084e+003,1.154235e-002
1.537013e+003,1.157741e-002
1.538941e+003,1.158445e-002
1.540870e+003,1.161801e-002
1.542798e+003,1.167818e-002
1.544727e+003,1.170821e-002
1.546655e+003,1.171828e-002
1.548584e+003,1.173858e-002
1.550512e+003,1.175544e-002
1.552441e+003,1.175053e-002
1.554369e+003,1.175678e-002
1.556298e+003,1.182677e-002
1.558226e+003,1.192081e-002
1.560155e+003,1.199258e-002
1.562083e+003,1.203619e-002
1.564012e+003,1.208422e-002
1.565940e+003,1.219627e-002
1.567869e+003,1.232759e-002
1.569797e+003,1.245474e-002
1.571726e+003,1.265404e-002
1.573654e+003,1.288351e-002
1.575583e+003,1.311109e-002
1.577511e+003,1.340616e-002
1.579440e+003,1.374464e-002
1.581368e+003,1.409252e-002
1.583297e+003,1.448148e-002
1.585225e+003,1.489081e-002
1.587154e+003,1.521534e-002
1.589082e+003,1.550316e-002
1.591010e+003,1.573464e-002
1.592939e+003,1.588214e-002
1.594868e+003,1.592561e-002
1.596796e+003,1.592545e-002
1.598724e+003,1.593202e-002
1.600653e+003,1.603700e-002
1.602582e+003,1.607525e-002
1.604510e+003,1.596355e-002
1.606438e+003,1.573950e-002
1.608367e+003,1.548802e-002
1.610296e+003,1.519242e-002
1.612224e+003,1.503204e-002
1.614152e+003,1.498026e-002
1.616081e+003,1.502245e-002
1.618010e+003,1.507539e-002
1.619938e+003,1.511838e-002
1.621866e+003,1.516528e-002
1.623795e+003,1.518076e-002
1.625724e+003,1.525496e-002
1.627652e+003,1.532686e-002
1.629580e+003,1.533695e-002
1.631509e+003,1.530865e-002
1.633438e+003,1.527937e-002
1.635366e+003,1.517225e-002
1.637294e+003,1.507302e-002
1.639223e+003,1.495961e-002
1.641151e+003,1.487902e-002
1.643080e+003,1.483622e-002
1.645008e+003,1.480991e-002
1.646937e+003,1.478125e-002
1.648865e+003,1.475085e-002
1.650794e+003,1.474131e-002
1.652722e+003,1.462822e-002
1.654651e+003,1.453802e-002
1.656579e+003,1.447268e-002
1.658508e+003,1.429883e-002
1.660436e+003,1.407319e-002
1.662365e+003,1.385598e-002
1.664293e+003,1.370372e-002
1.666222e+003,1.355585e-002
1.668150e+003,1.336349e-002
1.670079e+003,1.316541e-002
1.672007e+003,1.304604e-002
1.673936e+003,1.289717e-002
1.675864e+003,1.274610e-002
1.677793e+003,1.261151e-002
1.679721e+003,1.253247e-002
1.681650e+003,1.249553e-002
1.683578e+003,1.243152e-002
1.685507e+003,1.235371e-002
1.687435e+003,1.229771e-002
1.689364e+003,1.226437e-002
1.691292e+003,1.224250e-002
1.693221e+003,1.223606e-002
1.695149e+003,1.222104e-002
1.697078e+003,1.223229e-002
1.699006e+003,1.221214e-002
1.700935e+003,1.217932e-002
1.702863e+003,1.219544e-002
1.704792e+003,1.222065e-002
1.706720e+003,1.230278e-002
1.708649e+003,1.236902e-002
1.710577e+003,1.238976e-002
1.712506e+003,1.247170e-002
1.714434e+003,1.261729e-002
1.716363e+003,1.272857e-002
1.718291e+003,1.276954e-002
1.720220e+003,1.279623e-002
1.722148e+003,1.295291e-002
1.724077e+003,1.307231e-002
1.726005e+003,1.310352e-002
1.727934e+003,1.311971e-002
1.729862e+003,1.312242e-002
1.731791e+003,1.311436e-002
1.733719e+003,1.303298e-002
1.735648e+003,1.289201e-002
1.737576e+003,1.268407e-002
1.739505e+003,1.254752e-002
1.741433e+003,1.233387e-002
1.743362e+003,1.201908e-002
1.745290e+003,1.170804e-002
1.747219e+003,1.139345e-002
1.749147e+003,1.109540e-002
1.751076e+003,1.087026e-002
1.753004e+003,1.067452e-002
1.754933e+003,1.040078e-002
1.756861e+003,1.015602e-002
1.758790e+003,9.967118e-003
1.760718e+003,9.802859e-003
1.762647e+003,9.617757e-003
1.764575e+003,9.474333e-003
1.766504e+003,9.338942e-003
1.768432e+003,9.263746e-003
1.770361e+003,9.194200e-003
1.772289e+003,9.102878e-003
1.774218e+003,9.124517e-003
1.776146e+003,9.073591e-003
1.778075e+003,8.988623e-003
1.780003e+003,8.938180e-003
1.781932e+003,8.939199e-003
1.783860e+003,8.934784e-003
1.785789e+003,8.955522e-003
1.787717e+003,8.976112e-003
1.789646e+003,8.969233e-003
1.791574e+003,8.962093e-003
1.793503e+003,8.983252e-003
1.795431e+003,8.978480e-003
1.797360e+003,9.062641e-003
1.799288e+003,9.033399e-003
1.801217e+003,8.996645e-003
1.803145e+003,9.064632e-003
1.805074e+003,9.116849e-003
1.807002e+003,9.088812e-003
1.808931e+003,9.080144e-003
1.810859e+003,9.068592e-003
1.812788e+003,9.041985e-003
1.814716e+003,9.059116e-003
1.816645e+003,9.004912e-003
1.818573e+003,8.999052e-003
1.820502e+003,8.943279e-003
1.822430e+003,8.901952e-003
1.824359e+003,8.934759e-003
1.826287e+003,9.020353e-003
1.828216e+003,9.032089e-003
1.830144e+003,8.970818e-003
1.832073e+003,8.935869e-003
1.834001e+003,8.869166e-003
1.835930e+003,8.878376e-003
1.837858e+003,8.926424e-003
1.839787e+003,8.997882e-003
1.841715e+003,9.054445e-003
1.843644e+003,9.115654e-003
1.845572e+003,9.111703e-003
1.847501e+003,9.095799e-003
1.849429e+003,9.058699e-003
1.851358e+003,9.045724e-003
1.853286e+003,9.016694e-003
1.855215e+003,8.990441e-003
1.857143e+003,8.987834e-003
1.859072e+003,8.966045e-003
1.861000e+003,8.983946e-003
1.862929e+003,9.080009e-003
1.864857e+003,9.071356e-003
1.866786e+003,9.136399e-003
1.868714e+003,9.241742e-003
1.870643e+003,9.287916e-003
1.872571e+003,9.292061e-003
1.874500e+003,9.352442e-003
1.876428e+003,9.275906e-003
1.878357e+003,9.280376e-003
1.880285e+003,9.255640e-003
1.882214e+003,9.131840e-003
1.884142e+003,9.200331e-003
1.886071e+003,9.243520e-003
1.887999e+003,9.210083e-003
1.889928e+003,9.156154e-003
1.891856e+003,9.120052e-003
1.893785e+003,9.329625e-003
1.895713e+003,9.296583e-003
1.897642e+003,9.120333e-003
1.899570e+003,9.370312e-003
1.901499e+003,9.556678e-003
1.903427e+003,9.220241e-003
1.905356e+003,9.026434e-003
1.907284e+003,8.915017e-003
1.909213e+003,9.038469e-003
1.911141e+003,8.959497e-003
1.913070e+003,9.146990e-003
1.914998e+003,9.357856e-003
1.916927e+003,9.445943e-003
1.918855e+003,9.412869e-003
1.920784e+003,9.403448e-003
1.922712e+003,9.419702e-003
1.924641e+003,9.566144e-003
1.926569e+003,9.447877e-003
1.928498e+003,9.181139e-003
1.930426e+003,9.153984e-003
1.932355e+003,9.040203e-003
1.934283e+003,8.926176e-003
1.936212e+003,9.154607e-003
1.938140e+003,9.211982e-003
1.940069e+003,9.215129e-003
1.941997e+003,9.415539e-003
1.943926e+003,9.524293e-003
1.945854e+003,9.616029e-003
1.947783e+003,9.705575e-003
1.949711e+003,9.399932e-003
1.951640e+003,8.990346e-003
1.953568e+003,8.613003e-003
1.955497e+003,8.681687e-003
1.957425e+003,8.895593e-003
1.959354e+003,9.144152e-003
1.961282e+003,8.737239e-003
1.963211e+003,7.954129e-003
1.965139e+003,7.982842e-003
1.967068e+003,8.472616e-003
1.968996e+003,8.312581e-003
1.970925e+003,7.749131e-003
1.972853e+003,6.763034e-003
1.974782e+003,6.583435e-003
1.976710e+003,6.962183e-003
1.978639e+003,7.894007e-003
1.980567e+003,8.370672e-003
1.982496e+003,7.784186e-003
1.984424e+003,7.433667e-003
1.986353e+003,7.931744e-003
1.988281e+003,7.899267e-003
1.990210e+003,7.772549e-003
1.992138e+003,8.234684e-003
1.994067e+003,7.783195e-003
1.995995e+003,7.459980e-003
1.997924e+003,7.976294e-003
1.999852e+003,7.522215e-003
2.001781e+003,7.201703e-003
2.003709e+003,7.835871e-003
2.005638e+003,7.648938e-003
2.007566e+003,7.196844e-003
2.009495e+003,6.946994e-003
2.011423e+003,7.167963e-003
2.013352e+003,6.831504e-003
2.015280e+003,6.895011e-003
2.017208e+003,7.006255e-003
2.019137e+003,7.063713e-003
2.021066e+003,6.362106e-003
2.022994e+003,6.367002e-003
2.024922e+003,6.166594e-003
2.026851e+003,6.362928e-003
2.028780e+003,6.233613e-003
2.030708e+003,5.519214e-003
2.032636e+003,6.299143e-003
2.034565e+003,7.385528e-003
2.036494e+003,6.179322e-003
2.038422e+003,5.689426e-003
2.040350e+003,6.090666e-003
2.042279e+003,7.210241e-003
2.044208e+003,6.949951e-003
2.046136e+003,6.122876e-003
2.048064e+003,6.844996e-003
2.049993e+003,7.243063e-003
2.051921e+003,7.345724e-003
2.053850e+003,7.156267e-003
2.055778e+003,7.108756e-003
2.057707e+003,6.999535e-003
2.059635e+003,6.776054e-003
2.061564e+003,6.835302e-003
2.063492e+003,7.178533e-003
2.065421e+003,7.216793e-003
2.067349e+003,7.218866e-003
2.069278e+003,7.565713e-003
2.071206e+003,7.621848e-003
2.073135e+003,7.741275e-003
2.075063e+003,7.677647e-003
2.076992e+003,7.842615e-003
2.078920e+003,7.716616e-003
2.080849e+003,7.558781e-003
2.082777e+003,7.513515e-003
2.084706e+003,7.928549e-003
2.086634e+003,8.165468e-003
2.088563e+003,8.241568e-003
2.090491e+003,8.071411e-003
2.092420e+003,7.899061e-003
2.094348e+003,7.814299e-003
2.096277e+003,7.916397e-003
2.098205e+003,7.872634e-003
2.100134e+003,7.721201e-003
2.102062e+003,7.965598e-003
2.103991e+003,7.927229e-003
2.105919e+003,8.298779e-003
2.107848e+003,8.225294e-003
2.109776e+003,8.005557e-003
2.111705e+003,7.995836e-003
2.113633e+003,8.166171e-003
2.115562e+003,8.249168e-003
2.117490e+003,8.244913e-003
2.119419e+003,8.364811e-003
2.121347e+003,8.391057e-003
2.123276e+003,8.310026e-003
2.125204e+003,8.189772e-003
2.127133e+003,8.373356e-003
2.129061e+003,8.517076e-003
2.130990e+003,8.014838e-003
2.132918e+003,7.494673e-003
2.134847e+003,7.445761e-003
2.136775e+003,7.859340e-003
2.138704e+003,7.966408e-003
2.140632e+003,7.794735e-003
2.142561e+003,7.381655e-003
2.144489e+003,7.208697e-003
2.146418e+003,7.183296e-003
2.148346e+003,7.302226e-003
2.150275e+003,6.983210e-003
2.152203e+003,5.884297e-003
2.154132e+003,5.257932e-003
2.156060e+003,3.745005e-003
2.157989e+003,3.372688e-003
2.159917e+003,2.943875e-003
2.161846e+003,4.377590e-003
2.163774e+003,4.833219e-003
2.165703e+003,4.864279e-003
2.167631e+003,5.081426e-003
2.169560e+003,5.582128e-003
2.171488e+003,5.767299e-003
2.173417e+003,5.889939e-003
2.175345e+003,5.546854e-003
2.177274e+003,5.832141e-003
2.179202e+003,5.939180e-003
2.181131e+003,5.948921e-003
2.183059e+003,6.697201e-003
2.184988e+003,6.177904e-003
2.186916e+003,5.681048e-003
2.188845e+003,6.346350e-003
2.190773e+003,6.521286e-003
2.192702e+003,6.307956e-003
2.194630e+003,6.638353e-003
2.196559e+003,7.142908e-003
2.198487e+003,7.667880e-003
2.200416e+003,8.478523e-003
2.202344e+003,7.778408e-003
2.204273e+003,7.249192e-003
2.206201e+003,7.118387e-003
2.208130e+003,7.339125e-003
2.210058e+003,7.715534e-003
2.211987e+003,7.227361e-003
2.213915e+003,6.669576e-003
2.215844e+003,6.959338e-003
2.217772e+003,7.241949e-003
2.219701e+003,7.449233e-003
2.221629e+003,7.581318e-003
2.223558e+003,7.666058e-003
2.225486e+003,7.464165e-003
2.227415e+003,7.415527e-003
2.229343e+003,7.492245e-003
2.231272e+003,7.803386e-003
2.233200e+003,8.072544e-003
2.235129e+003,7.970602e-003
2.237057e+003,7.985439e-003
2.238986e+003,7.740744e-003
2.240914e+003,7.943164e-003
2.242843e+003,8.207791e-003
2.244771e+003,8.654406e-003
2.246700e+003,8.453304e-003
2.248628e+003,8.420647e-003
2.250557e+003,8.538253e-003
2.252485e+003,8.701117e-003
2.254414e+003,8.418222e-003
2.256342e+003,8.257904e-003
2.258271e+003,8.284166e-003
2.260199e+003,8.345617e-003
2.262128e+003,8.400261e-003
2.264056e+003,8.464895e-003
2.265985e+003,8.329227e-003
2.267913e+003,8.282911e-003
2.269842e+003,8.434933e-003
2.271770e+003,8.537475e-003
2.273699e+003,8.584728e-003
2.275627e+003,8.775302e-003
2.277556e+003,8.986315e-003
2.279484e+003,9.119387e-003
2.281413e+003,8.983047e-003
2.283341e+003,8.958636e-003
2.285270e+003,9.116841e-003
2.287198e+003,9.252764e-003
2.289127e+003,9.303549e-003
2.291055e+003,9.088418e-003
2.292984e+003,9.063330e-003
2.294912e+003,9.237607e-003
2.296841e+003,9.290257e-003
2.298769e+003,9.006526e-003
2.300698e+003,9.002300e-003
2.302626e+003,9.291684e-003
2.304555e+003,9.353287e-003
2.306483e+003,9.322277e-003
2.308412e+003,9.417173e-003
2.310340e+003,9.409128e-003
2.312269e+003,9.532346e-003
2.314197e+003,9.615036e-003
2.316125e+003,9.560579e-003
2.318054e+003,9.509019e-003
2.319983e+003,9.588001e-003
2.321911e+003,9.564837e-003
2.323840e+003,9.423208e-003
2.325768e+003,9.336738e-003
2.327697e+003,9.164025e-003
2.329625e+003,9.194593e-003
2.331553e+003,9.324736e-003
2.333482e+003,9.258332e-003
2.335411e+003,9.246444e-003
2.337339e+003,9.384370e-003
2.339268e+003,9.382943e-003
2.341196e+003,9.410898e-003
2.343125e+003,9.487618e-003
2.345053e+003,9.192199e-003
2.346981e+003,9.094657e-003
2.348910e+003,9.075871e-003
2.350839e+003,9.043613e-003
2.352767e+003,9.024537e-003
2.354696e+003,9.040182e-003
2.356624e+003,9.186589e-003
2.358552e+003,9.274452e-003
2.360481e+003,9.049186e-003
2.362409e+003,8.949579e-003
2.364338e+003,9.425936e-003
2.366267e+003,9.451184e-003
2.368195e+003,9.446937e-003
2.370124e+003,9.236820e-003
2.372052e+003,9.378801e-003
2.373980e+003,9.596862e-003
2.375909e+003,9.683916e-003
2.377838e+003,9.663711e-003
2.379766e+003,9.659393e-003
2.381695e+003,9.787829e-003
2.383623e+003,9.759734e-003
2.385552e+003,9.667697e-003
2.387480e+003,9.703545e-003
2.389408e+003,9.753453e-003
2.391337e+003,9.698585e-003
2.393266e+003,9.624179e-003
2.395194e+003,9.623219e-003
2.397123e+003,9.689357e-003
2.399051e+003,9.825575e-003
2.400979e+003,9.803550e-003
2.402908e+003,9.808735e-003
2.404836e+003,9.848423e-003
2.406765e+003,9.790367e-003
2.408694e+003,9.797958e-003
2.410622e+003,9.846864e-003
2.412551e+003,9.715613e-003
2.414479e+003,9.746550e-003
2.416407e+003,9.825477e-003
2.418336e+003,9.881064e-003
2.420264e+003,9.928081e-003
2.422193e+003,9.826087e-003
2.424122e+003,9.669466e-003
2.426050e+003,9.780132e-003
2.427979e+003,9.804499e-003
2.429907e+003,9.762172e-003
2.431835e+003,9.812260e-003
2.433764e+003,9.774609e-003
2.435692e+003,9.721780e-003
2.437621e+003,9.776540e-003
2.439550e+003,9.778641e-003
2.441478e+003,9.744382e-003
2.443406e+003,9.713987e-003
2.445335e+003,9.659776e-003
2.447263e+003,9.686881e-003
2.449192e+003,9.741840e-003
2.451121e+003,9.807210e-003
2.453049e+003,9.730184e-003
2.454978e+003,9.518760e-003
2.456906e+003,9.546533e-003
2.458834e+003,9.624374e-003
2.460763e+003,9.530174e-003
2.462691e+003,9.482014e-003
2.464620e+003,9.609739e-003
2.466549e+003,9.595275e-003
2.468477e+003,9.464473e-003
2.470406e+003,9.452451e-003
2.472334e+003,9.552020e-003
2.474262e+003,9.606590e-003
2.476191e+003,9.633657e-003
2.478119e+003,9.668382e-003
2.480048e+003,9.597172e-003
2.481977e+003,9.564722e-003
2.483905e+003,9.684916e-003
2.485833e+003,9.795349e-003
2.487762e+003,9.668789e-003
2.489690e+003,9.624916e-003
2.491619e+003,9.566280e-003
2.493547e+003,9.465218e-003
2.495476e+003,9.459563e-003
2.497405e+003,9.612043e-003
2.499333e+003,9.763595e-003
2.501261e+003,9.829341e-003
2.503190e+003,9.817276e-003
2.505118e+003,9.808871e-003
2.507047e+003,9.701484e-003
2.508975e+003,9.711310e-003
2.510904e+003,9.891233e-003
2.512833e+003,9.953711e-003
2.514761e+003,9.746008e-003
2.516689e+003,9.714393e-003
2.518618e+003,9.802296e-003
2.520546e+003,9.801042e-003
2.522475e+003,9.823376e-003
2.524403e+003,9.849575e-003
2.526332e+003,9.995006e-003
2.528260e+003,1.004424e-002
2.530189e+003,9.966662e-003
2.532117e+003,9.976731e-003
2.534046e+003,1.002739e-002
2.535974e+003,1.001226e-002
2.537903e+003,9.954118e-003
2.539831e+003,9.894047e-003
2.541760e+003,9.930183e-003
2.543688e+003,1.004234e-002
2.545617e+003,1.013014e-002
2.547545e+003,1.017766e-002
2.549474e+003,1.021945e-002
2.551402e+003,1.012726e-002
2.553331e+003,9.985275e-003
2.555259e+003,1.003020e-002
2.557188e+003,1.019109e-002
2.559116e+003,1.017464e-002
2.561045e+003,1.017552e-002
2.562973e+003,1.017610e-002
2.564902e+003,1.018414e-002
2.566830e+003,1.021816e-002
2.568759e+003,1.017973e-002
2.570687e+003,1.018750e-002
2.572616e+003,1.015690e-002
2.574544e+003,1.010006e-002
2.576473e+003,1.017549e-002
2.578401e+003,1.029059e-002
2.580330e+003,1.033297e-002
2.582258e+003,1.024309e-002
2.584187e+003,1.021677e-002
2.586115e+003,1.016460e-002
2.588044e+003,1.016141e-002
2.589972e+003,1.021033e-002
2.591901e+003,1.014727e-002
2.593829e+003,1.019574e-002
2.595758e+003,1.027007e-002
2.597686e+003,1.025151e-002
2.599615e+003,1.026067e-002
2.601543e+003,1.021813e-002
2.603472e+003,1.022959e-002
2.605400e+003,1.025059e-002
2.607329e+003,1.018054e-002
2.609257e+003,1.018573e-002
2.611186e+003,1.024862e-002
2.613114e+003,1.028686e-002
2.615043e+003,1.031441e-002
2.616971e+003,1.027794e-002
2.618900e+003,1.023685e-002
2.620828e+003,1.028086e-002
2.622757e+003,1.028795e-002
2.624685e+003,1.027047e-002
2.626614e+003,1.025151e-002
2.628542e+003,1.025555e-002
2.630471e+003,1.034485e-002
2.632399e+003,1.040776e-002
2.634328e+003,1.040732e-002
2.636256e+003,1.042453e-002
2.638185e+003,1.052011e-002
2.640113e+003,1.054533e-002
2.642042e+003,1.050993e-002
2.643970e+003,1.051801e-002
2.645899e+003,1.056241e-002
2.647827e+003,1.061059e-002
2.649756e+003,1.065144e-002
2.651684e+003,1.075152e-002
2.653613e+003,1.078385e-002
2.655541e+003,1.073664e-002
2.657470e+003,1.077475e-002
2.659398e+003,1.083837e-002
2.661327e+003,1.089120e-002
2.663255e+003,1.090483e-002
2.665184e+003,1.091934e-002
2.667112e+003,1.091390e-002
2.669041e+003,1.091465e-002
2.670969e+003,1.093802e-002
2.672898e+003,1.097697e-002
2.674826e+003,1.102366e-002
2.676755e+003,1.103035e-002
2.678683e+003,1.102760e-002
2.680612e+003,1.103406e-002
2.682540e+003,1.101863e-002
2.684469e+003,1.107559e-002
2.686397e+003,1.109045e-002
2.688326e+003,1.108725e-002
2.690254e+003,1.109742e-002
2.692183e+003,1.108151e-002
2.694111e+003,1.106081e-002
2.696040e+003,1.106611e-002
2.697968e+003,1.110306e-002
2.699897e+003,1.112077e-002
2.701825e+003,1.111394e-002
2.703754e+003,1.111373e-002
2.705682e+003,1.111224e-002
2.707611e+003,1.112033e-002
2.709539e+003,1.112944e-002
2.711468e+003,1.114341e-002
2.713396e+003,1.112437e-002
2.715325e+003,1.112233e-002
2.717253e+003,1.112882e-002
2.719182e+003,1.108844e-002
2.721110e+003,1.109255e-002
2.723039e+003,1.111139e-002
2.724967e+003,1.116513e-002
2.726896e+003,1.114283e-002
2.728824e+003,1.109568e-002
2.730753e+003,1.116163e-002
2.732681e+003,1.120573e-002
2.734610e+003,1.116513e-002
2.736538e+003,1.118441e-002
2.738467e+003,1.114154e-002
2.740395e+003,1.114195e-002
2.742324e+003,1.117584e-002
2.744252e+003,1.118087e-002
2.746181e+003,1.115762e-002
2.748109e+003,1.116088e-002
2.750038e+003,1.116163e-002
2.751966e+003,1.116017e-002
2.753895e+003,1.117689e-002
2.755823e+003,1.119583e-002
2.757752e+003,1.123922e-002
2.759680e+003,1.127322e-002
2.761609e+003,1.129250e-002
2.763537e+003,1.128023e-002
2.765466e+003,1.132627e-002
2.767394e+003,1.130934e-002
2.769323e+003,1.132753e-002
2.771251e+003,1.138505e-002
2.773180e+003,1.141821e-002
2.775108e+003,1.139280e-002
2.777037e+003,1.138658e-002
2.778965e+003,1.140865e-002
2.780894e+003,1.145182e-002
2.782822e+003,1.142399e-002
2.784750e+003,1.145376e-002
2.786679e+003,1.153293e-002
2.788608e+003,1.154365e-002
2.790536e+003,1.157594e-002
2.792465e+003,1.161773e-002
2.794393e+003,1.161844e-002
2.796322e+003,1.164778e-002
2.798250e+003,1.165534e-002
2.800178e+003,1.167140e-002
2.802107e+003,1.168631e-002
2.804036e+003,1.169649e-002
2.805964e+003,1.175037e-002
2.807893e+003,1.178016e-002
2.809821e+003,1.177615e-002
2.811750e+003,1.179140e-002
2.813678e+003,1.185333e-002
2.815606e+003,1.190285e-002
2.817535e+003,1.195901e-002
2.819464e+003,1.197774e-002
2.821392e+003,1.199221e-002
2.823321e+003,1.203149e-002
2.825249e+003,1.210562e-002
2.827177e+003,1.215049e-002
2.829106e+003,1.223388e-002
2.831034e+003,1.222359e-002
2.832963e+003,1.223712e-002
2.834892e+003,1.233525e-002
2.836820e+003,1.245376e-002
2.838749e+003,1.253932e-002
2.840677e+003,1.267968e-002
2.842605e+003,1.280081e-002
2.844534e+003,1.282797e-002
2.846462e+003,1.285046e-002
2.848391e+003,1.290446e-002
2.850320e+003,1.297096e-002
2.852248e+003,1.300346e-002
2.854177e+003,1.301346e-002
2.856105e+003,1.308704e-002
2.858033e+003,1.317105e-002
2.859962e+003,1.324029e-002
2.861890e+003,1.331774e-002
2.863819e+003,1.337876e-002
2.865748e+003,1.347489e-002
2.867676e+003,1.349585e-002
2.869604e+003,1.353170e-002
2.871533e+003,1.358021e-002
2.873461e+003,1.363501e-002
2.875390e+003,1.366391e-002
2.877319e+003,1.371209e-002
2.879247e+003,1.369119e-002
2.881176e+003,1.368955e-002
2.883104e+003,1.374105e-002
2.885032e+003,1.375189e-002
2.886961e+003,1.373654e-002
2.888889e+003,1.374003e-002
2.890818e+003,1.379646e-002
2.892747e+003,1.381178e-002
2.894675e+003,1.380693e-002
2.896604e+003,1.377833e-002
2.898532e+003,1.379697e-002
2.900460e+003,1.379458e-002
2.902389e+003,1.372806e-002
2.904317e+003,1.368405e-002
2.906246e+003,1.363539e-002
2.908175e+003,1.355348e-002
2.910103e+003,1.352746e-002
2.912031e+003,1.350993e-002
2.913960e+003,1.344031e-002
2.915888e+003,1.336345e-002
2.917817e+003,1.328077e-002
2.919745e+003,1.321272e-002
2.921674e+003,1.313775e-002
2.923603e+003,1.308281e-002
2.925531e+003,1.300803e-002
2.927459e+003,1.298273e-002
2.929388e+003,1.299857e-002
2.931316e+003,1.291879e-002
2.933245e+003,1.285142e-002
2.935173e+003,1.283754e-002
2.937102e+003,1.278956e-002
2.939031e+003,1.281331e-002
2.940959e+003,1.274854e-002
2.942887e+003,1.265034e-002
2.944816e+003,1.252540e-002
2.946744e+003,1.251595e-002
2.948673e+003,1.246875e-002
2.950601e+003,1.231577e-002
2.952530e+003,1.221841e-002
2.954458e+003,1.217371e-002
2.956387e+003,1.214223e-002
2.958315e+003,1.204041e-002
2.960244e+003,1.191967e-002
2.962172e+003,1.191391e-002
2.964101e+003,1.191530e-002
2.966029e+003,1.186602e-002
2.967958e+003,1.185234e-002
2.969886e+003,1.182925e-002
2.971815e+003,1.174214e-002
2.973743e+003,1.162836e-002
2.975672e+003,1.157098e-002
2.977600e+003,1.153124e-002
2.979529e+003,1.154146e-002
2.981457e+003,1.153246e-002
2.983386e+003,1.148839e-002
2.985314e+003,1.146567e-002
2.987243e+003,1.147051e-002
2.989171e+003,1.151670e-002
2.991100e+003,1.148303e-002
2.993028e+003,1.146881e-002
2.994957e+003,1.141619e-002
2.996885e+003,1.148053e-002
2.998814e+003,1.154944e-002
3.000742e+003,1.151710e-002
3.002671e+003,1.147169e-002
3.004599e+003,1.144925e-002
3.006528e+003,1.151200e-002
3.008456e+003,1.156105e-002
3.010385e+003,1.155974e-002
3.012313e+003,1.150684e-002
3.014242e+003,1.152727e-002
3.016170e+003,1.160677e-002
3.018099e+003,1.158934e-002
3.020027e+003,1.156675e-002
3.021956e+003,1.160166e-002
3.023884e+003,1.158879e-002
3.025813e+003,1.156103e-002
3.027741e+003,1.160666e-002
3.029670e+003,1.169926e-002
3.031598e+003,1.174932e-002
3.033527e+003,1.173137e-002
3.035455e+003,1.174613e-002
3.037384e+003,1.181469e-002
3.039312e+003,1.178354e-002
3.041241e+003,1.183997e-002
3.043169e+003,1.185734e-002
3.045098e+003,1.188132e-002
3.047026e+003,1.193978e-002
3.048955e+003,1.199003e-002
3.050883e+003,1.198888e-002
3.052812e+003,1.203799e-002
3.054740e+003,1.208982e-002
3.056669e+003,1.207575e-002
3.058597e+003,1.207031e-002
3.060526e+003,1.213757e-002
3.062454e+003,1.218903e-002
3.064383e+003,1.224069e-002
3.066311e+003,1.223373e-002
3.068240e+003,1.226977e-002
3.070168e+003,1.229716e-002
3.072097e+003,1.231409e-002
3.074025e+003,1.237928e-002
3.075954e+003,1.245543e-002
3.077882e+003,1.246846e-002
3.079811e+003,1.250784e-002
3.081739e+003,1.248350e-002
3.083668e+003,1.253437e-002
3.085596e+003,1.262915e-002
3.087525e+003,1.262940e-002
3.089453e+003,1.268956e-002
3.091382e+003,1.275165e-002
3.093310e+003,1.278594e-002
3.095239e+003,1.278270e-002
3.097167e+003,1.285653e-002
3.099096e+003,1.279820e-002
3.101024e+003,1.273014e-002
3.102953e+003,1.281717e-002
3.104881e+003,1.293610e-002
3.106810e+003,1.298719e-002
3.108738e+003,1.296084e-002
3.110667e+003,1.297515e-002
3.112595e+003,1.303982e-002
3.114524e+003,1.312746e-002
3.116452e+003,1.317336e-002
3.118381e+003,1.322998e-002
3.120309e+003,1.325014e-002
3.122238e+003,1.322079e-002
3.124166e+003,1.333443e-002
3.126095e+003,1.338259e-002
3.128023e+003,1.341118e-002
3.129952e+003,1.348241e-002
3.131880e+003,1.354398e-002
3.133809e+003,1.362258e-002
3.135737e+003,1.372540e-002
3.137666e+003,1.371008e-002
3.139594e+003,1.372241e-002
3.141523e+003,1.373757e-002
3.143451e+003,1.377046e-002
3.145380e+003,1.385857e-002
3.147308e+003,1.388094e-002
3.149237e+003,1.388380e-002
3.151165e+003,1.400507e-002
3.153094e+003,1.407538e-002
3.155022e+003,1.412878e-002
3.156951e+003,1.419397e-002
3.158879e+003,1.428403e-002
3.160808e+003,1.433947e-002
3.162736e+003,1.437058e-002
3.164665e+003,1.441525e-002
3.166593e+003,1.451264e-002
3.168522e+003,1.452886e-002
3.170450e+003,1.450977e-002
3.172379e+003,1.457427e-002
3.174307e+003,1.470340e-002
3.176236e+003,1.480475e-002
3.178164e+003,1.485157e-002
3.180093e+003,1.483126e-002
3.182021e+003,1.492807e-002
3.183950e+003,1.505070e-002
3.185878e+003,1.508615e-002
3.187807e+003,1.504881e-002
3.189735e+003,1.512856e-002
3.191664e+003,1.522417e-002
3.193592e+003,1.527928e-002
3.195521e+003,1.540043e-002
3.197449e+003,1.547865e-002
3.199378e+003,1.554783e-002
3.201306e+003,1.567247e-002
3.203235e+003,1.564677e-002
3.205163e+003,1.570066e-002
3.207092e+003,1.584622e-002
3.209020e+003,1.596492e-002
3.210948e+003,1.601238e-002
3.212877e+003,1.608456e-002
3.214806e+003,1.618530e-002
3.216734e+003,1.628270e-002
3.218663e+003,1.634248e-002
3.220591e+003,1.638960e-002
3.222520e+003,1.642227e-002
3.224448e+003,1.644673e-002
3.226376e+003,1.653928e-002
3.228305e+003,1.664857e-002
3.230234e+003,1.679475e-002
3.232162e+003,1.695695e-002
3.234091e+003,1.705719e-002
3.236019e+003,1.703937e-002
3.237948e+003,1.700242e-002
3.239876e+003,1.713864e-002
3.241804e+003,1.730802e-002
3.243733e+003,1.737195e-002
3.245662e+003,1.742815e-002
3.247590e+003,1.759065e-002
3.249519e+003,1.772484e-002
3.251447e+003,1.775575e-002
3.253375e+003,1.778865e-002
3.255304e+003,1.789436e-002
3.257232e+003,1.798187e-002
3.259161e+003,1.805873e-002
3.261090e+003,1.816304e-002
3.263018e+003,1.818895e-002
3.264947e+003,1.828137e-002
3.266875e+003,1.834757e-002
3.268803e+003,1.843939e-002
3.270732e+003,1.853330e-002
3.272660e+003,1.862301e-002
3.274589e+003,1.868656e-002
3.276518e+003,1.869545e-002
3.278446e+003,1.872312e-002
3.280375e+003,1.881055e-002
3.282303e+003,1.882475e-002
3.284231e+003,1.884098e-002
3.286160e+003,1.888116e-002
3.288088e+003,1.892864e-002
3.290017e+003,1.904248e-002
3.291946e+003,1.899217e-002
3.293874e+003,1.899523e-002
3.295802e+003,1.905945e-002
3.297731e+003,1.907487e-002
3.299659e+003,1.919860e-002
3.301588e+003,1.925097e-002
3.303516e+003,1.924913e-002
3.305445e+003,1.923589e-002
3.307374e+003,1.927881e-002
3.309302e+003,1.933002e-002
3.311230e+003,1.929229e-002
3.313159e+003,1.927748e-002
3.315087e+003,1.936902e-002
3.317016e+003,1.948902e-002
3.318944e+003,1.952140e-002
3.320873e+003,1.950628e-002
3.322802e+003,1.958246e-002
3.324730e+003,1.964627e-002
3.326658e+003,1.960987e-002
3.328587e+003,1.954429e-002
3.330515e+003,1.957625e-002
3.332444e+003,1.960777e-002
3.334372e+003,1.959212e-002
3.336301e+003,1.961922e-002
3.338229e+003,1.957618e-002
3.340158e+003,1.948119e-002
3.342086e+003,1.946164e-002
3.344015e+003,1.956777e-002
3.345943e+003,1.952908e-002
3.347872e+003,1.948674e-002
3.349800e+003,1.945075e-002
3.351729e+003,1.936288e-002
3.353657e+003,1.925129e-002
3.355586e+003,1.914843e-002
3.357514e+003,1.907960e-002
3.359443e+003,1.904810e-002
3.361371e+003,1.905393e-002
3.363300e+003,1.906674e-002
3.365229e+003,1.901492e-002
3.367157e+003,1.893588e-002
3.369085e+003,1.885580e-002
3.371014e+003,1.881381e-002
3.372942e+003,1.872718e-002
3.374871e+003,1.865147e-002
3.376799e+003,1.859934e-002
3.378728e+003,1.857663e-002
3.380656e+003,1.850770e-002
3.382585e+003,1.853135e-002
3.384513e+003,1.850327e-002
3.386442e+003,1.834387e-002
3.388370e+003,1.827436e-002
3.390299e+003,1.822720e-002
3.392227e+003,1.813723e-002
3.394156e+003,1.806448e-002
3.396084e+003,1.807226e-002
3.398013e+003,1.802282e-002
3.399941e+003,1.796428e-002
3.401870e+003,1.789924e-002
3.403798e+003,1.774928e-002
3.405727e+003,1.767807e-002
3.407655e+003,1.764015e-002
3.409584e+003,1.756596e-002
3.411512e+003,1.753061e-002
3.413441e+003,1.740908e-002
3.415369e+003,1.733509e-002
3.417298e+003,1.730298e-002
3.419226e+003,1.716675e-002
3.421155e+003,1.698578e-002
3.423083e+003,1.684390e-002
3.425012e+003,1.672063e-002
3.426940e+003,1.662266e-002
3.428869e+003,1.654648e-002
3.430797e+003,1.651049e-002
3.432726e+003,1.650291e-002
3.434654e+003,1.638558e-002
3.436583e+003,1.621982e-002
3.438511e+003,1.603257e-002
3.440440e+003,1.590758e-002
3.442368e+003,1.583874e-002
3.444297e+003,1.571861e-002
3.446225e+003,1.557225e-002
3.448154e+003,1.538167e-002
3.450082e+003,1.526663e-002
3.452011e+003,1.523202e-002
3.453939e+003,1.513405e-002
3.455868e+003,1.504593e-002
3.457796e+003,1.492801e-002
3.459725e+003,1.473317e-002
3.461653e+003,1.456313e-002
3.463582e+003,1.444697e-002
3.465510e+003,1.437197e-002
3.467439e+003,1.431530e-002
3.469367e+003,1.423907e-002
3.471296e+003,1.403789e-002
3.473224e+003,1.391509e-002
3.475153e+003,1.388886e-002
3.477081e+003,1.373292e-002
3.479010e+003,1.361414e-002
3.480938e+003,1.352039e-002
3.482867e+003,1.344389e-002
3.484795e+003,1.335545e-002
3.486724e+003,1.330080e-002
3.488652e+003,1.313293e-002
3.490581e+003,1.299213e-002
3.492509e+003,1.294472e-002
3.494438e+003,1.291137e-002
3.496366e+003,1.278801e-002
3.498295e+003,1.262805e-002
3.500223e+003,1.257464e-002
3.502152e+003,1.252147e-002
3.504080e+003,1.240899e-002
3.506009e+003,1.236979e-002
3.507937e+003,1.223588e-002
3.509866e+003,1.208362e-002
3.511794e+003,1.209280e-002
3.513723e+003,1.205944e-002
3.515651e+003,1.186162e-002
3.517580e+003,1.178741e-002
3.519508e+003,1.170567e-002
3.521437e+003,1.155962e-002
3.523365e+003,1.144974e-002
3.525294e+003,1.144584e-002
3.527222e+003,1.142881e-002
3.529151e+003,1.141726e-002
3.531079e+003,1.134857e-002
3.533008e+003,1.123701e-002
3.534936e+003,1.108572e-002
3.536865e+003,1.099445e-002
3.538793e+003,1.089025e-002
3.540722e+003,1.092788e-002
3.542650e+003,1.091400e-002
3.544579e+003,1.072598e-002
3.546507e+003,1.069894e-002
3.548436e+003,1.062562e-002
3.550364e+003,1.050238e-002
3.552293e+003,1.052828e-002
3.554221e+003,1.057993e-002
3.556150e+003,1.056630e-002
3.558078e+003,1.037940e-002
3.560007e+003,1.024190e-002
3.561935e+003,1.013344e-002
3.563864e+003,1.012410e-002
3.565792e+003,1.008187e-002
3.567721e+003,9.983132e-003
3.569649e+003,9.937285e-003
3.571578e+003,1.003729e-002
3.573506e+003,1.007156e-002
3.575435e+003,9.896732e-003
3.577363e+003,9.693244e-003
3.579292e+003,9.577112e-003
3.581220e+003,9.532030e-003
3.583149e+003,9.605310e-003
3.585077e+003,9.615580e-003
3.587006e+003,9.583164e-003
3.588934e+003,9.676806e-003
3.590863e+003,9.598291e-003
3.592791e+003,9.532701e-003
3.594720e+003,9.533803e-003
3.596648e+003,9.543592e-003
3.598577e+003,9.618292e-003
3.600505e+003,9.510373e-003
3.602434e+003,9.451746e-003
3.604362e+003,9.344643e-003
3.606291e+003,9.082209e-003
3.608219e+003,9.061420e-003
3.610148e+003,9.060376e-003
3.612076e+003,8.997000e-003
3.614005e+003,8.987952e-003
3.615933e+003,9.018997e-003
3.617862e+003,9.095566e-003
3.619790e+003,9.162284e-003
3.621719e+003,9.159096e-003
3.623647e+003,9.125769e-003
3.625576e+003,9.154934e-003
3.627504e+003,9.119236e-003
3.629433e+003,9.038250e-003
3.631361e+003,8.953245e-003
3.633290e+003,8.853579e-003
3.635218e+003,8.683183e-003
3.637146e+003,8.567689e-003
3.639075e+003,8.528866e-003
3.641004e+003,8.534284e-003
3.642932e+003,8.459620e-003
3.644861e+003,8.407294e-003
3.646789e+003,8.287218e-003
3.648718e+003,8.163539e-003
3.650646e+003,8.201601e-003
3.652574e+003,8.133333e-003
3.654503e+003,8.100375e-003
3.656432e+003,8.101232e-003
3.658360e+003,8.130454e-003
3.660289e+003,8.179971e-003
3.662217e+003,8.103345e-003
3.664146e+003,8.043671e-003
3.666074e+003,8.084176e-003
3.668002e+003,8.150196e-003
3.669931e+003,8.121099e-003
3.671860e+003,8.074459e-003
3.673788e+003,8.090473e-003
3.675717e+003,8.187891e-003
3.677645e+003,8.155606e-003
3.679573e+003,8.177656e-003
3.681502e+003,8.251007e-003
3.683430e+003,8.194335e-003
3.685359e+003,8.135069e-003
3.687288e+003,8.338418e-003
3.689216e+003,8.438151e-003
3.691145e+003,8.502631e-003
3.693073e+003,8.607150e-003
3.695001e+003,8.684581e-003
3.696930e+003,8.686415e-003
3.698858e+003,8.666518e-003
3.700787e+003,8.700423e-003
3.702716e+003,8.832682e-003
3.704644e+003,8.866981e-003
3.706573e+003,8.668515e-003
3.708501e+003,8.550154e-003
3.710429e+003,8.506631e-003
3.712358e+003,8.406457e-003
3.714286e+003,8.240805e-003
3.716215e+003,8.264746e-003
3.718144e+003,8.339920e-003
3.720072e+003,8.482543e-003
3.722000e+003,8.678875e-003
3.723929e+003,8.865975e-003
3.725857e+003,8.979842e-003
3.727786e+003,9.037791e-003
3.729714e+003,8.939139e-003
3.731643e+003,8.844419e-003
3.733572e+003,8.796857e-003
3.735500e+003,8.673664e-003
3.737428e+003,8.535128e-003
3.739357e+003,8.466950e-003
3.741285e+003,8.239470e-003
3.743214e+003,8.054904e-003
3.745142e+003,8.036116e-003
3.747071e+003,7.988933e-003
3.749000e+003,8.014514e-003
3.750928e+003,7.948085e-003
3.752856e+003,7.915629e-003
3.754785e+003,7.984753e-003
3.756713e+003,8.051436e-003
3.758642e+003,8.084701e-003
3.760570e+003,8.063625e-003
3.762499e+003,7.989989e-003
3.764427e+003,8.003477e-003
3.766356e+003,8.006238e-003
3.768284e+003,7.966557e-003
3.770213e+003,7.853115e-003
3.772141e+003,7.908213e-003
3.774070e+003,8.009867e-003
3.775998e+003,8.060440e-003
3.777927e+003,8.026550e-003
3.779855e+003,8.095800e-003
3.781784e+003,8.081911e-003
3.783712e+003,8.112363e-003
3.785641e+003,8.174474e-003
3.787569e+003,8.154243e-003
3.789498e+003,8.087695e-003
3.791426e+003,8.020543e-003
3.793355e+003,8.030274e-003
3.795283e+003,8.007484e-003
3.797212e+003,8.040594e-003
3.799140e+003,8.119391e-003
3.801069e+003,8.065687e-003
3.802997e+003,8.082784e-003
3.804926e+003,8.112862e-003
3.806854e+003,8.096827e-003
3.808783e+003,8.202759e-003
3.810711e+003,8.162941e-003
3.812640e+003,8.128754e-003
3.814568e+003,8.121580e-003
3.816497e+003,8.159859e-003
3.818425e+003,8.119380e-003
3.820354e+003,8.023581e-003
3.822282e+003,8.038342e-003
3.824211e+003,8.121118e-003
3.826139e+003,8.083208e-003
3.828068e+003,8.028319e-003
3.829996e+003,8.039763e-003
3.831925e+003,7.976698e-003
3.833853e+003,7.930995e-003
3.835782e+003,8.022877e-003
3.837710e+003,8.065199e-003
3.839639e+003,7.949567e-003
3.841567e+003,7.962475e-003
3.843496e+003,8.036201e-003
3.845424e+003,8.050925e-003
3.847353e+003,8.072099e-003
3.849281e+003,8.126174e-003
3.851210e+003,8.141321e-003
3.853138e+003,8.146956e-003
3.855067e+003,8.105707e-003
3.856995e+003,8.025280e-003
3.858924e+003,8.058080e-003
3.860852e+003,8.052123e-003
3.862781e+003,8.053292e-003
3.864709e+003,8.115761e-003
3.866638e+003,8.220507e-003
3.868566e+003,8.242102e-003
3.870495e+003,8.202158e-003
3.872423e+003,8.145479e-003
3.874352e+003,8.139317e-003
3.876280e+003,8.131613e-003
3.878209e+003,8.087681e-003
3.880137e+003,8.062796e-003
3.882066e+003,8.083042e-003
3.883994e+003,8.077432e-003
3.885923e+003,8.107662e-003
3.887851e+003,8.121396e-003
3.889780e+003,8.115675e-003
3.891708e+003,8.226425e-003
3.893637e+003,8.175052e-003
3.895565e+003,8.092884e-003
3.897494e+003,8.155575e-003
3.899422e+003,8.196738e-003
3.901351e+003,8.230887e-003
3.903279e+003,8.198634e-003
3.905208e+003,8.170312e-003
3.907136e+003,8.233242e-003
3.909065e+003,8.258764e-003
3.910993e+003,8.276146e-003
3.912922e+003,8.253695e-003
3.914850e+003,8.194439e-003
3.916779e+003,8.205243e-003
3.918707e+003,8.214038e-003
3.920636e+003,8.278945e-003
3.922564e+003,8.304302e-003
3.924493e+003,8.262627e-003
3.926421e+003,8.191367e-003
3.928350e+003,8.168537e-003
3.930278e+003,8.219083e-003
3.932207e+003,8.212375e-003
3.934135e+003,8.167786e-003
3.936064e+003,8.140081e-003
3.937992e+003,8.146804e-003
3.939921e+003,8.207751e-003
3.941849e+003,8.127840e-003
3.943778e+003,8.209254e-003
3.945706e+003,8.268314e-003
3.947635e+003,8.237024e-003
3.949563e+003,8.269251e-003
3.951492e+003,8.223868e-003
3.953420e+003,8.168408e-003
3.955349e+003,8.204293e-003
3.957277e+003,8.212077e-003
3.959206e+003,8.189314e-003
3.961134e+003,8.180893e-003
3.963063e+003,8.153600e-003
3.964991e+003,8.188936e-003
3.966920e+003,8.151880e-003
3.968848e+003,8.135234e-003
3.970777e+003,8.207929e-003
3.972705e+003,8.193561e-003
3.974634e+003,8.223846e-003
3.976562e+003,8.286394e-003
3.978491e+003,8.210598e-003
3.980419e+003,8.205946e-003
3.982348e+003,8.187171e-003
3.984276e+003,8.194489e-003
3.986205e+003,8.169865e-003
3.988133e+003,8.136503e-003
3.990062e+003,8.082330e-003
3.991990e+003,8.075652e-003
3.993919e+003,8.128812e-003
3.995847e+003,8.185995e-003
3.997776e+003,8.208588e-003
3.999704e+003,8.208647e-003
4.001633e+003,0.000000e+000
