3.991989e+002,3.597644e-002
4.011274e+002,3.948976e-002
4.030559e+002,3.948976e-002
4.049844e+002,4.201476e-002
4.069129e+002,4.089944e-002
4.088414e+002,4.212504e-002
4.107699e+002,4.564697e-002
4.126984e+002,4.843175e-002
4.146269e+002,4.979677e-002
4.165554e+002,5.095764e-002
4.184839e+002,5.174530e-002
4.204124e+002,5.315422e-002
4.223409e+002,5.351560e-002
4.242694e+002,5.366674e-002
4.261979e+002,5.442299e-002
4.281264e+002,5.505385e-002
4.300549e+002,5.603223e-002
4.319834e+002,5.703570e-002
4.339119e+002,5.750503e-002
4.358404e+002,5.841719e-002
4.377689e+002,5.790972e-002
4.396974e+002,5.822901e-002
4.416259e+002,5.898392e-002
4.435544e+002,5.877812e-002
4.454829e+002,5.878578e-002
4.474114e+002,5.905715e-002
4.493399e+002,5.849367e-002
4.512684e+002,5.845388e-002
4.531969e+002,5.826556e-002
4.551254e+002,5.819582e-002
4.570539e+002,5.912775e-002
4.589824e+002,5.954231e-002
4.609109e+002,5.970824e-002
4.628394e+002,5.996401e-002
4.647679e+002,5.926550e-002
4.666964e+002,5.860534e-002
4.686249e+002,5.862485e-002
4.705533e+002,5.893590e-002
4.724819e+002,5.894692e-002
4.744103e+002,5.929740e-002
4.763389e+002,5.908442e-002
4.782673e+002,5.889218e-002
4.801959e+002,5.869197e-002
4.821243e+002,5.780420e-002
4.840529e+002,5.720997e-002
4.859813e+002,5.746178e-002
4.879099e+002,5.744260e-002
4.898383e+002,5.689787e-002
4.917668e+002,5.700401e-002
4.936953e+002,5.704051e-002
4.956238e+002,5.660821e-002
4.975523e+002,5.648113e-002
4.994808e+002,5.674870e-002
5.014093e+002,5.685589e-002
5.033378e+002,5.648114e-002
5.052663e+002,5.643346e-002
5.071948e+002,5.742379e-002
5.091233e+002,5.776656e-002
5.110518e+002,5.755132e-002
5.129803e+002,5.804702e-002
5.149088e+002,5.881779e-002
5.168373e+002,5.922612e-002
5.187658e+002,5.950990e-002
5.206943e+002,5.991846e-002
5.226228e+002,5.988747e-002
5.245513e+002,5.986170e-002
5.264798e+002,5.994795e-002
5.284083e+002,5.998253e-002
5.303368e+002,6.001902e-002
5.322653e+002,5.956177e-002
5.341938e+002,5.914821e-002
5.361223e+002,5.918562e-002
5.380508e+002,5.908910e-002
5.399792e+002,5.904157e-002
5.419078e+002,5.897727e-002
5.438363e+002,5.888367e-002
5.457648e+002,5.895879e-002
5.476932e+002,5.930077e-002
5.496218e+002,5.979085e-002
5.515503e+002,6.017717e-002
5.534788e+002,6.059274e-002
5.554072e+002,6.134107e-002
5.573358e+002,6.216875e-002
5.592643e+002,6.263270e-002
5.611927e+002,6.197099e-002
5.631212e+002,6.121936e-002
5.650497e+002,6.055693e-002
5.669783e+002,6.004543e-002
5.689067e+002,5.965748e-002
5.708352e+002,5.900087e-002
5.727637e+002,5.892052e-002
5.746923e+002,5.895475e-002
5.766207e+002,5.875394e-002
5.785492e+002,5.855924e-002
5.804777e+002,5.838783e-002
5.824063e+002,5.811777e-002
5.843347e+002,5.820189e-002
5.862632e+002,5.825066e-002
5.881917e+002,5.794714e-002
5.901202e+002,5.788480e-002
5.920487e+002,5.784430e-002
5.939772e+002,5.784647e-002
5.959057e+002,5.781819e-002
5.978342e+002,5.731311e-002
5.997627e+002,5.679325e-002
6.016912e+002,5.647909e-002
6.036197e+002,5.637342e-002
6.055482e+002,5.611423e-002
6.074767e+002,5.591708e-002
6.094052e+002,5.603801e-002
6.113337e+002,5.584106e-002
6.132622e+002,5.528466e-002
6.151907e+002,5.478229e-002
6.171192e+002,5.443343e-002
6.190477e+002,5.421898e-002
6.209762e+002,5.356752e-002
6.229047e+002,5.236500e-002
6.248332e+002,5.118318e-002
6.267617e+002,5.045513e-002
6.286902e+002,4.995552e-002
6.306187e+002,4.945184e-002
6.325472e+002,4.901885e-002
6.344756e+002,4.856268e-002
6.364042e+002,4.818025e-002
6.383326e+002,4.789789e-002
6.402612e+002,4.766710e-002
6.421896e+002,4.752379e-002
6.441182e+002,4.726736e-002
6.460466e+002,4.696783e-002
6.479752e+002,4.677751e-002
6.499036e+002,4.673096e-002
6.518322e+002,4.666754e-002
6.537606e+002,4.662961e-002
6.556891e+002,4.673336e-002
6.576177e+002,4.675266e-002
6.595461e+002,4.686427e-002
6.614746e+002,4.704323e-002
6.634031e+002,4.710579e-002
6.653317e+002,4.697997e-002
6.672601e+002,4.656928e-002
6.691886e+002,4.622378e-002
6.711171e+002,4.577537e-002
6.730457e+002,4.483254e-002
6.749741e+002,4.372554e-002
6.769026e+002,4.252730e-002
6.788311e+002,4.145893e-002
6.807596e+002,4.045268e-002
6.826881e+002,3.972129e-002
6.846166e+002,3.905773e-002
6.865451e+002,3.872618e-002
6.884736e+002,3.832024e-002
6.904021e+002,3.817867e-002
6.923306e+002,3.784824e-002
6.942591e+002,3.764489e-002
6.961876e+002,3.741069e-002
6.981161e+002,3.730678e-002
7.000446e+002,3.715472e-002
7.019731e+002,3.695541e-002
7.039016e+002,3.672793e-002
7.058301e+002,3.655359e-002
7.077585e+002,3.621716e-002
7.096871e+002,3.599000e-002
7.116156e+002,3.579718e-002
7.135441e+002,3.570209e-002
7.154725e+002,3.544381e-002
7.174011e+002,3.513786e-002
7.193296e+002,3.473268e-002
7.212581e+002,3.443847e-002
7.231865e+002,3.420297e-002
7.251151e+002,3.401991e-002
7.270436e+002,3.380622e-002
7.289720e+002,3.353195e-002
7.309005e+002,3.301414e-002
7.328290e+002,3.271335e-002
7.347576e+002,3.247100e-002
7.366860e+002,3.231357e-002
7.386145e+002,3.206551e-002
7.405430e+002,3.187448e-002
7.424716e+002,3.168182e-002
7.444000e+002,3.141849e-002
7.463285e+002,3.116232e-002
7.482570e+002,3.112765e-002
7.501855e+002,3.089725e-002
7.521140e+002,3.061119e-002
7.540425e+002,3.032676e-002
7.559710e+002,3.006357e-002
7.578995e+002,2.989597e-002
7.598280e+002,2.967678e-002
7.617565e+002,2.931822e-002
7.636850e+002,2.905899e-002
7.656135e+002,2.887035e-002
7.675420e+002,2.870642e-002
7.694705e+002,2.845761e-002
7.713990e+002,2.840430e-002
7.733275e+002,2.831683e-002
7.752560e+002,2.823638e-002
7.771844e+002,2.814269e-002
7.791130e+002,2.820607e-002
7.810415e+002,2.821149e-002
7.829700e+002,2.817051e-002
7.848984e+002,2.806923e-002
7.868270e+002,2.793977e-002
7.887555e+002,2.782484e-002
7.906840e+002,2.786006e-002
7.926124e+002,2.780513e-002
7.945410e+002,2.759595e-002
7.964695e+002,2.740441e-002
7.983979e+002,2.737692e-002
8.003264e+002,2.744140e-002
8.022549e+002,2.747324e-002
8.041835e+002,2.739912e-002
8.061119e+002,2.742309e-002
8.080404e+002,2.749985e-002
8.099689e+002,2.741267e-002
8.118975e+002,2.736821e-002
8.138259e+002,2.745097e-002
8.157545e+002,2.742259e-002
8.176830e+002,2.741603e-002
8.196115e+002,2.750102e-002
8.215399e+002,2.756859e-002
8.234684e+002,2.759768e-002
8.253970e+002,2.766767e-002
8.273254e+002,2.777108e-002
8.292539e+002,2.794794e-002
8.311824e+002,2.803749e-002
8.331110e+002,2.817726e-002
8.350394e+002,2.820844e-002
8.369679e+002,2.815195e-002
8.388964e+002,2.789154e-002
8.408250e+002,2.753085e-002
8.427534e+002,2.723127e-002
8.446819e+002,2.701902e-002
8.466104e+002,2.693602e-002
8.485389e+002,2.680007e-002
8.504674e+002,2.672839e-002
8.523959e+002,2.678587e-002
8.543244e+002,2.668847e-002
8.562529e+002,2.669611e-002
8.581814e+002,2.677751e-002
8.601099e+002,2.688547e-002
8.620384e+002,2.693091e-002
8.639669e+002,2.694230e-002
8.658954e+002,2.698866e-002
8.678239e+002,2.717278e-002
8.697524e+002,2.735240e-002
8.716809e+002,2.751743e-002
8.736094e+002,2.763116e-002
8.755378e+002,2.790076e-002
8.774664e+002,2.823677e-002
8.793949e+002,2.862056e-002
8.813234e+002,2.896512e-002
8.832518e+002,2.949092e-002
8.851804e+002,3.012449e-002
8.871089e+002,3.079170e-002
8.890374e+002,3.158062e-002
8.909658e+002,3.247179e-002
8.928943e+002,3.331331e-002
8.948229e+002,3.397251e-002
8.967513e+002,3.411224e-002
8.986798e+002,3.397316e-002
9.006083e+002,3.350239e-002
9.025369e+002,3.292636e-002
9.044653e+002,3.232960e-002
9.063938e+002,3.171697e-002
9.083223e+002,3.125284e-002
9.102509e+002,3.099239e-002
9.121793e+002,3.077047e-002
9.141078e+002,3.064767e-002
9.160364e+002,3.058997e-002
9.179648e+002,3.075432e-002
9.198933e+002,3.096990e-002
9.218218e+002,3.115408e-002
9.237504e+002,3.140206e-002
9.256788e+002,3.170332e-002
9.276073e+002,3.207274e-002
9.295358e+002,3.245126e-002
9.314644e+002,3.275550e-002
9.333928e+002,3.322714e-002
9.353213e+002,3.374570e-002
9.372498e+002,3.430855e-002
9.391783e+002,3.496427e-002
9.411068e+002,3.576412e-002
9.430353e+002,3.658992e-002
9.449637e+002,3.746414e-002
9.468923e+002,3.854994e-002
9.488208e+002,3.956064e-002
9.507493e+002,4.056064e-002
9.526777e+002,4.171873e-002
9.546063e+002,4.296200e-002
9.565348e+002,4.414337e-002
9.584633e+002,4.538394e-002
9.603917e+002,4.669100e-002
9.623203e+002,4.794268e-002
9.642488e+002,4.919391e-002
9.661772e+002,5.044912e-002
9.681057e+002,5.160963e-002
9.700343e+002,5.277153e-002
9.719628e+002,5.393168e-002
9.738912e+002,5.527778e-002
9.758197e+002,5.691134e-002
9.777483e+002,5.876395e-002
9.796768e+002,6.080250e-002
9.816052e+002,6.299738e-002
9.835337e+002,6.531084e-002
9.854623e+002,6.752973e-002
9.873907e+002,6.929182e-002
9.893192e+002,7.048535e-002
9.912477e+002,7.135633e-002
9.931763e+002,7.187551e-002
9.951047e+002,7.216237e-002
9.970332e+002,7.260172e-002
9.989617e+002,7.347193e-002
1.000890e+003,7.468662e-002
1.002819e+003,7.600307e-002
1.004747e+003,7.713266e-002
1.006676e+003,7.818311e-002
1.008604e+003,7.926999e-002
1.010533e+003,8.035425e-002
1.012461e+003,8.150902e-002
1.014390e+003,8.286162e-002
1.016318e+003,8.437391e-002
1.018247e+003,8.595496e-002
1.020175e+003,8.748212e-002
1.022104e+003,8.894124e-002
1.024032e+003,9.044484e-002
1.025961e+003,9.195139e-002
1.027889e+003,9.353335e-002
1.029818e+003,9.491137e-002
1.031746e+003,9.595254e-002
1.033675e+003,9.644158e-002
1.035603e+003,9.623072e-002
1.037532e+003,9.529133e-002
1.039460e+003,9.377819e-002
1.041389e+003,9.231822e-002
1.043317e+003,9.130166e-002
1.045246e+003,9.066991e-002
1.047174e+003,9.029491e-002
1.049103e+003,9.010923e-002
1.051031e+003,9.001366e-002
1.052960e+003,8.976486e-002
1.054888e+003,8.913716e-002
1.056817e+003,8.798999e-002
1.058745e+003,8.662232e-002
1.060674e+003,8.500652e-002
1.062602e+003,8.296950e-002
1.064531e+003,8.069019e-002
1.066459e+003,7.837722e-002
1.068388e+003,7.611148e-002
1.070316e+003,7.412485e-002
1.072245e+003,7.242509e-002
1.074173e+003,7.079256e-002
1.076102e+003,6.917768e-002
1.078030e+003,6.757893e-002
1.079959e+003,6.593856e-002
1.081887e+003,6.451881e-002
1.083816e+003,6.342355e-002
1.085744e+003,6.270344e-002
1.087673e+003,6.227663e-002
1.089601e+003,6.188630e-002
1.091530e+003,6.163034e-002
1.093458e+003,6.148015e-002
1.095387e+003,6.139965e-002
1.097315e+003,6.136824e-002
1.099244e+003,6.148137e-002
1.101172e+003,6.168220e-002
1.103101e+003,6.174564e-002
1.105029e+003,6.158284e-002
1.106958e+003,6.100588e-002
1.108886e+003,6.004683e-002
1.110815e+003,5.877632e-002
1.112743e+003,5.712364e-002
1.114672e+003,5.526016e-002
1.116600e+003,5.352134e-002
1.118529e+003,5.207976e-002
1.120457e+003,5.079272e-002
1.122386e+003,4.951650e-002
1.124314e+003,4.816960e-002
1.126243e+003,4.660522e-002
1.128171e+003,4.485211e-002
1.130100e+003,4.305708e-002
1.132028e+003,4.133147e-002
1.133957e+003,3.975674e-002
1.135885e+003,3.833682e-002
1.137814e+003,3.726628e-002
1.139742e+003,3.668033e-002
1.141671e+003,3.658022e-002
1.143599e+003,3.684344e-002
1.145528e+003,3.732257e-002
1.147456e+003,3.791807e-002
1.149385e+003,3.858206e-002
1.151313e+003,3.934235e-002
1.153242e+003,4.026233e-002
1.155170e+003,4.115801e-002
1.157099e+003,4.179986e-002
1.159027e+003,4.217710e-002
1.160956e+003,4.219510e-002
1.162884e+003,4.177079e-002
1.164813e+003,4.078198e-002
1.166741e+003,3.935834e-002
1.168670e+003,3.750264e-002
1.170598e+003,3.538368e-002
1.172526e+003,3.321687e-002
1.174455e+003,3.121460e-002
1.176384e+003,2.943759e-002
1.178312e+003,2.792698e-002
1.180240e+003,2.673551e-002
1.182169e+003,2.579680e-002
1.184098e+003,2.512625e-002
1.186026e+003,2.463774e-002
1.187954e+003,2.431230e-002
1.189883e+003,2.421569e-002
1.191812e+003,2.437248e-002
1.193740e+003,2.463755e-002
1.195668e+003,2.508555e-002
1.197597e+003,2.560026e-002
1.199526e+003,2.600298e-002
1.201454e+003,2.625265e-002
1.203382e+003,2.633954e-002
1.205311e+003,2.621745e-002
1.207240e+003,2.599983e-002
1.209168e+003,2.579283e-002
1.211096e+003,2.571307e-002
1.213025e+003,2.581733e-002
1.214953e+003,2.607375e-002
1.216882e+003,2.641874e-002
1.218810e+003,2.687033e-002
1.220739e+003,2.731329e-002
1.222667e+003,2.777379e-002
1.224596e+003,2.826375e-002
1.226524e+003,2.876859e-002
1.228453e+003,2.917405e-002
1.230381e+003,2.948716e-002
1.232310e+003,2.969713e-002
1.234238e+003,2.985373e-002
1.236167e+003,2.998621e-002
1.238095e+003,2.999092e-002
1.240024e+003,2.989630e-002
1.241952e+003,2.980891e-002
1.243881e+003,2.969592e-002
1.245809e+003,2.949376e-002
1.247738e+003,2.917382e-002
1.249666e+003,2.888446e-002
1.251595e+003,2.860034e-002
1.253523e+003,2.834538e-002
1.255452e+003,2.807121e-002
1.257380e+003,2.777660e-002
1.259309e+003,2.746974e-002
1.261237e+003,2.713002e-002
1.263166e+003,2.675641e-002
1.265094e+003,2.632678e-002
1.267023e+003,2.588419e-002
1.268951e+003,2.548078e-002
1.270880e+003,2.503657e-002
1.272808e+003,2.458450e-002
1.274737e+003,2.422861e-002
1.276665e+003,2.390224e-002
1.278594e+003,2.361558e-002
1.280522e+003,2.340485e-002
1.282451e+003,2.317937e-002
1.284379e+003,2.292766e-002
1.286308e+003,2.267612e-002
1.288236e+003,2.250712e-002
1.290165e+003,2.247370e-002
1.292093e+003,2.251031e-002
1.294022e+003,2.259777e-002
1.295950e+003,2.276967e-002
1.297879e+003,2.307901e-002
1.299807e+003,2.346806e-002
1.301736e+003,2.396663e-002
1.303664e+003,2.448362e-002
1.305593e+003,2.500115e-002
1.307521e+003,2.560190e-002
1.309450e+003,2.617884e-002
1.311378e+003,2.670644e-002
1.313307e+003,2.717063e-002
1.315235e+003,2.752050e-002
1.317164e+003,2.769790e-002
1.319092e+003,2.771417e-002
1.321021e+003,2.751354e-002
1.322949e+003,2.725398e-002
1.324878e+003,2.699377e-002
1.326806e+003,2.677647e-002
1.328735e+003,2.662580e-002
1.330663e+003,2.648147e-002
1.332592e+003,2.630446e-002
1.334520e+003,2.610333e-002
1.336449e+003,2.582278e-002
1.338377e+003,2.546145e-002
1.340306e+003,2.510370e-002
1.342234e+003,2.483365e-002
1.344163e+003,2.462165e-002
1.346091e+003,2.446189e-002
1.348020e+003,2.442397e-002
1.349948e+003,2.453878e-002
1.351877e+003,2.469835e-002
1.353805e+003,2.487201e-002
1.355734e+003,2.511982e-002
1.357662e+003,2.537247e-002
1.359591e+003,2.561814e-002
1.361519e+003,2.589338e-002
1.363448e+003,2.614822e-002
1.365376e+003,2.632460e-002
1.367305e+003,2.643409e-002
1.369233e+003,2.639414e-002
1.371162e+003,2.619301e-002
1.373090e+003,2.586287e-002
1.375019e+003,2.543071e-002
1.376947e+003,2.494654e-002
1.378876e+003,2.444355e-002
1.380804e+003,2.388621e-002
1.382733e+003,2.334812e-002
1.384661e+003,2.283066e-002
1.386590e+003,2.238969e-002
1.388518e+003,2.205565e-002
1.390447e+003,2.178851e-002
1.392375e+003,2.158937e-002
1.394304e+003,2.145532e-002
1.396232e+003,2.141087e-002
1.398161e+003,2.139310e-002
1.400089e+003,2.140617e-002
1.402018e+003,2.148076e-002
1.403946e+003,2.158989e-002
1.405875e+003,2.175899e-002
1.407803e+003,2.193482e-002
1.409732e+003,2.208092e-002
1.411660e+003,2.232612e-002
1.413589e+003,2.264960e-002
1.415517e+003,2.298594e-002
1.417446e+003,2.329286e-002
1.419374e+003,2.363145e-002
1.421303e+003,2.384433e-002
1.423231e+003,2.384135e-002
1.425160e+003,2.374058e-002
1.427088e+003,2.350173e-002
1.429017e+003,2.318263e-002
1.430945e+003,2.286033e-002
1.432874e+003,2.251081e-002
1.434802e+003,2.213966e-002
1.436731e+003,2.181770e-002
1.438659e+003,2.155905e-002
1.440588e+003,2.137768e-002
1.442516e+003,2.126723e-002
1.444445e+003,2.126652e-002
1.446373e+003,2.130047e-002
1.448302e+003,2.138192e-002
1.450230e+003,2.149387e-002
1.452159e+003,2.148685e-002
1.454087e+003,2.141709e-002
1.456016e+003,2.136050e-002
1.457944e+003,2.122731e-002
1.459873e+003,2.104339e-002
1.461801e+003,2.088596e-002
1.463730e+003,2.059789e-002
1.465658e+003,2.014244e-002
1.467587e+003,1.946062e-002
1.469515e+003,1.866171e-002
1.471444e+003,1.790565e-002
1.473372e+003,1.726035e-002
1.475301e+003,1.668288e-002
1.477229e+003,1.621508e-002
1.479158e+003,1.591806e-002
1.481086e+003,1.575270e-002
1.483015e+003,1.564144e-002
1.484943e+003,1.560263e-002
1.486872e+003,1.567797e-002
1.488800e+003,1.585068e-002
1.490729e+003,1.608213e-002
1.492657e+003,1.634767e-002
1.494586e+003,1.660382e-002
1.496514e+003,1.688557e-002
1.498443e+003,1.720097e-002
1.500371e+003,1.748060e-002
1.502300e+003,1.763444e-002
1.504228e+003,1.775353e-002
1.506157e+003,1.780047e-002
1.508085e+003,1.777204e-002
1.510014e+003,1.770771e-002
1.511942e+003,1.766586e-002
1.513871e+003,1.759186e-002
1.515799e+003,1.731106e-002
1.517728e+003,1.684220e-002
1.519656e+003,1.634309e-002
1.521585e+003,1.586591e-002
1.523513e+003,1.552599e-002
1.525442e+003,1.530090e-002
1.527370e+003,1.517884e-002
1.529299e+003,1.514565e-002
1.531227e+003,1.511023e-002
1.533156e+003,1.509613e-002
1.535084e+003,1.514207e-002
1.537013e+003,1.520520e-002
1.538941e+003,1.524899e-002
1.540870e+003,1.524725e-002
1.542798e+003,1.529136e-002
1.544727e+003,1.534458e-002
1.546655e+003,1.541902e-002
1.548584e+003,1.550274e-002
1.550512e+003,1.547566e-002
1.552441e+003,1.547333e-002
1.554369e+003,1.552251e-002
1.556298e+003,1.559460e-002
1.558226e+003,1.566948e-002
1.560155e+003,1.578639e-002
1.562083e+003,1.586184e-002
1.564012e+003,1.595710e-002
1.565940e+003,1.613629e-002
1.567869e+003,1.630536e-002
1.569797e+003,1.648909e-002
1.571726e+003,1.677415e-002
1.573654e+003,1.708108e-002
1.575583e+003,1.738131e-002
1.577511e+003,1.778893e-002
1.579440e+003,1.819500e-002
1.581368e+003,1.861651e-002
1.583297e+003,1.910710e-002
1.585225e+003,1.963545e-002
1.587154e+003,2.007073e-002
1.589082e+003,2.041253e-002
1.591010e+003,2.073979e-002
1.592939e+003,2.095921e-002
1.594868e+003,2.107533e-002
1.596796e+003,2.112371e-002
1.598724e+003,2.112175e-002
1.600653e+003,2.120615e-002
1.602582e+003,2.127296e-002
1.604510e+003,2.120666e-002
1.606438e+003,2.096965e-002
1.608367e+003,2.062832e-002
1.610296e+003,2.030172e-002
1.612224e+003,2.012365e-002
1.614152e+003,2.004196e-002
1.616081e+003,2.003673e-002
1.618010e+003,2.001637e-002
1.619938e+003,2.005343e-002
1.621866e+003,2.009637e-002
1.623795e+003,2.011783e-002
1.625724e+003,2.018843e-002
1.627652e+003,2.021673e-002
1.629580e+003,2.019293e-002
1.631509e+003,2.010074e-002
1.633438e+003,2.003207e-002
1.635366e+003,1.989598e-002
1.637294e+003,1.972473e-002
1.639223e+003,1.957594e-002
1.641151e+003,1.945186e-002
1.643080e+003,1.935174e-002
1.645008e+003,1.932227e-002
1.646937e+003,1.927407e-002
1.648865e+003,1.920057e-002
1.650794e+003,1.915138e-002
1.652722e+003,1.906979e-002
1.654651e+003,1.895246e-002
1.656579e+003,1.877079e-002
1.658508e+003,1.851809e-002
1.660436e+003,1.823971e-002
1.662365e+003,1.793664e-002
1.664293e+003,1.765689e-002
1.666222e+003,1.739222e-002
1.668150e+003,1.709763e-002
1.670079e+003,1.683059e-002
1.672007e+003,1.661337e-002
1.673936e+003,1.637072e-002
1.675864e+003,1.621278e-002
1.677793e+003,1.604896e-002
1.679721e+003,1.586154e-002
1.681650e+003,1.571872e-002
1.683578e+003,1.562314e-002
1.685507e+003,1.551611e-002
1.687435e+003,1.546162e-002
1.689364e+003,1.545907e-002
1.691292e+003,1.541355e-002
1.693221e+003,1.535246e-002
1.695149e+003,1.534538e-002
1.697078e+003,1.529280e-002
1.699006e+003,1.515330e-002
1.700935e+003,1.507431e-002
1.702863e+003,1.502818e-002
1.704792e+003,1.496442e-002
1.706720e+003,1.488732e-002
1.708649e+003,1.478776e-002
1.710577e+003,1.470789e-002
1.712506e+003,1.470684e-002
1.714434e+003,1.466936e-002
1.716363e+003,1.467437e-002
1.718291e+003,1.465026e-002
1.720220e+003,1.460966e-002
1.722148e+003,1.461261e-002
1.724077e+003,1.468344e-002
1.726005e+003,1.472757e-002
1.727934e+003,1.474144e-002
1.729862e+003,1.472197e-002
1.731791e+003,1.468658e-002
1.733719e+003,1.462523e-002
1.735648e+003,1.447866e-002
1.737576e+003,1.421114e-002
1.739505e+003,1.406126e-002
1.741433e+003,1.381743e-002
1.743362e+003,1.344530e-002
1.745290e+003,1.316992e-002
1.747219e+003,1.292269e-002
1.749147e+003,1.262371e-002
1.751076e+003,1.236895e-002
1.753004e+003,1.217544e-002
1.754933e+003,1.194286e-002
1.756861e+003,1.178753e-002
1.758790e+003,1.159048e-002
1.760718e+003,1.141470e-002
1.762647e+003,1.122199e-002
1.764575e+003,1.105411e-002
1.766504e+003,1.094462e-002
1.768432e+003,1.087098e-002
1.770361e+003,1.075746e-002
1.772289e+003,1.068829e-002
1.774218e+003,1.067120e-002
1.776146e+003,1.063271e-002
1.778075e+003,1.060225e-002
1.780003e+003,1.057694e-002
1.781932e+003,1.060064e-002
1.783860e+003,1.057566e-002
1.785789e+003,1.057678e-002
1.787717e+003,1.055252e-002
1.789646e+003,1.051142e-002
1.791574e+003,1.051485e-002
1.793503e+003,1.057275e-002
1.795431e+003,1.056232e-002
1.797360e+003,1.050458e-002
1.799288e+003,1.050196e-002
1.801217e+003,1.049849e-002
1.803145e+003,1.047219e-002
1.805074e+003,1.049327e-002
1.807002e+003,1.047779e-002
1.808931e+003,1.043819e-002
1.810859e+003,1.047553e-002
1.812788e+003,1.048019e-002
1.814716e+003,1.046574e-002
1.816645e+003,1.038975e-002
1.818573e+003,1.029936e-002
1.820502e+003,1.029723e-002
1.822430e+003,1.030029e-002
1.824359e+003,1.026245e-002
1.826287e+003,1.024196e-002
1.828216e+003,1.025330e-002
1.830144e+003,1.018429e-002
1.832073e+003,1.016727e-002
1.834001e+003,1.012141e-002
1.835930e+003,1.011201e-002
1.837858e+003,1.014638e-002
1.839787e+003,1.013580e-002
1.841715e+003,1.006474e-002
1.843644e+003,1.001692e-002
1.845572e+003,1.002443e-002
1.847501e+003,1.003160e-002
1.849429e+003,1.005326e-002
1.851358e+003,1.005543e-002
1.853286e+003,1.002674e-002
1.855215e+003,9.971783e-003
1.857143e+003,1.002241e-002
1.859072e+003,1.000709e-002
1.861000e+003,9.889090e-003
1.862929e+003,9.825687e-003
1.864857e+003,9.892479e-003
1.866786e+003,9.964801e-003
1.868714e+003,9.852152e-003
1.870643e+003,9.850995e-003
1.872571e+003,9.968217e-003
1.874500e+003,9.946208e-003
1.876428e+003,9.830005e-003
1.878357e+003,9.882553e-003
1.880285e+003,9.919927e-003
1.882214e+003,9.774941e-003
1.884142e+003,9.648966e-003
1.886071e+003,9.622049e-003
1.887999e+003,9.605103e-003
1.889928e+003,9.524497e-003
1.891856e+003,9.495626e-003
1.893785e+003,9.561216e-003
1.895713e+003,9.513037e-003
1.897642e+003,9.373023e-003
1.899570e+003,9.427728e-003
1.901499e+003,9.570674e-003
1.903427e+003,9.383020e-003
1.905356e+003,9.249536e-003
1.907284e+003,9.239119e-003
1.909213e+003,9.187271e-003
1.911141e+003,9.008951e-003
1.913070e+003,8.928849e-003
1.914998e+003,8.856916e-003
1.916927e+003,8.725939e-003
1.918855e+003,8.876805e-003
1.920784e+003,8.943787e-003
1.922712e+003,8.799905e-003
1.924641e+003,8.953282e-003
1.926569e+003,8.879581e-003
1.928498e+003,8.660783e-003
1.930426e+003,8.476405e-003
1.932355e+003,8.191435e-003
1.934283e+003,7.997794e-003
1.936212e+003,7.657101e-003
1.938140e+003,7.761007e-003
1.940069e+003,7.810829e-003
1.941997e+003,7.612309e-003
1.943926e+003,7.221764e-003
1.945854e+003,6.956987e-003
1.947783e+003,6.847619e-003
1.949711e+003,6.768659e-003
1.951640e+003,6.688146e-003
1.953568e+003,6.488134e-003
1.955497e+003,6.310571e-003
1.957425e+003,5.750974e-003
1.959354e+003,5.083484e-003
1.961282e+003,3.939524e-003
1.963211e+003,3.217801e-003
1.965139e+003,2.607260e-003
1.967068e+003,2.706687e-003
1.968996e+003,2.651815e-003
1.970925e+003,1.797291e-003
1.972853e+003,1.200739e-003
1.974782e+003,3.387085e-004
1.976710e+003,-5.772649e-004
1.978639e+003,3.952867e-005
1.980567e+003,1.322211e-003
1.982496e+003,1.617090e-003
1.984424e+003,2.195620e-003
1.986353e+003,3.014772e-003
1.988281e+003,3.616599e-003
1.990210e+003,3.954832e-003
1.992138e+003,3.703569e-003
1.994067e+003,3.161437e-003
1.995995e+003,3.056182e-003
1.997924e+003,3.370595e-003
1.999852e+003,2.903043e-003
2.001781e+003,1.921796e-003
2.003709e+003,1.520309e-003
2.005638e+003,1.174026e-003
2.007566e+003,1.863022e-004
2.009495e+003,-3.032429e-004
2.011423e+003,4.265347e-005
2.013352e+003,-1.234477e-004
2.015280e+003,-1.575518e-004
2.017208e+003,-4.728908e-005
2.019137e+003,1.349661e-005
2.021066e+003,9.220809e-005
2.022994e+003,-1.797686e-004
2.024922e+003,-5.571590e-005
2.026851e+003,1.713648e-004
2.028780e+003,-7.031625e-004
2.030708e+003,-9.142578e-004
2.032636e+003,4.059422e-004
2.034565e+003,2.851964e-004
2.036494e+003,-3.372837e-004
2.038422e+003,3.987383e-004
2.040350e+003,1.182278e-003
2.042279e+003,2.487268e-003
2.044208e+003,3.236544e-003
2.046136e+003,2.840914e-003
2.048064e+003,3.001445e-003
2.049993e+003,3.699895e-003
2.051921e+003,4.094742e-003
2.053850e+003,4.086915e-003
2.055778e+003,4.465521e-003
2.057707e+003,5.087896e-003
2.059635e+003,5.309107e-003
2.061564e+003,5.204610e-003
2.063492e+003,5.580267e-003
2.065421e+003,5.481565e-003
2.067349e+003,5.772194e-003
2.069278e+003,6.156920e-003
2.071206e+003,6.112634e-003
2.073135e+003,6.177060e-003
2.075063e+003,6.232476e-003
2.076992e+003,6.594666e-003
2.078920e+003,6.969093e-003
2.080849e+003,6.997505e-003
2.082777e+003,7.148250e-003
2.084706e+003,7.314111e-003
2.086634e+003,7.153137e-003
2.088563e+003,7.248170e-003
2.090491e+003,7.021741e-003
2.092420e+003,6.845519e-003
2.094348e+003,7.053722e-003
2.096277e+003,7.187589e-003
2.098205e+003,7.136508e-003
2.100134e+003,7.223756e-003
2.102062e+003,7.231066e-003
2.103991e+003,7.225541e-003
2.105919e+003,7.490796e-003
2.107848e+003,7.560717e-003
2.109776e+003,7.316851e-003
2.111705e+003,7.369118e-003
2.113633e+003,7.756583e-003
2.115562e+003,7.850096e-003
2.117490e+003,8.071274e-003
2.119419e+003,8.152632e-003
2.121347e+003,7.790957e-003
2.123276e+003,7.437570e-003
2.125204e+003,7.432581e-003
2.127133e+003,7.646364e-003
2.129061e+003,7.386070e-003
2.130990e+003,6.600942e-003
2.132918e+003,6.192423e-003
2.134847e+003,5.878016e-003
2.136775e+003,5.744433e-003
2.138704e+003,5.342321e-003
2.140632e+003,5.413910e-003
2.142561e+003,5.175304e-003
2.144489e+003,3.723149e-003
2.146418e+003,2.641877e-003
2.148346e+003,2.607042e-003
2.150275e+003,2.579610e-003
2.152203e+003,9.368144e-004
2.154132e+003,-5.709879e-004
2.156060e+003,-2.299105e-003
2.157989e+003,-5.065399e-003
2.159917e+003,-5.175261e-003
2.161846e+003,-2.667497e-003
2.163774e+003,-6.352118e-004
2.165703e+003,-1.272161e-004
2.167631e+003,3.167730e-005
2.169560e+003,9.265207e-004
2.171488e+003,1.291030e-003
2.173417e+003,1.164299e-003
2.175345e+003,9.519896e-004
2.177274e+003,1.411282e-003
2.179202e+003,2.190140e-003
2.181131e+003,2.734162e-003
2.183059e+003,2.529349e-003
2.184988e+003,2.181082e-003
2.186916e+003,2.141789e-003
2.188845e+003,2.534848e-003
2.190773e+003,3.172180e-003
2.192702e+003,3.864937e-003
2.194630e+003,4.186119e-003
2.196559e+003,4.184045e-003
2.198487e+003,4.202513e-003
2.200416e+003,5.021255e-003
2.202344e+003,4.885724e-003
2.204273e+003,4.788994e-003
2.206201e+003,4.937699e-003
2.208130e+003,5.217119e-003
2.210058e+003,5.587901e-003
2.211987e+003,5.894843e-003
2.213915e+003,5.879158e-003
2.215844e+003,5.752626e-003
2.217772e+003,5.971092e-003
2.219701e+003,6.332128e-003
2.221629e+003,6.814921e-003
2.223558e+003,7.130176e-003
2.225486e+003,7.483683e-003
2.227415e+003,7.929523e-003
2.229343e+003,8.033638e-003
2.231272e+003,7.529853e-003
2.233200e+003,7.467630e-003
2.235129e+003,7.490208e-003
2.237057e+003,7.511636e-003
2.238986e+003,7.495291e-003
2.240914e+003,8.105054e-003
2.242843e+003,8.506499e-003
2.244771e+003,8.700782e-003
2.246700e+003,8.841755e-003
2.248628e+003,8.615286e-003
2.250557e+003,8.601021e-003
2.252485e+003,8.814724e-003
2.254414e+003,9.003856e-003
2.256342e+003,9.178001e-003
2.258271e+003,9.156655e-003
2.260199e+003,9.027049e-003
2.262128e+003,9.105894e-003
2.264056e+003,9.164765e-003
2.265985e+003,9.359898e-003
2.267913e+003,9.212442e-003
2.269842e+003,9.277307e-003
2.271770e+003,9.413851e-003
2.273699e+003,9.656521e-003
2.275627e+003,9.864594e-003
2.277556e+003,9.694312e-003
2.279484e+003,9.644677e-003
2.281413e+003,9.878255e-003
2.283341e+003,9.954501e-003
2.285270e+003,1.006372e-002
2.287198e+003,1.021724e-002
2.289127e+003,1.025374e-002
2.291055e+003,1.026520e-002
2.292984e+003,1.032453e-002
2.294912e+003,1.037442e-002
2.296841e+003,1.043230e-002
2.298769e+003,1.034444e-002
2.300698e+003,1.036914e-002
2.302626e+003,1.068265e-002
2.304555e+003,1.080173e-002
2.306483e+003,1.077274e-002
2.308412e+003,1.069228e-002
2.310340e+003,1.064369e-002
2.312269e+003,1.092022e-002
2.314197e+003,1.098598e-002
2.316125e+003,1.096003e-002
2.318054e+003,1.084218e-002
2.319983e+003,1.080663e-002
2.321911e+003,1.070863e-002
2.323840e+003,1.077984e-002
2.325768e+003,1.070901e-002
2.327697e+003,1.065435e-002
2.329625e+003,1.073601e-002
2.331553e+003,1.061343e-002
2.333482e+003,1.050608e-002
2.335411e+003,1.069598e-002
2.337339e+003,1.080914e-002
2.339268e+003,1.079662e-002
2.341196e+003,1.081947e-002
2.343125e+003,1.106427e-002
2.345053e+003,1.097394e-002
2.346981e+003,1.089248e-002
2.348910e+003,1.095846e-002
2.350839e+003,1.088354e-002
2.352767e+003,1.081773e-002
2.354696e+003,1.117730e-002
2.356624e+003,1.141922e-002
2.358552e+003,1.122305e-002
2.360481e+003,1.105395e-002
2.362409e+003,1.078796e-002
2.364338e+003,1.110567e-002
2.366267e+003,1.120568e-002
2.368195e+003,1.130383e-002
2.370124e+003,1.116721e-002
2.372052e+003,1.125943e-002
2.373980e+003,1.138205e-002
2.375909e+003,1.136553e-002
2.377838e+003,1.133366e-002
2.379766e+003,1.143355e-002
2.381695e+003,1.150330e-002
2.383623e+003,1.159415e-002
2.385552e+003,1.169261e-002
2.387480e+003,1.170869e-002
2.389408e+003,1.172475e-002
2.391337e+003,1.181315e-002
2.393266e+003,1.183273e-002
2.395194e+003,1.183017e-002
2.397123e+003,1.181955e-002
2.399051e+003,1.188400e-002
2.400979e+003,1.193639e-002
2.402908e+003,1.195975e-002
2.404836e+003,1.192920e-002
2.406765e+003,1.185180e-002
2.408694e+003,1.186089e-002
2.410622e+003,1.182909e-002
2.412551e+003,1.175718e-002
2.414479e+003,1.181557e-002
2.416407e+003,1.183256e-002
2.418336e+003,1.185269e-002
2.420264e+003,1.184373e-002
2.422193e+003,1.171279e-002
2.424122e+003,1.156560e-002
2.426050e+003,1.160579e-002
2.427979e+003,1.167644e-002
2.429907e+003,1.181601e-002
2.431835e+003,1.183467e-002
2.433764e+003,1.175334e-002
2.435692e+003,1.172273e-002
2.437621e+003,1.171929e-002
2.439550e+003,1.169986e-002
2.441478e+003,1.174690e-002
2.443406e+003,1.179538e-002
2.445335e+003,1.178340e-002
2.447263e+003,1.181571e-002
2.449192e+003,1.190523e-002
2.451121e+003,1.190516e-002
2.453049e+003,1.182415e-002
2.454978e+003,1.166426e-002
2.456906e+003,1.169537e-002
2.458834e+003,1.174714e-002
2.460763e+003,1.169359e-002
2.462691e+003,1.165976e-002
2.464620e+003,1.167086e-002
2.466549e+003,1.173420e-002
2.468477e+003,1.171106e-002
2.470406e+003,1.164326e-002
2.472334e+003,1.167389e-002
2.474262e+003,1.178078e-002
2.476191e+003,1.180246e-002
2.478119e+003,1.172539e-002
2.480048e+003,1.168590e-002
2.481977e+003,1.177693e-002
2.483905e+003,1.182946e-002
2.485833e+003,1.186328e-002
2.487762e+003,1.177295e-002
2.489690e+003,1.167828e-002
2.491619e+003,1.174054e-002
2.493547e+003,1.173693e-002
2.495476e+003,1.186440e-002
2.497405e+003,1.194613e-002
2.499333e+003,1.177897e-002
2.501261e+003,1.187356e-002
2.503190e+003,1.193721e-002
2.505118e+003,1.188051e-002
2.507047e+003,1.182146e-002
2.508975e+003,1.189317e-002
2.510904e+003,1.201687e-002
2.512833e+003,1.196636e-002
2.514761e+003,1.190741e-002
2.516689e+003,1.189024e-002
2.518618e+003,1.192212e-002
2.520546e+003,1.187472e-002
2.522475e+003,1.185902e-002
2.524403e+003,1.195379e-002
2.526332e+003,1.219319e-002
2.528260e+003,1.226841e-002
2.530189e+003,1.227570e-002
2.532117e+003,1.232966e-002
2.534046e+003,1.247858e-002
2.535974e+003,1.249710e-002
2.537903e+003,1.236327e-002
2.539831e+003,1.236037e-002
2.541760e+003,1.235925e-002
2.543688e+003,1.234663e-002
2.545617e+003,1.239750e-002
2.547545e+003,1.247776e-002
2.549474e+003,1.255074e-002
2.551402e+003,1.248936e-002
2.553331e+003,1.246041e-002
2.555259e+003,1.252407e-002
2.557188e+003,1.259802e-002
2.559116e+003,1.257997e-002
2.561045e+003,1.253280e-002
2.562973e+003,1.256241e-002
2.564902e+003,1.274590e-002
2.566830e+003,1.282067e-002
2.568759e+003,1.267726e-002
2.570687e+003,1.269155e-002
2.572616e+003,1.274635e-002
2.574544e+003,1.277426e-002
2.576473e+003,1.285756e-002
2.578401e+003,1.289668e-002
2.580330e+003,1.292709e-002
2.582258e+003,1.291176e-002
2.584187e+003,1.287237e-002
2.586115e+003,1.279989e-002
2.588044e+003,1.281657e-002
2.589972e+003,1.285999e-002
2.591901e+003,1.286824e-002
2.593829e+003,1.295750e-002
2.595758e+003,1.295044e-002
2.597686e+003,1.298878e-002
2.599615e+003,1.312300e-002
2.601543e+003,1.311702e-002
2.603472e+003,1.312122e-002
2.605400e+003,1.307618e-002
2.607329e+003,1.303517e-002
2.609257e+003,1.309124e-002
2.611186e+003,1.311204e-002
2.613114e+003,1.311532e-002
2.615043e+003,1.314916e-002
2.616971e+003,1.306696e-002
2.618900e+003,1.306625e-002
2.620828e+003,1.311668e-002
2.622757e+003,1.315849e-002
2.624685e+003,1.318642e-002
2.626614e+003,1.318953e-002
2.628542e+003,1.323100e-002
2.630471e+003,1.328323e-002
2.632399e+003,1.322611e-002
2.634328e+003,1.319073e-002
2.636256e+003,1.323609e-002
2.638185e+003,1.334182e-002
2.640113e+003,1.335768e-002
2.642042e+003,1.330209e-002
2.643970e+003,1.331617e-002
2.645899e+003,1.332703e-002
2.647827e+003,1.341625e-002
2.649756e+003,1.354507e-002
2.651684e+003,1.358271e-002
2.653613e+003,1.357833e-002
2.655541e+003,1.357084e-002
2.657470e+003,1.356336e-002
2.659398e+003,1.357224e-002
2.661327e+003,1.364213e-002
2.663255e+003,1.375128e-002
2.665184e+003,1.381578e-002
2.667112e+003,1.382512e-002
2.669041e+003,1.378322e-002
2.670969e+003,1.378343e-002
2.672898e+003,1.383333e-002
2.674826e+003,1.385717e-002
2.676755e+003,1.385642e-002
2.678683e+003,1.384927e-002
2.680612e+003,1.387363e-002
2.682540e+003,1.391458e-002
2.684469e+003,1.393319e-002
2.686397e+003,1.394339e-002
2.688326e+003,1.393288e-002
2.690254e+003,1.394852e-002
2.692183e+003,1.394418e-002
2.694111e+003,1.392734e-002
2.696040e+003,1.395926e-002
2.697968e+003,1.396772e-002
2.699897e+003,1.402579e-002
2.701825e+003,1.401353e-002
2.703754e+003,1.402781e-002
2.705682e+003,1.401641e-002
2.707611e+003,1.404546e-002
2.709539e+003,1.408280e-002
2.711468e+003,1.407815e-002
2.713396e+003,1.406182e-002
2.715325e+003,1.407185e-002
2.717253e+003,1.411378e-002
2.719182e+003,1.408838e-002
2.721110e+003,1.407219e-002
2.723039e+003,1.408366e-002
2.724967e+003,1.411460e-002
2.726896e+003,1.411583e-002
2.728824e+003,1.410317e-002
2.730753e+003,1.415355e-002
2.732681e+003,1.416115e-002
2.734610e+003,1.413572e-002
2.736538e+003,1.414233e-002
2.738467e+003,1.417752e-002
2.740395e+003,1.417142e-002
2.742324e+003,1.415554e-002
2.744252e+003,1.416191e-002
2.746181e+003,1.411607e-002
2.748109e+003,1.408650e-002
2.750038e+003,1.407366e-002
2.751966e+003,1.409595e-002
2.753895e+003,1.413558e-002
2.755823e+003,1.413219e-002
2.757752e+003,1.416440e-002
2.759680e+003,1.423938e-002
2.761609e+003,1.432108e-002
2.763537e+003,1.429773e-002
2.765466e+003,1.425431e-002
2.767394e+003,1.427393e-002
2.769323e+003,1.433406e-002
2.771251e+003,1.437752e-002
2.773180e+003,1.437574e-002
2.775108e+003,1.433591e-002
2.777037e+003,1.430817e-002
2.778965e+003,1.435981e-002
2.780894e+003,1.441259e-002
2.782822e+003,1.439543e-002
2.784750e+003,1.439413e-002
2.786679e+003,1.448443e-002
2.788608e+003,1.451461e-002
2.790536e+003,1.450687e-002
2.792465e+003,1.453650e-002
2.794393e+003,1.458594e-002
2.796322e+003,1.462429e-002
2.798250e+003,1.466062e-002
2.800178e+003,1.471394e-002
2.802107e+003,1.476615e-002
2.804036e+003,1.476043e-002
2.805964e+003,1.479419e-002
2.807893e+003,1.483921e-002
2.809821e+003,1.483074e-002
2.811750e+003,1.485813e-002
2.813678e+003,1.495926e-002
2.815606e+003,1.498848e-002
2.817535e+003,1.502069e-002
2.819464e+003,1.508493e-002
2.821392e+003,1.516106e-002
2.823321e+003,1.523834e-002
2.825249e+003,1.531542e-002
2.827177e+003,1.541470e-002
2.829106e+003,1.548635e-002
2.831034e+003,1.557224e-002
2.832963e+003,1.562393e-002
2.834892e+003,1.568710e-002
2.836820e+003,1.580171e-002
2.838749e+003,1.592516e-002
2.840677e+003,1.600260e-002
2.842605e+003,1.602213e-002
2.844534e+003,1.610334e-002
2.846462e+003,1.625687e-002
2.848391e+003,1.636255e-002
2.850320e+003,1.640229e-002
2.852248e+003,1.643350e-002
2.854177e+003,1.652154e-002
2.856105e+003,1.664619e-002
2.858033e+003,1.674008e-002
2.859962e+003,1.682136e-002
2.861890e+003,1.688591e-002
2.863819e+003,1.694885e-002
2.865748e+003,1.709878e-002
2.867676e+003,1.727034e-002
2.869604e+003,1.731331e-002
2.871533e+003,1.731927e-002
2.873461e+003,1.736679e-002
2.875390e+003,1.740690e-002
2.877319e+003,1.746322e-002
2.879247e+003,1.744035e-002
2.881176e+003,1.749247e-002
2.883104e+003,1.754881e-002
2.885032e+003,1.762655e-002
2.886961e+003,1.765346e-002
2.888889e+003,1.759667e-002
2.890818e+003,1.759218e-002
2.892747e+003,1.764166e-002
2.894675e+003,1.767562e-002
2.896604e+003,1.763628e-002
2.898532e+003,1.760743e-002
2.900460e+003,1.756865e-002
2.902389e+003,1.751886e-002
2.904317e+003,1.741221e-002
2.906246e+003,1.733669e-002
2.908175e+003,1.727889e-002
2.910103e+003,1.723628e-002
2.912031e+003,1.720563e-002
2.913960e+003,1.716420e-002
2.915888e+003,1.701742e-002
2.917817e+003,1.691171e-002
2.919745e+003,1.681216e-002
2.921674e+003,1.669952e-002
2.923603e+003,1.659035e-002
2.925531e+003,1.646788e-002
2.927459e+003,1.639517e-002
2.929388e+003,1.634507e-002
2.931316e+003,1.626660e-002
2.933245e+003,1.618763e-002
2.935173e+003,1.616671e-002
2.937102e+003,1.617841e-002
2.939031e+003,1.612175e-002
2.940959e+003,1.600850e-002
2.942887e+003,1.588701e-002
2.944816e+003,1.574682e-002
2.946744e+003,1.565208e-002
2.948673e+003,1.554373e-002
2.950601e+003,1.544752e-002
2.952530e+003,1.530902e-002
2.954458e+003,1.521113e-002
2.956387e+003,1.509855e-002
2.958315e+003,1.497925e-002
2.960244e+003,1.489185e-002
2.962172e+003,1.480494e-002
2.964101e+003,1.481210e-002
2.966029e+003,1.479362e-002
2.967958e+003,1.469406e-002
2.969886e+003,1.466220e-002
2.971815e+003,1.461555e-002
2.973743e+003,1.451977e-002
2.975672e+003,1.442392e-002
2.977600e+003,1.440818e-002
2.979529e+003,1.437578e-002
2.981457e+003,1.430310e-002
2.983386e+003,1.429318e-002
2.985314e+003,1.429220e-002
2.987243e+003,1.428117e-002
2.989171e+003,1.425044e-002
2.991100e+003,1.426173e-002
2.993028e+003,1.425623e-002
2.994957e+003,1.424935e-002
2.996885e+003,1.430825e-002
2.998814e+003,1.428923e-002
3.000742e+003,1.427082e-002
3.002671e+003,1.427693e-002
3.004599e+003,1.432868e-002
3.006528e+003,1.438792e-002
3.008456e+003,1.438849e-002
3.010385e+003,1.432621e-002
3.012313e+003,1.431986e-002
3.014242e+003,1.439253e-002
3.016170e+003,1.441238e-002
3.018099e+003,1.434943e-002
3.020027e+003,1.439496e-002
3.021956e+003,1.447664e-002
3.023884e+003,1.449692e-002
3.025813e+003,1.447695e-002
3.027741e+003,1.451027e-002
3.029670e+003,1.453165e-002
3.031598e+003,1.452181e-002
3.033527e+003,1.458790e-002
3.035455e+003,1.465102e-002
3.037384e+003,1.462340e-002
3.039312e+003,1.463484e-002
3.041241e+003,1.476185e-002
3.043169e+003,1.478735e-002
3.045098e+003,1.476639e-002
3.047026e+003,1.484241e-002
3.048955e+003,1.492157e-002
3.050883e+003,1.495262e-002
3.052812e+003,1.495449e-002
3.054740e+003,1.495712e-002
3.056669e+003,1.504457e-002
3.058597e+003,1.515491e-002
3.060526e+003,1.519608e-002
3.062454e+003,1.525840e-002
3.064383e+003,1.533400e-002
3.066311e+003,1.533322e-002
3.068240e+003,1.539268e-002
3.070168e+003,1.543539e-002
3.072097e+003,1.543782e-002
3.074025e+003,1.544809e-002
3.075954e+003,1.551232e-002
3.077882e+003,1.557668e-002
3.079811e+003,1.560794e-002
3.081739e+003,1.564118e-002
3.083668e+003,1.569862e-002
3.085596e+003,1.577096e-002
3.087525e+003,1.574480e-002
3.089453e+003,1.575972e-002
3.091382e+003,1.584596e-002
3.093310e+003,1.590844e-002
3.095239e+003,1.591631e-002
3.097167e+003,1.595227e-002
3.099096e+003,1.593368e-002
3.101024e+003,1.599725e-002
3.102953e+003,1.608783e-002
3.104881e+003,1.609393e-002
3.106810e+003,1.608856e-002
3.108738e+003,1.615159e-002
3.110667e+003,1.624689e-002
3.112595e+003,1.626683e-002
3.114524e+003,1.634136e-002
3.116452e+003,1.643431e-002
3.118381e+003,1.652670e-002
3.120309e+003,1.657772e-002
3.122238e+003,1.659488e-002
3.124166e+003,1.666906e-002
3.126095e+003,1.672112e-002
3.128023e+003,1.676765e-002
3.129952e+003,1.686867e-002
3.131880e+003,1.693523e-002
3.133809e+003,1.699056e-002
3.135737e+003,1.712057e-002
3.137666e+003,1.722900e-002
3.139594e+003,1.719022e-002
3.141523e+003,1.726251e-002
3.143451e+003,1.738831e-002
3.145380e+003,1.743784e-002
3.147308e+003,1.744846e-002
3.149237e+003,1.757387e-002
3.151165e+003,1.766416e-002
3.153094e+003,1.767685e-002
3.155022e+003,1.775794e-002
3.156951e+003,1.786377e-002
3.158879e+003,1.799360e-002
3.160808e+003,1.802599e-002
3.162736e+003,1.797165e-002
3.164665e+003,1.806005e-002
3.166593e+003,1.818431e-002
3.168522e+003,1.825943e-002
3.170450e+003,1.835219e-002
3.172379e+003,1.835889e-002
3.174307e+003,1.845231e-002
3.176236e+003,1.860940e-002
3.178164e+003,1.863410e-002
3.180093e+003,1.866807e-002
3.182021e+003,1.877674e-002
3.183950e+003,1.879638e-002
3.185878e+003,1.886036e-002
3.187807e+003,1.896756e-002
3.189735e+003,1.910704e-002
3.191664e+003,1.926382e-002
3.193592e+003,1.925411e-002
3.195521e+003,1.934024e-002
3.197449e+003,1.947002e-002
3.199378e+003,1.953479e-002
3.201306e+003,1.961292e-002
3.203235e+003,1.980404e-002
3.205163e+003,1.988549e-002
3.207092e+003,1.991771e-002
3.209020e+003,2.004312e-002
3.210948e+003,2.013584e-002
3.212877e+003,2.023370e-002
3.214806e+003,2.034595e-002
3.216734e+003,2.036543e-002
3.218663e+003,2.050291e-002
3.220591e+003,2.062028e-002
3.222520e+003,2.075533e-002
3.224448e+003,2.078989e-002
3.226376e+003,2.094032e-002
3.228305e+003,2.107662e-002
3.230234e+003,2.115881e-002
3.232162e+003,2.132257e-002
3.234091e+003,2.150828e-002
3.236019e+003,2.151482e-002
3.237948e+003,2.160114e-002
3.239876e+003,2.178309e-002
3.241804e+003,2.182569e-002
3.243733e+003,2.196606e-002
3.245662e+003,2.212969e-002
3.247590e+003,2.228226e-002
3.249519e+003,2.238046e-002
3.251447e+003,2.247770e-002
3.253375e+003,2.254586e-002
3.255304e+003,2.260613e-002
3.257232e+003,2.268652e-002
3.259161e+003,2.285399e-002
3.261090e+003,2.297779e-002
3.263018e+003,2.309542e-002
3.264947e+003,2.319487e-002
3.266875e+003,2.327525e-002
3.268803e+003,2.342665e-002
3.270732e+003,2.350835e-002
3.272660e+003,2.355443e-002
3.274589e+003,2.357941e-002
3.276518e+003,2.364860e-002
3.278446e+003,2.372494e-002
3.280375e+003,2.378331e-002
3.282303e+003,2.388830e-002
3.284231e+003,2.393625e-002
3.286160e+003,2.396797e-002
3.288088e+003,2.404876e-002
3.290017e+003,2.406871e-002
3.291946e+003,2.409495e-002
3.293874e+003,2.413788e-002
3.295802e+003,2.417659e-002
3.297731e+003,2.418892e-002
3.299659e+003,2.421559e-002
3.301588e+003,2.425321e-002
3.303516e+003,2.436803e-002
3.305445e+003,2.438295e-002
3.307374e+003,2.432613e-002
3.309302e+003,2.440379e-002
3.311230e+003,2.445276e-002
3.313159e+003,2.444264e-002
3.315087e+003,2.455499e-002
3.317016e+003,2.456846e-002
3.318944e+003,2.466756e-002
3.320873e+003,2.476086e-002
3.322802e+003,2.477554e-002
3.324730e+003,2.479622e-002
3.326658e+003,2.477472e-002
3.328587e+003,2.481120e-002
3.330515e+003,2.481336e-002
3.332444e+003,2.486677e-002
3.334372e+003,2.496960e-002
3.336301e+003,2.494398e-002
3.338229e+003,2.485531e-002
3.340158e+003,2.483940e-002
3.342086e+003,2.478870e-002
3.344015e+003,2.476370e-002
3.345943e+003,2.467597e-002
3.347872e+003,2.460212e-002
3.349800e+003,2.454237e-002
3.351729e+003,2.446703e-002
3.353657e+003,2.438522e-002
3.355586e+003,2.430324e-002
3.357514e+003,2.420443e-002
3.359443e+003,2.416213e-002
3.361371e+003,2.410997e-002
3.363300e+003,2.409268e-002
3.365229e+003,2.401133e-002
3.367157e+003,2.385096e-002
3.369085e+003,2.384796e-002
3.371014e+003,2.379254e-002
3.372942e+003,2.364680e-002
3.374871e+003,2.354034e-002
3.376799e+003,2.353703e-002
3.378728e+003,2.344617e-002
3.380656e+003,2.336890e-002
3.382585e+003,2.336027e-002
3.384513e+003,2.332466e-002
3.386442e+003,2.317076e-002
3.388370e+003,2.311848e-002
3.390299e+003,2.304511e-002
3.392227e+003,2.298633e-002
3.394156e+003,2.290859e-002
3.396084e+003,2.289453e-002
3.398013e+003,2.279249e-002
3.399941e+003,2.266208e-002
3.401870e+003,2.253715e-002
3.403798e+003,2.241749e-002
3.405727e+003,2.227144e-002
3.407655e+003,2.230027e-002
3.409584e+003,2.221508e-002
3.411512e+003,2.202499e-002
3.413441e+003,2.188175e-002
3.415369e+003,2.172111e-002
3.417298e+003,2.163794e-002
3.419226e+003,2.159588e-002
3.421155e+003,2.147161e-002
3.423083e+003,2.130678e-002
3.425012e+003,2.113684e-002
3.426940e+003,2.095858e-002
3.428869e+003,2.082084e-002
3.430797e+003,2.066638e-002
3.432726e+003,2.059558e-002
3.434654e+003,2.044524e-002
3.436583e+003,2.018917e-002
3.438511e+003,1.999673e-002
3.440440e+003,1.989712e-002
3.442368e+003,1.980067e-002
3.444297e+003,1.960632e-002
3.446225e+003,1.933900e-002
3.448154e+003,1.915092e-002
3.450082e+003,1.907304e-002
3.452011e+003,1.898183e-002
3.453939e+003,1.877537e-002
3.455868e+003,1.861619e-002
3.457796e+003,1.850172e-002
3.459725e+003,1.829106e-002
3.461653e+003,1.808374e-002
3.463582e+003,1.791707e-002
3.465510e+003,1.781250e-002
3.467439e+003,1.764002e-002
3.469367e+003,1.745226e-002
3.471296e+003,1.726976e-002
3.473224e+003,1.719010e-002
3.475153e+003,1.707860e-002
3.477081e+003,1.680855e-002
3.479010e+003,1.666585e-002
3.480938e+003,1.662087e-002
3.482867e+003,1.644867e-002
3.484795e+003,1.630382e-002
3.486724e+003,1.615595e-002
3.488652e+003,1.599844e-002
3.490581e+003,1.587037e-002
3.492509e+003,1.579422e-002
3.494438e+003,1.568828e-002
3.496366e+003,1.561178e-002
3.498295e+003,1.544437e-002
3.500223e+003,1.518432e-002
3.502152e+003,1.498651e-002
3.504080e+003,1.485427e-002
3.506009e+003,1.478068e-002
3.507937e+003,1.468207e-002
3.509866e+003,1.450682e-002
3.511794e+003,1.445112e-002
3.513723e+003,1.443866e-002
3.515651e+003,1.432206e-002
3.517580e+003,1.414541e-002
3.519508e+003,1.397392e-002
3.521437e+003,1.390570e-002
3.523365e+003,1.381361e-002
3.525294e+003,1.366741e-002
3.527222e+003,1.352013e-002
3.529151e+003,1.345119e-002
3.531079e+003,1.341064e-002
3.533008e+003,1.327408e-002
3.534936e+003,1.308207e-002
3.536865e+003,1.298504e-002
3.538793e+003,1.297306e-002
3.540722e+003,1.283649e-002
3.542650e+003,1.264531e-002
3.544579e+003,1.251500e-002
3.546507e+003,1.257996e-002
3.548436e+003,1.253615e-002
3.550364e+003,1.235344e-002
3.552293e+003,1.227503e-002
3.554221e+003,1.226877e-002
3.556150e+003,1.218807e-002
3.558078e+003,1.206633e-002
3.560007e+003,1.191764e-002
3.561935e+003,1.183127e-002
3.563864e+003,1.181281e-002
3.565792e+003,1.168902e-002
3.567721e+003,1.161974e-002
3.569649e+003,1.153336e-002
3.571578e+003,1.151753e-002
3.573506e+003,1.147490e-002
3.575435e+003,1.148803e-002
3.577363e+003,1.133823e-002
3.579292e+003,1.124144e-002
3.581220e+003,1.123909e-002
3.583149e+003,1.124977e-002
3.585077e+003,1.131100e-002
3.587006e+003,1.129772e-002
3.588934e+003,1.144889e-002
3.590863e+003,1.160796e-002
3.592791e+003,1.167292e-002
3.594720e+003,1.164646e-002
3.596648e+003,1.156220e-002
3.598577e+003,1.149589e-002
3.600505e+003,1.141111e-002
3.602434e+003,1.132314e-002
3.604362e+003,1.115877e-002
3.606291e+003,1.088911e-002
3.608219e+003,1.062088e-002
3.610148e+003,1.047157e-002
3.612076e+003,1.016790e-002
3.614005e+003,1.010495e-002
3.615933e+003,1.031272e-002
3.617862e+003,1.056371e-002
3.619790e+003,1.083261e-002
3.621719e+003,1.101197e-002
3.623647e+003,1.109060e-002
3.625576e+003,1.112568e-002
3.627504e+003,1.102672e-002
3.629433e+003,1.085511e-002
3.631361e+003,1.068082e-002
3.633290e+003,1.044023e-002
3.635218e+003,1.022601e-002
3.637146e+003,1.005845e-002
3.639075e+003,9.857323e-003
3.641004e+003,9.731767e-003
3.642932e+003,9.583523e-003
3.644861e+003,9.457225e-003
3.646789e+003,9.285227e-003
3.648718e+003,9.148133e-003
3.650646e+003,9.153329e-003
3.652574e+003,9.198850e-003
3.654503e+003,9.034096e-003
3.656432e+003,9.031183e-003
3.658360e+003,9.126402e-003
3.660289e+003,9.117020e-003
3.662217e+003,9.088976e-003
3.664146e+003,9.072800e-003
3.666074e+003,9.062314e-003
3.668002e+003,9.117424e-003
3.669931e+003,9.090777e-003
3.671860e+003,9.063432e-003
3.673788e+003,9.119982e-003
3.675717e+003,9.284824e-003
3.677645e+003,9.384678e-003
3.679573e+003,9.468117e-003
3.681502e+003,9.516389e-003
3.683430e+003,9.572295e-003
3.685359e+003,9.612207e-003
3.687288e+003,9.841272e-003
3.689216e+003,1.008452e-002
3.691145e+003,1.020941e-002
3.693073e+003,1.041372e-002
3.695001e+003,1.056710e-002
3.696930e+003,1.064072e-002
3.698858e+003,1.063337e-002
3.700787e+003,1.079073e-002
3.702716e+003,1.100908e-002
3.704644e+003,1.099934e-002
3.706573e+003,1.066280e-002
3.708501e+003,1.033016e-002
3.710429e+003,1.009909e-002
3.712358e+003,9.706644e-003
3.714286e+003,9.517343e-003
3.716215e+003,9.798720e-003
3.718144e+003,1.029881e-002
3.720072e+003,1.065673e-002
3.722000e+003,1.093609e-002
3.723929e+003,1.121972e-002
3.725857e+003,1.143902e-002
3.727786e+003,1.150386e-002
3.729714e+003,1.141148e-002
3.731643e+003,1.138601e-002
3.733572e+003,1.113310e-002
3.735500e+003,1.078482e-002
3.737428e+003,1.042443e-002
3.739357e+003,1.012604e-002
3.741285e+003,9.797134e-003
3.743214e+003,9.551089e-003
3.745142e+003,9.439822e-003
3.747071e+003,9.272507e-003
3.749000e+003,9.170228e-003
3.750928e+003,9.094498e-003
3.752856e+003,9.082880e-003
3.754785e+003,9.147415e-003
3.756713e+003,9.121480e-003
3.758642e+003,9.067894e-003
3.760570e+003,9.139690e-003
3.762499e+003,9.177144e-003
3.764427e+003,9.187663e-003
3.766356e+003,9.177601e-003
3.768284e+003,9.207215e-003
3.770213e+003,9.142371e-003
3.772141e+003,9.089227e-003
3.774070e+003,9.068110e-003
3.775998e+003,9.164013e-003
3.777927e+003,9.238142e-003
3.779855e+003,9.232208e-003
3.781784e+003,9.258278e-003
3.783712e+003,9.261246e-003
3.785641e+003,9.245498e-003
3.787569e+003,9.251899e-003
3.789498e+003,9.235666e-003
3.791426e+003,9.226442e-003
3.793355e+003,9.223353e-003
3.795283e+003,9.209299e-003
3.797212e+003,9.153650e-003
3.799140e+003,9.159099e-003
3.801069e+003,9.205784e-003
3.802997e+003,9.244385e-003
3.804926e+003,9.261175e-003
3.806854e+003,9.255243e-003
3.808783e+003,9.259552e-003
3.810711e+003,9.264329e-003
3.812640e+003,9.262370e-003
3.814568e+003,9.317517e-003
3.816497e+003,9.262851e-003
3.818425e+003,9.142285e-003
3.820354e+003,9.126683e-003
3.822282e+003,9.106682e-003
3.824211e+003,9.159274e-003
3.826139e+003,9.277204e-003
3.828068e+003,9.214417e-003
3.829996e+003,9.129428e-003
3.831925e+003,9.079650e-003
3.833853e+003,9.012893e-003
3.835782e+003,9.081074e-003
3.837710e+003,9.157610e-003
3.839639e+003,9.113148e-003
3.841567e+003,9.133858e-003
3.843496e+003,9.176928e-003
3.845424e+003,9.240354e-003
3.847353e+003,9.255424e-003
3.849281e+003,9.249359e-003
3.851210e+003,9.239144e-003
3.853138e+003,9.255345e-003
3.855067e+003,9.309998e-003
3.856995e+003,9.141449e-003
3.858924e+003,9.096159e-003
3.860852e+003,9.098109e-003
3.862781e+003,9.119798e-003
3.864709e+003,9.197010e-003
3.866638e+003,9.197649e-003
3.868566e+003,9.256046e-003
3.870495e+003,9.303570e-003
3.872423e+003,9.215724e-003
3.874352e+003,9.226948e-003
3.876280e+003,9.175208e-003
3.878209e+003,9.107009e-003
3.880137e+003,9.092331e-003
3.882066e+003,9.137470e-003
3.883994e+003,9.143854e-003
3.885923e+003,9.201185e-003
3.887851e+003,9.168559e-003
3.889780e+003,9.164816e-003
3.891708e+003,9.317362e-003
3.893637e+003,9.357435e-003
3.895565e+003,9.259701e-003
3.897494e+003,9.207575e-003
3.899422e+003,9.155980e-003
3.901351e+003,9.191286e-003
3.903279e+003,9.292761e-003
3.905208e+003,9.337232e-003
3.907136e+003,9.350009e-003
3.909065e+003,9.237050e-003
3.910993e+003,9.182352e-003
3.912922e+003,9.222855e-003
3.914850e+003,9.258802e-003
3.916779e+003,9.245224e-003
3.918707e+003,9.252123e-003
3.920636e+003,9.315691e-003
3.922564e+003,9.301492e-003
3.924493e+003,9.240799e-003
3.926421e+003,9.252003e-003
3.928350e+003,9.242540e-003
3.930278e+003,9.270961e-003
3.932207e+003,9.334076e-003
3.934135e+003,9.279445e-003
3.936064e+003,9.192970e-003
3.937992e+003,9.150850e-003
3.939921e+003,9.212000e-003
3.941849e+003,9.214785e-003
3.943778e+003,9.268661e-003
3.945706e+003,9.219489e-003
3.947635e+003,9.157076e-003
3.949563e+003,9.255311e-003
3.951492e+003,9.268834e-003
3.953420e+003,9.169152e-003
3.955349e+003,9.162789e-003
3.957277e+003,9.227748e-003
3.959206e+003,9.302025e-003
3.961134e+003,9.262531e-003
3.963063e+003,9.243511e-003
3.964991e+003,9.268384e-003
3.966920e+003,9.223436e-003
3.968848e+003,9.142729e-003
3.970777e+003,9.095615e-003
3.972705e+003,9.148687e-003
3.974634e+003,9.192575e-003
3.976562e+003,9.241062e-003
3.978491e+003,9.259546e-003
3.980419e+003,9.255918e-003
3.982348e+003,9.172539e-003
3.984276e+003,9.088540e-003
3.986205e+003,9.105291e-003
3.988133e+003,9.127962e-003
3.990062e+003,9.102894e-003
3.991990e+003,9.083333e-003
3.993919e+003,9.125513e-003
3.995847e+003,9.228176e-003
3.997776e+003,9.208689e-003
3.999704e+003,9.208569e-003
4.001633e+003,0.000000e+000
