3.991989e+002,4.258818e-002
4.011274e+002,4.321663e-002
4.030559e+002,4.321663e-002
4.049844e+002,4.522980e-002
4.069129e+002,4.509035e-002
4.088414e+002,4.374390e-002
4.107699e+002,4.541740e-002
4.126984e+002,4.655563e-002
4.146269e+002,4.618279e-002
4.165554e+002,4.704678e-002
4.184839e+002,4.769601e-002
4.204124e+002,4.797869e-002
4.223409e+002,4.763200e-002
4.242694e+002,4.734321e-002
4.261979e+002,4.773078e-002
4.281264e+002,4.902743e-002
4.300549e+002,4.968262e-002
4.319834e+002,5.055231e-002
4.339119e+002,5.125337e-002
4.358404e+002,5.209617e-002
4.377689e+002,5.208394e-002
4.396974e+002,5.164315e-002
4.416259e+002,5.198902e-002
4.435544e+002,5.205093e-002
4.454829e+002,5.225604e-002
4.474114e+002,5.216672e-002
4.493399e+002,5.178032e-002
4.512684e+002,5.151935e-002
4.531969e+002,5.124444e-002
4.551254e+002,5.170711e-002
4.570539e+002,5.216135e-002
4.589824e+002,5.239169e-002
4.609109e+002,5.244756e-002
4.628394e+002,5.231507e-002
4.647679e+002,5.224593e-002
4.666964e+002,5.197495e-002
4.686249e+002,5.139288e-002
4.705533e+002,5.130758e-002
4.724819e+002,5.058285e-002
4.744103e+002,4.967290e-002
4.763389e+002,4.907069e-002
4.782673e+002,4.936378e-002
4.801959e+002,4.935236e-002
4.821243e+002,4.837027e-002
4.840529e+002,4.760750e-002
4.859813e+002,4.728515e-002
4.879099e+002,4.745287e-002
4.898383e+002,4.714737e-002
4.917668e+002,4.637914e-002
4.936953e+002,4.604863e-002
4.956238e+002,4.541336e-002
4.975523e+002,4.540503e-002
4.994808e+002,4.504055e-002
5.014093e+002,4.523360e-002
5.033378e+002,4.540388e-002
5.052663e+002,4.534159e-002
5.071948e+002,4.551403e-002
5.091233e+002,4.586564e-002
5.110518e+002,4.571565e-002
5.129803e+002,4.608451e-002
5.149088e+002,4.610321e-002
5.168373e+002,4.664886e-002
5.187658e+002,4.694870e-002
5.206943e+002,4.717268e-002
5.226228e+002,4.687865e-002
5.245513e+002,4.701036e-002
5.264798e+002,4.697317e-002
5.284083e+002,4.686929e-002
5.303368e+002,4.675290e-002
5.322653e+002,4.647192e-002
5.341938e+002,4.643945e-002
5.361223e+002,4.677441e-002
5.380508e+002,4.638116e-002
5.399792e+002,4.585333e-002
5.419078e+002,4.545818e-002
5.438363e+002,4.471622e-002
5.457648e+002,4.563268e-002
5.476932e+002,4.619751e-002
5.496218e+002,4.659351e-002
5.515503e+002,4.657137e-002
5.534788e+002,4.662444e-002
5.554072e+002,4.738306e-002
5.573358e+002,4.767685e-002
5.592643e+002,4.768373e-002
5.611927e+002,4.741021e-002
5.631212e+002,4.682293e-002
5.650497e+002,4.645880e-002
5.669783e+002,4.632316e-002
5.689067e+002,4.633036e-002
5.708352e+002,4.607294e-002
5.727637e+002,4.576664e-002
5.746923e+002,4.549363e-002
5.766207e+002,4.532334e-002
5.785492e+002,4.480865e-002
5.804777e+002,4.373166e-002
5.824063e+002,4.420111e-002
5.843347e+002,4.508403e-002
5.862632e+002,4.508910e-002
5.881917e+002,4.496435e-002
5.901202e+002,4.494142e-002
5.920487e+002,4.487370e-002
5.939772e+002,4.475938e-002
5.959057e+002,4.452560e-002
5.978342e+002,4.415625e-002
5.997627e+002,4.409790e-002
6.016912e+002,4.396370e-002
6.036197e+002,4.348288e-002
6.055482e+002,4.337483e-002
6.074767e+002,4.337522e-002
6.094052e+002,4.336075e-002
6.113337e+002,4.307806e-002
6.132622e+002,4.245616e-002
6.151907e+002,4.214011e-002
6.171192e+002,4.217667e-002
6.190477e+002,4.197681e-002
6.209762e+002,4.161496e-002
6.229047e+002,4.109925e-002
6.248332e+002,4.038982e-002
6.267617e+002,3.952182e-002
6.286902e+002,3.887774e-002
6.306187e+002,3.870407e-002
6.325472e+002,3.854185e-002
6.344756e+002,3.817661e-002
6.364042e+002,3.808903e-002
6.383326e+002,3.783446e-002
6.402612e+002,3.740491e-002
6.421896e+002,3.738412e-002
6.441182e+002,3.710220e-002
6.460466e+002,3.680008e-002
6.479752e+002,3.671532e-002
6.499036e+002,3.645993e-002
6.518322e+002,3.607448e-002
6.537606e+002,3.588359e-002
6.556891e+002,3.601402e-002
6.576177e+002,3.611834e-002
6.595461e+002,3.617384e-002
6.614746e+002,3.615528e-002
6.634031e+002,3.617093e-002
6.653317e+002,3.608526e-002
6.672601e+002,3.580718e-002
6.691886e+002,3.554558e-002
6.711171e+002,3.526924e-002
6.730457e+002,3.471587e-002
6.749741e+002,3.410977e-002
6.769026e+002,3.313169e-002
6.788311e+002,3.255877e-002
6.807596e+002,3.209045e-002
6.826881e+002,3.157828e-002
6.846166e+002,3.112864e-002
6.865451e+002,3.075075e-002
6.884736e+002,3.049528e-002
6.904021e+002,3.042036e-002
6.923306e+002,3.021169e-002
6.942591e+002,3.014672e-002
6.961876e+002,3.014186e-002
6.981161e+002,2.995126e-002
7.000446e+002,2.970384e-002
7.019731e+002,2.963761e-002
7.039016e+002,2.942372e-002
7.058301e+002,2.908270e-002
7.077585e+002,2.884380e-002
7.096871e+002,2.879273e-002
7.116156e+002,2.864758e-002
7.135441e+002,2.850199e-002
7.154725e+002,2.842354e-002
7.174011e+002,2.835912e-002
7.193296e+002,2.816372e-002
7.212581e+002,2.780027e-002
7.231865e+002,2.757995e-002
7.251151e+002,2.751591e-002
7.270436e+002,2.731745e-002
7.289720e+002,2.703613e-002
7.309005e+002,2.674840e-002
7.328290e+002,2.657711e-002
7.347576e+002,2.641655e-002
7.366860e+002,2.615718e-002
7.386145e+002,2.595137e-002
7.405430e+002,2.588319e-002
7.424716e+002,2.562050e-002
7.444000e+002,2.533555e-002
7.463285e+002,2.515466e-002
7.482570e+002,2.504920e-002
7.501855e+002,2.491804e-002
7.521140e+002,2.474055e-002
7.540425e+002,2.459105e-002
7.559710e+002,2.445177e-002
7.578995e+002,2.438201e-002
7.598280e+002,2.426728e-002
7.617565e+002,2.418233e-002
7.636850e+002,2.408583e-002
7.656135e+002,2.398409e-002
7.675420e+002,2.389807e-002
7.694705e+002,2.389978e-002
7.713990e+002,2.398077e-002
7.733275e+002,2.399792e-002
7.752560e+002,2.410586e-002
7.771844e+002,2.406432e-002
7.791130e+002,2.399691e-002
7.810415e+002,2.408628e-002
7.829700e+002,2.405672e-002
7.848984e+002,2.385680e-002
7.868270e+002,2.367316e-002
7.887555e+002,2.359182e-002
7.906840e+002,2.344743e-002
7.926124e+002,2.334752e-002
7.945410e+002,2.331043e-002
7.964695e+002,2.309463e-002
7.983979e+002,2.289498e-002
8.003264e+002,2.285107e-002
8.022549e+002,2.272086e-002
8.041835e+002,2.267520e-002
8.061119e+002,2.272530e-002
8.080404e+002,2.269967e-002
8.099689e+002,2.251174e-002
8.118975e+002,2.242388e-002
8.138259e+002,2.234769e-002
8.157545e+002,2.222806e-002
8.176830e+002,2.207568e-002
8.196115e+002,2.198408e-002
8.215399e+002,2.186500e-002
8.234684e+002,2.173166e-002
8.253970e+002,2.158573e-002
8.273254e+002,2.147118e-002
8.292539e+002,2.142443e-002
8.311824e+002,2.143303e-002
8.331110e+002,2.141023e-002
8.350394e+002,2.144859e-002
8.369679e+002,2.144525e-002
8.388964e+002,2.140351e-002
8.408250e+002,2.134281e-002
8.427534e+002,2.129002e-002
8.446819e+002,2.120957e-002
8.466104e+002,2.109098e-002
8.485389e+002,2.099099e-002
8.504674e+002,2.094839e-002
8.523959e+002,2.094804e-002
8.543244e+002,2.094419e-002
8.562529e+002,2.094728e-002
8.581814e+002,2.091706e-002
8.601099e+002,2.084583e-002
8.620384e+002,2.088431e-002
8.639669e+002,2.095232e-002
8.658954e+002,2.109954e-002
8.678239e+002,2.124722e-002
8.697524e+002,2.140139e-002
8.716809e+002,2.154054e-002
8.736094e+002,2.162108e-002
8.755378e+002,2.173020e-002
8.774664e+002,2.182123e-002
8.793949e+002,2.199342e-002
8.813234e+002,2.229882e-002
8.832518e+002,2.268790e-002
8.851804e+002,2.315824e-002
8.871089e+002,2.364493e-002
8.890374e+002,2.416999e-002
8.909658e+002,2.471576e-002
8.928943e+002,2.516747e-002
8.948229e+002,2.565118e-002
8.967513e+002,2.584536e-002
8.986798e+002,2.572739e-002
9.006083e+002,2.550938e-002
9.025369e+002,2.517291e-002
9.044653e+002,2.475308e-002
9.063938e+002,2.432549e-002
9.083223e+002,2.403756e-002
9.102509e+002,2.387010e-002
9.121793e+002,2.376285e-002
9.141078e+002,2.371764e-002
9.160364e+002,2.375918e-002
9.179648e+002,2.391911e-002
9.198933e+002,2.394869e-002
9.218218e+002,2.405627e-002
9.237504e+002,2.430026e-002
9.256788e+002,2.446705e-002
9.276073e+002,2.466869e-002
9.295358e+002,2.486650e-002
9.314644e+002,2.514588e-002
9.333928e+002,2.549353e-002
9.353213e+002,2.580738e-002
9.372498e+002,2.610672e-002
9.391783e+002,2.654759e-002
9.411068e+002,2.711314e-002
9.430353e+002,2.770086e-002
9.449637e+002,2.828139e-002
9.468923e+002,2.895294e-002
9.488208e+002,2.966805e-002
9.507493e+002,3.042024e-002
9.526777e+002,3.125719e-002
9.546063e+002,3.213628e-002
9.565348e+002,3.292242e-002
9.584633e+002,3.378348e-002
9.603917e+002,3.470822e-002
9.623203e+002,3.555654e-002
9.642488e+002,3.642475e-002
9.661772e+002,3.731206e-002
9.681057e+002,3.809325e-002
9.700343e+002,3.883304e-002
9.719628e+002,3.959044e-002
9.738912e+002,4.049811e-002
9.758197e+002,4.143564e-002
9.777483e+002,4.254670e-002
9.796768e+002,4.380118e-002
9.816052e+002,4.519932e-002
9.835337e+002,4.665912e-002
9.854623e+002,4.816701e-002
9.873907e+002,4.951423e-002
9.893192e+002,5.055646e-002
9.912477e+002,5.126945e-002
9.931763e+002,5.168143e-002
9.951047e+002,5.188398e-002
9.970332e+002,5.224486e-002
9.989617e+002,5.284891e-002
1.000890e+003,5.369809e-002
1.002819e+003,5.468575e-002
1.004747e+003,5.559207e-002
1.006676e+003,5.650260e-002
1.008604e+003,5.744930e-002
1.010533e+003,5.827048e-002
1.012461e+003,5.915190e-002
1.014390e+003,6.023399e-002
1.016318e+003,6.142487e-002
1.018247e+003,6.265812e-002
1.020175e+003,6.392066e-002
1.022104e+003,6.513146e-002
1.024032e+003,6.640574e-002
1.025961e+003,6.775852e-002
1.027889e+003,6.915119e-002
1.029818e+003,7.034066e-002
1.031746e+003,7.136343e-002
1.033675e+003,7.210503e-002
1.035603e+003,7.243735e-002
1.037532e+003,7.226403e-002
1.039460e+003,7.171449e-002
1.041389e+003,7.100466e-002
1.043317e+003,7.044525e-002
1.045246e+003,7.001341e-002
1.047174e+003,6.958566e-002
1.049103e+003,6.914477e-002
1.051031e+003,6.871241e-002
1.052960e+003,6.827957e-002
1.054888e+003,6.762953e-002
1.056817e+003,6.671522e-002
1.058745e+003,6.577445e-002
1.060674e+003,6.475402e-002
1.062602e+003,6.370731e-002
1.064531e+003,6.261589e-002
1.066459e+003,6.149362e-002
1.068388e+003,6.035984e-002
1.070316e+003,5.927379e-002
1.072245e+003,5.831546e-002
1.074173e+003,5.739938e-002
1.076102e+003,5.639472e-002
1.078030e+003,5.536456e-002
1.079959e+003,5.430628e-002
1.081887e+003,5.333788e-002
1.083816e+003,5.249142e-002
1.085744e+003,5.182130e-002
1.087673e+003,5.125185e-002
1.089601e+003,5.080191e-002
1.091530e+003,5.037168e-002
1.093458e+003,5.000834e-002
1.095387e+003,4.967900e-002
1.097315e+003,4.930354e-002
1.099244e+003,4.901434e-002
1.101172e+003,4.876623e-002
1.103101e+003,4.848405e-002
1.105029e+003,4.812307e-002
1.106958e+003,4.748030e-002
1.108886e+003,4.662813e-002
1.110815e+003,4.546917e-002
1.112743e+003,4.415723e-002
1.114672e+003,4.275615e-002
1.116600e+003,4.140305e-002
1.118529e+003,4.030069e-002
1.120457e+003,3.928685e-002
1.122386e+003,3.824346e-002
1.124314e+003,3.720538e-002
1.126243e+003,3.607177e-002
1.128171e+003,3.492926e-002
1.130100e+003,3.384032e-002
1.132028e+003,3.284519e-002
1.133957e+003,3.198314e-002
1.135885e+003,3.117786e-002
1.137814e+003,3.053497e-002
1.139742e+003,3.012601e-002
1.141671e+003,2.995462e-002
1.143599e+003,3.001604e-002
1.145528e+003,3.020660e-002
1.147456e+003,3.049360e-002
1.149385e+003,3.085523e-002
1.151313e+003,3.119395e-002
1.153242e+003,3.160460e-002
1.155170e+003,3.201852e-002
1.157099e+003,3.236040e-002
1.159027e+003,3.257439e-002
1.160956e+003,3.258549e-002
1.162884e+003,3.237054e-002
1.164813e+003,3.185137e-002
1.166741e+003,3.103737e-002
1.168670e+003,2.994220e-002
1.170598e+003,2.872614e-002
1.172526e+003,2.746551e-002
1.174455e+003,2.621592e-002
1.176384e+003,2.511888e-002
1.178312e+003,2.410075e-002
1.180240e+003,2.318714e-002
1.182169e+003,2.248578e-002
1.184098e+003,2.193023e-002
1.186026e+003,2.143100e-002
1.187954e+003,2.113050e-002
1.189883e+003,2.097953e-002
1.191812e+003,2.093516e-002
1.193740e+003,2.100119e-002
1.195668e+003,2.113495e-002
1.197597e+003,2.131190e-002
1.199526e+003,2.146745e-002
1.201454e+003,2.158669e-002
1.203382e+003,2.156301e-002
1.205311e+003,2.143768e-002
1.207240e+003,2.126266e-002
1.209168e+003,2.112568e-002
1.211096e+003,2.110461e-002
1.213025e+003,2.116466e-002
1.214953e+003,2.126589e-002
1.216882e+003,2.142423e-002
1.218810e+003,2.163153e-002
1.220739e+003,2.183745e-002
1.222667e+003,2.210623e-002
1.224596e+003,2.243787e-002
1.226524e+003,2.277587e-002
1.228453e+003,2.308213e-002
1.230381e+003,2.336041e-002
1.232310e+003,2.361045e-002
1.234238e+003,2.376596e-002
1.236167e+003,2.389874e-002
1.238095e+003,2.391557e-002
1.240024e+003,2.385914e-002
1.241952e+003,2.385016e-002
1.243881e+003,2.380188e-002
1.245809e+003,2.366414e-002
1.247738e+003,2.346110e-002
1.249666e+003,2.318125e-002
1.251595e+003,2.291050e-002
1.253523e+003,2.260314e-002
1.255452e+003,2.230758e-002
1.257380e+003,2.197147e-002
1.259309e+003,2.165470e-002
1.261237e+003,2.131178e-002
1.263166e+003,2.096109e-002
1.265094e+003,2.059461e-002
1.267023e+003,2.019634e-002
1.268951e+003,1.983346e-002
1.270880e+003,1.951684e-002
1.272808e+003,1.915852e-002
1.274737e+003,1.889165e-002
1.276665e+003,1.866239e-002
1.278594e+003,1.847902e-002
1.280522e+003,1.835668e-002
1.282451e+003,1.823018e-002
1.284379e+003,1.809098e-002
1.286308e+003,1.799650e-002
1.288236e+003,1.790093e-002
1.290165e+003,1.784116e-002
1.292093e+003,1.787836e-002
1.294022e+003,1.799586e-002
1.295950e+003,1.814689e-002
1.297879e+003,1.832515e-002
1.299807e+003,1.855337e-002
1.301736e+003,1.886203e-002
1.303664e+003,1.918730e-002
1.305593e+003,1.948730e-002
1.307521e+003,1.985684e-002
1.309450e+003,2.023108e-002
1.311378e+003,2.063974e-002
1.313307e+003,2.101185e-002
1.315235e+003,2.127253e-002
1.317164e+003,2.143124e-002
1.319092e+003,2.147091e-002
1.321021e+003,2.141242e-002
1.322949e+003,2.128352e-002
1.324878e+003,2.110915e-002
1.326806e+003,2.093461e-002
1.328735e+003,2.073842e-002
1.330663e+003,2.048556e-002
1.332592e+003,2.023176e-002
1.334520e+003,2.000888e-002
1.336449e+003,1.980051e-002
1.338377e+003,1.958443e-002
1.340306e+003,1.938256e-002
1.342234e+003,1.921610e-002
1.344163e+003,1.913619e-002
1.346091e+003,1.912926e-002
1.348020e+003,1.919414e-002
1.349948e+003,1.930865e-002
1.351877e+003,1.948964e-002
1.353805e+003,1.965203e-002
1.355734e+003,1.982324e-002
1.357662e+003,2.000734e-002
1.359591e+003,2.019091e-002
1.361519e+003,2.040556e-002
1.363448e+003,2.054529e-002
1.365376e+003,2.065695e-002
1.367305e+003,2.075066e-002
1.369233e+003,2.073246e-002
1.371162e+003,2.062691e-002
1.373090e+003,2.043074e-002
1.375019e+003,2.018878e-002
1.376947e+003,1.989323e-002
1.378876e+003,1.957996e-002
1.380804e+003,1.918011e-002
1.382733e+003,1.879216e-002
1.384661e+003,1.840721e-002
1.386590e+003,1.807969e-002
1.388518e+003,1.782138e-002
1.390447e+003,1.761550e-002
1.392375e+003,1.743105e-002
1.394304e+003,1.727867e-002
1.396232e+003,1.717758e-002
1.398161e+003,1.712327e-002
1.400089e+003,1.713030e-002
1.402018e+003,1.716704e-002
1.403946e+003,1.720699e-002
1.405875e+003,1.731681e-002
1.407803e+003,1.739205e-002
1.409732e+003,1.748019e-002
1.411660e+003,1.765943e-002
1.413589e+003,1.778951e-002
1.415517e+003,1.792253e-002
1.417446e+003,1.809290e-002
1.419374e+003,1.825358e-002
1.421303e+003,1.838209e-002
1.423231e+003,1.845477e-002
1.425160e+003,1.850593e-002
1.427088e+003,1.843756e-002
1.429017e+003,1.829638e-002
1.430945e+003,1.820086e-002
1.432874e+003,1.808654e-002
1.434802e+003,1.792610e-002
1.436731e+003,1.773396e-002
1.438659e+003,1.756807e-002
1.440588e+003,1.741364e-002
1.442516e+003,1.726343e-002
1.444445e+003,1.721190e-002
1.446373e+003,1.716761e-002
1.448302e+003,1.710102e-002
1.450230e+003,1.707487e-002
1.452159e+003,1.703531e-002
1.454087e+003,1.696193e-002
1.456016e+003,1.685654e-002
1.457944e+003,1.671237e-002
1.459873e+003,1.658165e-002
1.461801e+003,1.647607e-002
1.463730e+003,1.635586e-002
1.465658e+003,1.610276e-002
1.467587e+003,1.572201e-002
1.469515e+003,1.525201e-002
1.471444e+003,1.475277e-002
1.473372e+003,1.428431e-002
1.475301e+003,1.391030e-002
1.477229e+003,1.361271e-002
1.479158e+003,1.335796e-002
1.481086e+003,1.321919e-002
1.483015e+003,1.315992e-002
1.484943e+003,1.319487e-002
1.486872e+003,1.327502e-002
1.488800e+003,1.337467e-002
1.490729e+003,1.353151e-002
1.492657e+003,1.373173e-002
1.494586e+003,1.392318e-002
1.496514e+003,1.406612e-002
1.498443e+003,1.420851e-002
1.500371e+003,1.433129e-002
1.502300e+003,1.439012e-002
1.504228e+003,1.444969e-002
1.506157e+003,1.457366e-002
1.508085e+003,1.467733e-002
1.510014e+003,1.480055e-002
1.511942e+003,1.491661e-002
1.513871e+003,1.504305e-002
1.515799e+003,1.510651e-002
1.517728e+003,1.502227e-002
1.519656e+003,1.488088e-002
1.521585e+003,1.472623e-002
1.523513e+003,1.461791e-002
1.525442e+003,1.455765e-002
1.527370e+003,1.451169e-002
1.529299e+003,1.448232e-002
1.531227e+003,1.448380e-002
1.533156e+003,1.449978e-002
1.535084e+003,1.452188e-002
1.537013e+003,1.454256e-002
1.538941e+003,1.452543e-002
1.540870e+003,1.456037e-002
1.542798e+003,1.462138e-002
1.544727e+003,1.462821e-002
1.546655e+003,1.460662e-002
1.548584e+003,1.458264e-002
1.550512e+003,1.452684e-002
1.552441e+003,1.447299e-002
1.554369e+003,1.444246e-002
1.556298e+003,1.443604e-002
1.558226e+003,1.444125e-002
1.560155e+003,1.447979e-002
1.562083e+003,1.450849e-002
1.564012e+003,1.454186e-002
1.565940e+003,1.460315e-002
1.567869e+003,1.468030e-002
1.569797e+003,1.479142e-002
1.571726e+003,1.491165e-002
1.573654e+003,1.509529e-002
1.575583e+003,1.526340e-002
1.577511e+003,1.545703e-002
1.579440e+003,1.562750e-002
1.581368e+003,1.585436e-002
1.583297e+003,1.611812e-002
1.585225e+003,1.639431e-002
1.587154e+003,1.667122e-002
1.589082e+003,1.696444e-002
1.591010e+003,1.724791e-002
1.592939e+003,1.748545e-002
1.594868e+003,1.770158e-002
1.596796e+003,1.789777e-002
1.598724e+003,1.809488e-002
1.600653e+003,1.829325e-002
1.602582e+003,1.846998e-002
1.604510e+003,1.865659e-002
1.606438e+003,1.883716e-002
1.608367e+003,1.904444e-002
1.610296e+003,1.927418e-002
1.612224e+003,1.953276e-002
1.614152e+003,1.980814e-002
1.616081e+003,2.007856e-002
1.618010e+003,2.027790e-002
1.619938e+003,2.047486e-002
1.621866e+003,2.067482e-002
1.623795e+003,2.078852e-002
1.625724e+003,2.083245e-002
1.627652e+003,2.085063e-002
1.629580e+003,2.076977e-002
1.631509e+003,2.062866e-002
1.633438e+003,2.054923e-002
1.635366e+003,2.047100e-002
1.637294e+003,2.040399e-002
1.639223e+003,2.037846e-002
1.641151e+003,2.031742e-002
1.643080e+003,2.029827e-002
1.645008e+003,2.026932e-002
1.646937e+003,2.023977e-002
1.648865e+003,2.022108e-002
1.650794e+003,2.014437e-002
1.652722e+003,1.997958e-002
1.654651e+003,1.980209e-002
1.656579e+003,1.954964e-002
1.658508e+003,1.918028e-002
1.660436e+003,1.876673e-002
1.662365e+003,1.833972e-002
1.664293e+003,1.793651e-002
1.666222e+003,1.754489e-002
1.668150e+003,1.709823e-002
1.670079e+003,1.665280e-002
1.672007e+003,1.626110e-002
1.673936e+003,1.588465e-002
1.675864e+003,1.550363e-002
1.677793e+003,1.514073e-002
1.679721e+003,1.481244e-002
1.681650e+003,1.450373e-002
1.683578e+003,1.417704e-002
1.685507e+003,1.392292e-002
1.687435e+003,1.378682e-002
1.689364e+003,1.357380e-002
1.691292e+003,1.337348e-002
1.693221e+003,1.323584e-002
1.695149e+003,1.306588e-002
1.697078e+003,1.293285e-002
1.699006e+003,1.282541e-002
1.700935e+003,1.270077e-002
1.702863e+003,1.262624e-002
1.704792e+003,1.258552e-002
1.706720e+003,1.263276e-002
1.708649e+003,1.270621e-002
1.710577e+003,1.278044e-002
1.712506e+003,1.286250e-002
1.714434e+003,1.297850e-002
1.716363e+003,1.318052e-002
1.718291e+003,1.332004e-002
1.720220e+003,1.342967e-002
1.722148e+003,1.358896e-002
1.724077e+003,1.375742e-002
1.726005e+003,1.391836e-002
1.727934e+003,1.402041e-002
1.729862e+003,1.405994e-002
1.731791e+003,1.406212e-002
1.733719e+003,1.399343e-002
1.735648e+003,1.382371e-002
1.737576e+003,1.345017e-002
1.739505e+003,1.305781e-002
1.741433e+003,1.264889e-002
1.743362e+003,1.217458e-002
1.745290e+003,1.175599e-002
1.747219e+003,1.140508e-002
1.749147e+003,1.106020e-002
1.751076e+003,1.076559e-002
1.753004e+003,1.054693e-002
1.754933e+003,1.029085e-002
1.756861e+003,1.009321e-002
1.758790e+003,9.937714e-003
1.760718e+003,9.804761e-003
1.762647e+003,9.666763e-003
1.764575e+003,9.536443e-003
1.766504e+003,9.439934e-003
1.768432e+003,9.394039e-003
1.770361e+003,9.323099e-003
1.772289e+003,9.251630e-003
1.774218e+003,9.256461e-003
1.776146e+003,9.249537e-003
1.778075e+003,9.221932e-003
1.780003e+003,9.184657e-003
1.781932e+003,9.192664e-003
1.783860e+003,9.185516e-003
1.785789e+003,9.189580e-003
1.787717e+003,9.221315e-003
1.789646e+003,9.199653e-003
1.791574e+003,9.177113e-003
1.793503e+003,9.204736e-003
1.795431e+003,9.199148e-003
1.797360e+003,9.207128e-003
1.799288e+003,9.228844e-003
1.801217e+003,9.265721e-003
1.803145e+003,9.260580e-003
1.805074e+003,9.245045e-003
1.807002e+003,9.234461e-003
1.808931e+003,9.267511e-003
1.810859e+003,9.332929e-003
1.812788e+003,9.362328e-003
1.814716e+003,9.359587e-003
1.816645e+003,9.320026e-003
1.818573e+003,9.293916e-003
1.820502e+003,9.248815e-003
1.822430e+003,9.289191e-003
1.824359e+003,9.292380e-003
1.826287e+003,9.266251e-003
1.828216e+003,9.214361e-003
1.830144e+003,9.253594e-003
1.832073e+003,9.288855e-003
1.834001e+003,9.234563e-003
1.835930e+003,9.239099e-003
1.837858e+003,9.302084e-003
1.839787e+003,9.288562e-003
1.841715e+003,9.337624e-003
1.843644e+003,9.449302e-003
1.845572e+003,9.463969e-003
1.847501e+003,9.441116e-003
1.849429e+003,9.367540e-003
1.851358e+003,9.399896e-003
1.853286e+003,9.353152e-003
1.855215e+003,9.243300e-003
1.857143e+003,9.310918e-003
1.859072e+003,9.374318e-003
1.861000e+003,9.399801e-003
1.862929e+003,9.294922e-003
1.864857e+003,9.286895e-003
1.866786e+003,9.395908e-003
1.868714e+003,9.440502e-003
1.870643e+003,9.527640e-003
1.872571e+003,9.668559e-003
1.874500e+003,9.719927e-003
1.876428e+003,9.622276e-003
1.878357e+003,9.590568e-003
1.880285e+003,9.465124e-003
1.882214e+003,9.331424e-003
1.884142e+003,9.356702e-003
1.886071e+003,9.495895e-003
1.887999e+003,9.553814e-003
1.889928e+003,9.443286e-003
1.891856e+003,9.461169e-003
1.893785e+003,9.564864e-003
1.895713e+003,9.647370e-003
1.897642e+003,9.481171e-003
1.899570e+003,9.468713e-003
1.901499e+003,9.519232e-003
1.903427e+003,9.350360e-003
1.905356e+003,9.311549e-003
1.907284e+003,9.430831e-003
1.909213e+003,9.512490e-003
1.911141e+003,9.563825e-003
1.913070e+003,9.497990e-003
1.914998e+003,9.470575e-003
1.916927e+003,9.569088e-003
1.918855e+003,9.551574e-003
1.920784e+003,9.535950e-003
1.922712e+003,9.518407e-003
1.924641e+003,9.768004e-003
1.926569e+003,9.714538e-003
1.928498e+003,9.702585e-003
1.930426e+003,9.683256e-003
1.932355e+003,9.735894e-003
1.934283e+003,9.633474e-003
1.936212e+003,9.448715e-003
1.938140e+003,9.757694e-003
1.940069e+003,9.843512e-003
1.941997e+003,9.797906e-003
1.943926e+003,9.622421e-003
1.945854e+003,9.485418e-003
1.947783e+003,9.330004e-003
1.949711e+003,9.482221e-003
1.951640e+003,9.205113e-003
1.953568e+003,8.629856e-003
1.955497e+003,8.713844e-003
1.957425e+003,9.063187e-003
1.959354e+003,8.736678e-003
1.961282e+003,8.451610e-003
1.963211e+003,8.161752e-003
1.965139e+003,8.208800e-003
1.967068e+003,9.050201e-003
1.968996e+003,9.091218e-003
1.970925e+003,8.559604e-003
1.972853e+003,8.034946e-003
1.974782e+003,7.325856e-003
1.976710e+003,6.341498e-003
1.978639e+003,6.670282e-003
1.980567e+003,7.372324e-003
1.982496e+003,7.149969e-003
1.984424e+003,7.248813e-003
1.986353e+003,7.510881e-003
1.988281e+003,7.346754e-003
1.990210e+003,7.635155e-003
1.992138e+003,7.414595e-003
1.994067e+003,6.951692e-003
1.995995e+003,7.069872e-003
1.997924e+003,7.023569e-003
1.999852e+003,7.071635e-003
2.001781e+003,6.484559e-003
2.003709e+003,5.579120e-003
2.005638e+003,5.705144e-003
2.007566e+003,5.238425e-003
2.009495e+003,4.761784e-003
2.011423e+003,5.620919e-003
2.013352e+003,5.433843e-003
2.015280e+003,4.942231e-003
2.017208e+003,5.449606e-003
2.019137e+003,5.439840e-003
2.021066e+003,4.554904e-003
2.022994e+003,5.038830e-003
2.024922e+003,4.966480e-003
2.026851e+003,5.103518e-003
2.028780e+003,4.520926e-003
2.030708e+003,4.142764e-003
2.032636e+003,4.687255e-003
2.034565e+003,4.087056e-003
2.036494e+003,3.941573e-003
2.038422e+003,4.836797e-003
2.040350e+003,5.000802e-003
2.042279e+003,4.969816e-003
2.044208e+003,5.180649e-003
2.046136e+003,5.266346e-003
2.048064e+003,5.573450e-003
2.049993e+003,5.388718e-003
2.051921e+003,5.186435e-003
2.053850e+003,5.414029e-003
2.055778e+003,6.001653e-003
2.057707e+003,6.250839e-003
2.059635e+003,6.282338e-003
2.061564e+003,6.404326e-003
2.063492e+003,6.212305e-003
2.065421e+003,6.331895e-003
2.067349e+003,6.769910e-003
2.069278e+003,7.059315e-003
2.071206e+003,7.280852e-003
2.073135e+003,7.063502e-003
2.075063e+003,6.909477e-003
2.076992e+003,6.870714e-003
2.078920e+003,6.946997e-003
2.080849e+003,7.434994e-003
2.082777e+003,7.462536e-003
2.084706e+003,7.595434e-003
2.086634e+003,7.542044e-003
2.088563e+003,7.679372e-003
2.090491e+003,7.606943e-003
2.092420e+003,7.476136e-003
2.094348e+003,7.639547e-003
2.096277e+003,7.886353e-003
2.098205e+003,7.757359e-003
2.100134e+003,7.786470e-003
2.102062e+003,7.838760e-003
2.103991e+003,7.872702e-003
2.105919e+003,8.153982e-003
2.107848e+003,8.206789e-003
2.109776e+003,8.340693e-003
2.111705e+003,8.488626e-003
2.113633e+003,8.695187e-003
2.115562e+003,8.634175e-003
2.117490e+003,8.593956e-003
2.119419e+003,8.822783e-003
2.121347e+003,8.929479e-003
2.123276e+003,8.595342e-003
2.125204e+003,8.515927e-003
2.127133e+003,8.922546e-003
2.129061e+003,9.111515e-003
2.130990e+003,8.932895e-003
2.132918e+003,8.313335e-003
2.134847e+003,7.796017e-003
2.136775e+003,7.863997e-003
2.138704e+003,7.912213e-003
2.140632e+003,8.100540e-003
2.142561e+003,7.380071e-003
2.144489e+003,6.856255e-003
2.146418e+003,7.308932e-003
2.148346e+003,7.278404e-003
2.150275e+003,6.957520e-003
2.152203e+003,6.727890e-003
2.154132e+003,6.381318e-003
2.156060e+003,4.982709e-003
2.157989e+003,4.636154e-003
2.159917e+003,4.910890e-003
2.161846e+003,5.695248e-003
2.163774e+003,6.028237e-003
2.165703e+003,5.490948e-003
2.167631e+003,5.280235e-003
2.169560e+003,5.929909e-003
2.171488e+003,6.070201e-003
2.173417e+003,5.622472e-003
2.175345e+003,5.552459e-003
2.177274e+003,5.583638e-003
2.179202e+003,5.356578e-003
2.181131e+003,5.787479e-003
2.183059e+003,5.979355e-003
2.184988e+003,5.743057e-003
2.186916e+003,5.530310e-003
2.188845e+003,5.664062e-003
2.190773e+003,5.701358e-003
2.192702e+003,5.597936e-003
2.194630e+003,5.593271e-003
2.196559e+003,5.886883e-003
2.198487e+003,6.052931e-003
2.200416e+003,6.278204e-003
2.202344e+003,6.161940e-003
2.204273e+003,6.553443e-003
2.206201e+003,6.819566e-003
2.208130e+003,6.917422e-003
2.210058e+003,7.130479e-003
2.211987e+003,6.988699e-003
2.213915e+003,6.750100e-003
2.215844e+003,6.743235e-003
2.217772e+003,6.724491e-003
2.219701e+003,6.546480e-003
2.221629e+003,7.134959e-003
2.223558e+003,7.342057e-003
2.225486e+003,7.009407e-003
2.227415e+003,7.149645e-003
2.229343e+003,7.621679e-003
2.231272e+003,8.043450e-003
2.233200e+003,7.885133e-003
2.235129e+003,7.495371e-003
2.237057e+003,7.470680e-003
2.238986e+003,7.593912e-003
2.240914e+003,7.784243e-003
2.242843e+003,8.107239e-003
2.244771e+003,8.482142e-003
2.246700e+003,8.202268e-003
2.248628e+003,7.799033e-003
2.250557e+003,7.925958e-003
2.252485e+003,8.214375e-003
2.254414e+003,7.960422e-003
2.256342e+003,7.886021e-003
2.258271e+003,8.181266e-003
2.260199e+003,8.267617e-003
2.262128e+003,8.203085e-003
2.264056e+003,7.998147e-003
2.265985e+003,8.015622e-003
2.267913e+003,7.989942e-003
2.269842e+003,8.132608e-003
2.271770e+003,8.484373e-003
2.273699e+003,8.700914e-003
2.275627e+003,8.887435e-003
2.277556e+003,8.930109e-003
2.279484e+003,8.908546e-003
2.281413e+003,8.935991e-003
2.283341e+003,8.941475e-003
2.285270e+003,9.025626e-003
2.287198e+003,9.223446e-003
2.289127e+003,9.435843e-003
2.291055e+003,9.352513e-003
2.292984e+003,9.334151e-003
2.294912e+003,9.592897e-003
2.296841e+003,9.728508e-003
2.298769e+003,9.655835e-003
2.300698e+003,9.631136e-003
2.302626e+003,9.811662e-003
2.304555e+003,9.921546e-003
2.306483e+003,1.003875e-002
2.308412e+003,1.013917e-002
2.310340e+003,1.015389e-002
2.312269e+003,1.029612e-002
2.314197e+003,1.029079e-002
2.316125e+003,1.024370e-002
2.318054e+003,1.029698e-002
2.319983e+003,1.047455e-002
2.321911e+003,1.051540e-002
2.323840e+003,1.075168e-002
2.325768e+003,1.102773e-002
2.327697e+003,1.090080e-002
2.329625e+003,1.077805e-002
2.331553e+003,1.060083e-002
2.333482e+003,1.040046e-002
2.335411e+003,1.042988e-002
2.337339e+003,1.040018e-002
2.339268e+003,1.040190e-002
2.341196e+003,1.016018e-002
2.343125e+003,1.001758e-002
2.345053e+003,9.784937e-003
2.346981e+003,9.697732e-003
2.348910e+003,9.480330e-003
2.350839e+003,9.542972e-003
2.352767e+003,9.347305e-003
2.354696e+003,9.119190e-003
2.356624e+003,9.296237e-003
2.358552e+003,9.308791e-003
2.360481e+003,9.248661e-003
2.362409e+003,9.367870e-003
2.364338e+003,9.488340e-003
2.366267e+003,9.336753e-003
2.368195e+003,9.353261e-003
2.370124e+003,9.322750e-003
2.372052e+003,9.601039e-003
2.373980e+003,9.880641e-003
2.375909e+003,9.991010e-003
2.377838e+003,9.819954e-003
2.379766e+003,9.721009e-003
2.381695e+003,9.800323e-003
2.383623e+003,9.857744e-003
2.385552e+003,9.754148e-003
2.387480e+003,9.665054e-003
2.389408e+003,9.654198e-003
2.391337e+003,9.657538e-003
2.393266e+003,9.748121e-003
2.395194e+003,9.702571e-003
2.397123e+003,9.668540e-003
2.399051e+003,9.790543e-003
2.400979e+003,9.814158e-003
2.402908e+003,9.748752e-003
2.404836e+003,9.710937e-003
2.406765e+003,9.688405e-003
2.408694e+003,9.746686e-003
2.410622e+003,9.886827e-003
2.412551e+003,9.945778e-003
2.414479e+003,1.003203e-002
2.416407e+003,1.004119e-002
2.418336e+003,1.015527e-002
2.420264e+003,1.018271e-002
2.422193e+003,9.943914e-003
2.424122e+003,9.803346e-003
2.426050e+003,9.869100e-003
2.427979e+003,9.916861e-003
2.429907e+003,9.922047e-003
2.431835e+003,9.933676e-003
2.433764e+003,9.897844e-003
2.435692e+003,9.859236e-003
2.437621e+003,9.891165e-003
2.439550e+003,9.988428e-003
2.441478e+003,1.006408e-002
2.443406e+003,1.002447e-002
2.445335e+003,1.011122e-002
2.447263e+003,1.029361e-002
2.449192e+003,1.028991e-002
2.451121e+003,1.017199e-002
2.453049e+003,1.004193e-002
2.454978e+003,9.948015e-003
2.456906e+003,1.011929e-002
2.458834e+003,1.025039e-002
2.460763e+003,1.010999e-002
2.462691e+003,1.001172e-002
2.464620e+003,1.017260e-002
2.466549e+003,1.030410e-002
2.468477e+003,1.026942e-002
2.470406e+003,1.018346e-002
2.472334e+003,1.019581e-002
2.474262e+003,1.024265e-002
2.476191e+003,1.032792e-002
2.478119e+003,1.031892e-002
2.480048e+003,1.014025e-002
2.481977e+003,1.014900e-002
2.483905e+003,1.022739e-002
2.485833e+003,1.023560e-002
2.487762e+003,1.015161e-002
2.489690e+003,1.008154e-002
2.491619e+003,1.002559e-002
2.493547e+003,9.961237e-003
2.495476e+003,1.001098e-002
2.497405e+003,1.009439e-002
2.499333e+003,1.011698e-002
2.501261e+003,1.016019e-002
2.503190e+003,1.026070e-002
2.505118e+003,1.024686e-002
2.507047e+003,1.016453e-002
2.508975e+003,1.011705e-002
2.510904e+003,1.021565e-002
2.512833e+003,1.028784e-002
2.514761e+003,1.020734e-002
2.516689e+003,1.021901e-002
2.518618e+003,1.025846e-002
2.520546e+003,1.016365e-002
2.522475e+003,1.024537e-002
2.524403e+003,1.025636e-002
2.526332e+003,1.028191e-002
2.528260e+003,1.035747e-002
2.530189e+003,1.045365e-002
2.532117e+003,1.039147e-002
2.534046e+003,1.035801e-002
2.535974e+003,1.037763e-002
2.537903e+003,1.027780e-002
2.539831e+003,1.025164e-002
2.541760e+003,1.031641e-002
2.543688e+003,1.030135e-002
2.545617e+003,1.038906e-002
2.547545e+003,1.047113e-002
2.549474e+003,1.040006e-002
2.551402e+003,1.025555e-002
2.553331e+003,1.016236e-002
2.555259e+003,1.027288e-002
2.557188e+003,1.035208e-002
2.559116e+003,1.033443e-002
2.561045e+003,1.024934e-002
2.562973e+003,1.026973e-002
2.564902e+003,1.040990e-002
2.566830e+003,1.051088e-002
2.568759e+003,1.044958e-002
2.570687e+003,1.043922e-002
2.572616e+003,1.026572e-002
2.574544e+003,1.011915e-002
2.576473e+003,1.015236e-002
2.578401e+003,1.019849e-002
2.580330e+003,1.017549e-002
2.582258e+003,1.016898e-002
2.584187e+003,1.011796e-002
2.586115e+003,1.009633e-002
2.588044e+003,1.023991e-002
2.589972e+003,1.035598e-002
2.591901e+003,1.027142e-002
2.593829e+003,1.018132e-002
2.595758e+003,1.019913e-002
2.597686e+003,1.017847e-002
2.599615e+003,1.010976e-002
2.601543e+003,1.009514e-002
2.603472e+003,1.014201e-002
2.605400e+003,1.010233e-002
2.607329e+003,1.005892e-002
2.609257e+003,1.011050e-002
2.611186e+003,1.003098e-002
2.613114e+003,1.005004e-002
2.615043e+003,1.010816e-002
2.616971e+003,1.002515e-002
2.618900e+003,1.002200e-002
2.620828e+003,1.005879e-002
2.622757e+003,1.008293e-002
2.624685e+003,1.007222e-002
2.626614e+003,1.012030e-002
2.628542e+003,1.014028e-002
2.630471e+003,1.022586e-002
2.632399e+003,1.028048e-002
2.634328e+003,1.031919e-002
2.636256e+003,1.036490e-002
2.638185e+003,1.038645e-002
2.640113e+003,1.048226e-002
2.642042e+003,1.052456e-002
2.643970e+003,1.059022e-002
2.645899e+003,1.062230e-002
2.647827e+003,1.069052e-002
2.649756e+003,1.076718e-002
2.651684e+003,1.079163e-002
2.653613e+003,1.089579e-002
2.655541e+003,1.091009e-002
2.657470e+003,1.090540e-002
2.659398e+003,1.098733e-002
2.661327e+003,1.105693e-002
2.663255e+003,1.112560e-002
2.665184e+003,1.116697e-002
2.667112e+003,1.117360e-002
2.669041e+003,1.119114e-002
2.670969e+003,1.118760e-002
2.672898e+003,1.120545e-002
2.674826e+003,1.124765e-002
2.676755e+003,1.129431e-002
2.678683e+003,1.133614e-002
2.680612e+003,1.137481e-002
2.682540e+003,1.140569e-002
2.684469e+003,1.144161e-002
2.686397e+003,1.147652e-002
2.688326e+003,1.150745e-002
2.690254e+003,1.152793e-002
2.692183e+003,1.151258e-002
2.694111e+003,1.149669e-002
2.696040e+003,1.152663e-002
2.697968e+003,1.157870e-002
2.699897e+003,1.160163e-002
2.701825e+003,1.160558e-002
2.703754e+003,1.164326e-002
2.705682e+003,1.162951e-002
2.707611e+003,1.159006e-002
2.709539e+003,1.162256e-002
2.711468e+003,1.172072e-002
2.713396e+003,1.170313e-002
2.715325e+003,1.168747e-002
2.717253e+003,1.171170e-002
2.719182e+003,1.169761e-002
2.721110e+003,1.171259e-002
2.723039e+003,1.174200e-002
2.724967e+003,1.173492e-002
2.726896e+003,1.171027e-002
2.728824e+003,1.173597e-002
2.730753e+003,1.177904e-002
2.732681e+003,1.177271e-002
2.734610e+003,1.178272e-002
2.736538e+003,1.182105e-002
2.738467e+003,1.177472e-002
2.740395e+003,1.181036e-002
2.742324e+003,1.184254e-002
2.744252e+003,1.185432e-002
2.746181e+003,1.182541e-002
2.748109e+003,1.178840e-002
2.750038e+003,1.180689e-002
2.751966e+003,1.185418e-002
2.753895e+003,1.187066e-002
2.755823e+003,1.186150e-002
2.757752e+003,1.185037e-002
2.759680e+003,1.182429e-002
2.761609e+003,1.187278e-002
2.763537e+003,1.194238e-002
2.765466e+003,1.197508e-002
2.767394e+003,1.191780e-002
2.769323e+003,1.192672e-002
2.771251e+003,1.200587e-002
2.773180e+003,1.206971e-002
2.775108e+003,1.202389e-002
2.777037e+003,1.199310e-002
2.778965e+003,1.201585e-002
2.780894e+003,1.210756e-002
2.782822e+003,1.212429e-002
2.784750e+003,1.211809e-002
2.786679e+003,1.213002e-002
2.788608e+003,1.214715e-002
2.790536e+003,1.219203e-002
2.792465e+003,1.220352e-002
2.794393e+003,1.223163e-002
2.796322e+003,1.228589e-002
2.798250e+003,1.230368e-002
2.800178e+003,1.232410e-002
2.802107e+003,1.233208e-002
2.804036e+003,1.234554e-002
2.805964e+003,1.241993e-002
2.807893e+003,1.243405e-002
2.809821e+003,1.244216e-002
2.811750e+003,1.251432e-002
2.813678e+003,1.257424e-002
2.815606e+003,1.256159e-002
2.817535e+003,1.258672e-002
2.819464e+003,1.265583e-002
2.821392e+003,1.272755e-002
2.823321e+003,1.275986e-002
2.825249e+003,1.279473e-002
2.827177e+003,1.290350e-002
2.829106e+003,1.304614e-002
2.831034e+003,1.308213e-002
2.832963e+003,1.310753e-002
2.834892e+003,1.317184e-002
2.836820e+003,1.330246e-002
2.838749e+003,1.344601e-002
2.840677e+003,1.367321e-002
2.842605e+003,1.386778e-002
2.844534e+003,1.403804e-002
2.846462e+003,1.433906e-002
2.848391e+003,1.462587e-002
2.850320e+003,1.468365e-002
2.852248e+003,1.459523e-002
2.854177e+003,1.455956e-002
2.856105e+003,1.451649e-002
2.858033e+003,1.450142e-002
2.859962e+003,1.444404e-002
2.861890e+003,1.442715e-002
2.863819e+003,1.439273e-002
2.865748e+003,1.443640e-002
2.867676e+003,1.447031e-002
2.869604e+003,1.445103e-002
2.871533e+003,1.447312e-002
2.873461e+003,1.449196e-002
2.875390e+003,1.448881e-002
2.877319e+003,1.448429e-002
2.879247e+003,1.449816e-002
2.881176e+003,1.452338e-002
2.883104e+003,1.457491e-002
2.885032e+003,1.468721e-002
2.886961e+003,1.472176e-002
2.888889e+003,1.476224e-002
2.890818e+003,1.482587e-002
2.892747e+003,1.483622e-002
2.894675e+003,1.486777e-002
2.896604e+003,1.485673e-002
2.898532e+003,1.487843e-002
2.900460e+003,1.493347e-002
2.902389e+003,1.500590e-002
2.904317e+003,1.503749e-002
2.906246e+003,1.506367e-002
2.908175e+003,1.510902e-002
2.910103e+003,1.522032e-002
2.912031e+003,1.534697e-002
2.913960e+003,1.551080e-002
2.915888e+003,1.563516e-002
2.917817e+003,1.567909e-002
2.919745e+003,1.559889e-002
2.921674e+003,1.541480e-002
2.923603e+003,1.526126e-002
2.925531e+003,1.520413e-002
2.927459e+003,1.514048e-002
2.929388e+003,1.503931e-002
2.931316e+003,1.485001e-002
2.933245e+003,1.466103e-002
2.935173e+003,1.447812e-002
2.937102e+003,1.435488e-002
2.939031e+003,1.428698e-002
2.940959e+003,1.420240e-002
2.942887e+003,1.408253e-002
2.944816e+003,1.385991e-002
2.946744e+003,1.373332e-002
2.948673e+003,1.364209e-002
2.950601e+003,1.349868e-002
2.952530e+003,1.337162e-002
2.954458e+003,1.326700e-002
2.956387e+003,1.317006e-002
2.958315e+003,1.310709e-002
2.960244e+003,1.302647e-002
2.962172e+003,1.297160e-002
2.964101e+003,1.290787e-002
2.966029e+003,1.285480e-002
2.967958e+003,1.283920e-002
2.969886e+003,1.282227e-002
2.971815e+003,1.274178e-002
2.973743e+003,1.264778e-002
2.975672e+003,1.260617e-002
2.977600e+003,1.252503e-002
2.979529e+003,1.247977e-002
2.981457e+003,1.242760e-002
2.983386e+003,1.237265e-002
2.985314e+003,1.234074e-002
2.987243e+003,1.238236e-002
2.989171e+003,1.232802e-002
2.991100e+003,1.226585e-002
2.993028e+003,1.226074e-002
2.994957e+003,1.226302e-002
2.996885e+003,1.225692e-002
2.998814e+003,1.224428e-002
3.000742e+003,1.223044e-002
3.002671e+003,1.225794e-002
3.004599e+003,1.225743e-002
3.006528e+003,1.225842e-002
3.008456e+003,1.226462e-002
3.010385e+003,1.235744e-002
3.012313e+003,1.236828e-002
3.014242e+003,1.237987e-002
3.016170e+003,1.240916e-002
3.018099e+003,1.246603e-002
3.020027e+003,1.246968e-002
3.021956e+003,1.249788e-002
3.023884e+003,1.249601e-002
3.025813e+003,1.243224e-002
3.027741e+003,1.245430e-002
3.029670e+003,1.251868e-002
3.031598e+003,1.254130e-002
3.033527e+003,1.257687e-002
3.035455e+003,1.259181e-002
3.037384e+003,1.263929e-002
3.039312e+003,1.264376e-002
3.041241e+003,1.268565e-002
3.043169e+003,1.273127e-002
3.045098e+003,1.272318e-002
3.047026e+003,1.275443e-002
3.048955e+003,1.282709e-002
3.050883e+003,1.285162e-002
3.052812e+003,1.283555e-002
3.054740e+003,1.290627e-002
3.056669e+003,1.299294e-002
3.058597e+003,1.303432e-002
3.060526e+003,1.306481e-002
3.062454e+003,1.306652e-002
3.064383e+003,1.312730e-002
3.066311e+003,1.312826e-002
3.068240e+003,1.317553e-002
3.070168e+003,1.325799e-002
3.072097e+003,1.327179e-002
3.074025e+003,1.327650e-002
3.075954e+003,1.332027e-002
3.077882e+003,1.333178e-002
3.079811e+003,1.330691e-002
3.081739e+003,1.332706e-002
3.083668e+003,1.350097e-002
3.085596e+003,1.358513e-002
3.087525e+003,1.357348e-002
3.089453e+003,1.355837e-002
3.091382e+003,1.356397e-002
3.093310e+003,1.365122e-002
3.095239e+003,1.368856e-002
3.097167e+003,1.368244e-002
3.099096e+003,1.370289e-002
3.101024e+003,1.372508e-002
3.102953e+003,1.371735e-002
3.104881e+003,1.377371e-002
3.106810e+003,1.379335e-002
3.108738e+003,1.375473e-002
3.110667e+003,1.376739e-002
3.112595e+003,1.386494e-002
3.114524e+003,1.394883e-002
3.116452e+003,1.397271e-002
3.118381e+003,1.399030e-002
3.120309e+003,1.404635e-002
3.122238e+003,1.402958e-002
3.124166e+003,1.416862e-002
3.126095e+003,1.426581e-002
3.128023e+003,1.428119e-002
3.129952e+003,1.429999e-002
3.131880e+003,1.433776e-002
3.133809e+003,1.442914e-002
3.135737e+003,1.455140e-002
3.137666e+003,1.458851e-002
3.139594e+003,1.456055e-002
3.141523e+003,1.462295e-002
3.143451e+003,1.464118e-002
3.145380e+003,1.469770e-002
3.147308e+003,1.474829e-002
3.149237e+003,1.479594e-002
3.151165e+003,1.487034e-002
3.153094e+003,1.487449e-002
3.155022e+003,1.495744e-002
3.156951e+003,1.506576e-002
3.158879e+003,1.510768e-002
3.160808e+003,1.506915e-002
3.162736e+003,1.515084e-002
3.164665e+003,1.524671e-002
3.166593e+003,1.526483e-002
3.168522e+003,1.532980e-002
3.170450e+003,1.543770e-002
3.172379e+003,1.545792e-002
3.174307e+003,1.547962e-002
3.176236e+003,1.561562e-002
3.178164e+003,1.567373e-002
3.180093e+003,1.567088e-002
3.182021e+003,1.573523e-002
3.183950e+003,1.580532e-002
3.185878e+003,1.585096e-002
3.187807e+003,1.590742e-002
3.189735e+003,1.595991e-002
3.191664e+003,1.599380e-002
3.193592e+003,1.599607e-002
3.195521e+003,1.612700e-002
3.197449e+003,1.621714e-002
3.199378e+003,1.623523e-002
3.201306e+003,1.629660e-002
3.203235e+003,1.636998e-002
3.205163e+003,1.644032e-002
3.207092e+003,1.658408e-002
3.209020e+003,1.669697e-002
3.210948e+003,1.669098e-002
3.212877e+003,1.672018e-002
3.214806e+003,1.682167e-002
3.216734e+003,1.684113e-002
3.218663e+003,1.687671e-002
3.220591e+003,1.695660e-002
3.222520e+003,1.701183e-002
3.224448e+003,1.705219e-002
3.226376e+003,1.711364e-002
3.228305e+003,1.716809e-002
3.230234e+003,1.727662e-002
3.232162e+003,1.741876e-002
3.234091e+003,1.750879e-002
3.236019e+003,1.750803e-002
3.237948e+003,1.751062e-002
3.239876e+003,1.761844e-002
3.241804e+003,1.761326e-002
3.243733e+003,1.768901e-002
3.245662e+003,1.781517e-002
3.247590e+003,1.794081e-002
3.249519e+003,1.804255e-002
3.251447e+003,1.805564e-002
3.253375e+003,1.809125e-002
3.255304e+003,1.818270e-002
3.257232e+003,1.824279e-002
3.259161e+003,1.825775e-002
3.261090e+003,1.831975e-002
3.263018e+003,1.839842e-002
3.264947e+003,1.837152e-002
3.266875e+003,1.840782e-002
3.268803e+003,1.852229e-002
3.270732e+003,1.859080e-002
3.272660e+003,1.860736e-002
3.274589e+003,1.859533e-002
3.276518e+003,1.868816e-002
3.278446e+003,1.876873e-002
3.280375e+003,1.882533e-002
3.282303e+003,1.883367e-002
3.284231e+003,1.875752e-002
3.286160e+003,1.870449e-002
3.288088e+003,1.876091e-002
3.290017e+003,1.882575e-002
3.291946e+003,1.888544e-002
3.293874e+003,1.892067e-002
3.295802e+003,1.892631e-002
3.297731e+003,1.892230e-002
3.299659e+003,1.892465e-002
3.301588e+003,1.894140e-002
3.303516e+003,1.900596e-002
3.305445e+003,1.907031e-002
3.307374e+003,1.908184e-002
3.309302e+003,1.906384e-002
3.311230e+003,1.898121e-002
3.313159e+003,1.904342e-002
3.315087e+003,1.910130e-002
3.317016e+003,1.906762e-002
3.318944e+003,1.907035e-002
3.320873e+003,1.912471e-002
3.322802e+003,1.911100e-002
3.324730e+003,1.909940e-002
3.326658e+003,1.911720e-002
3.328587e+003,1.912125e-002
3.330515e+003,1.910854e-002
3.332444e+003,1.908171e-002
3.334372e+003,1.905667e-002
3.336301e+003,1.907831e-002
3.338229e+003,1.907914e-002
3.340158e+003,1.904335e-002
3.342086e+003,1.904051e-002
3.344015e+003,1.906277e-002
3.345943e+003,1.887267e-002
3.347872e+003,1.879464e-002
3.349800e+003,1.884876e-002
3.351729e+003,1.884215e-002
3.353657e+003,1.875454e-002
3.355586e+003,1.866779e-002
3.357514e+003,1.862991e-002
3.359443e+003,1.859733e-002
3.361371e+003,1.856666e-002
3.363300e+003,1.859135e-002
3.365229e+003,1.864804e-002
3.367157e+003,1.861521e-002
3.369085e+003,1.851202e-002
3.371014e+003,1.851953e-002
3.372942e+003,1.843904e-002
3.374871e+003,1.833672e-002
3.376799e+003,1.829625e-002
3.378728e+003,1.827358e-002
3.380656e+003,1.823836e-002
3.382585e+003,1.829549e-002
3.384513e+003,1.826936e-002
3.386442e+003,1.820878e-002
3.388370e+003,1.817327e-002
3.390299e+003,1.808324e-002
3.392227e+003,1.806497e-002
3.394156e+003,1.804262e-002
3.396084e+003,1.800027e-002
3.398013e+003,1.799962e-002
3.399941e+003,1.785511e-002
3.401870e+003,1.778109e-002
3.403798e+003,1.776908e-002
3.405727e+003,1.771434e-002
3.407655e+003,1.768632e-002
3.409584e+003,1.756382e-002
3.411512e+003,1.751412e-002
3.413441e+003,1.743914e-002
3.415369e+003,1.734683e-002
3.417298e+003,1.732424e-002
3.419226e+003,1.726034e-002
3.421155e+003,1.717089e-002
3.423083e+003,1.702984e-002
3.425012e+003,1.685512e-002
3.426940e+003,1.674831e-002
3.428869e+003,1.672076e-002
3.430797e+003,1.665214e-002
3.432726e+003,1.663441e-002
3.434654e+003,1.645893e-002
3.436583e+003,1.627265e-002
3.438511e+003,1.616667e-002
3.440440e+003,1.614207e-002
3.442368e+003,1.611623e-002
3.444297e+003,1.597688e-002
3.446225e+003,1.580159e-002
3.448154e+003,1.572304e-002
3.450082e+003,1.565481e-002
3.452011e+003,1.556293e-002
3.453939e+003,1.540618e-002
3.455868e+003,1.531946e-002
3.457796e+003,1.521320e-002
3.459725e+003,1.506525e-002
3.461653e+003,1.496623e-002
3.463582e+003,1.492344e-002
3.465510e+003,1.488244e-002
3.467439e+003,1.470889e-002
3.469367e+003,1.457836e-002
3.471296e+003,1.446055e-002
3.473224e+003,1.434486e-002
3.475153e+003,1.427187e-002
3.477081e+003,1.414606e-002
3.479010e+003,1.410357e-002
3.480938e+003,1.404576e-002
3.482867e+003,1.388986e-002
3.484795e+003,1.381192e-002
3.486724e+003,1.379358e-002
3.488652e+003,1.361748e-002
3.490581e+003,1.348012e-002
3.492509e+003,1.342786e-002
3.494438e+003,1.343583e-002
3.496366e+003,1.339664e-002
3.498295e+003,1.326014e-002
3.500223e+003,1.316946e-002
3.502152e+003,1.305882e-002
3.504080e+003,1.296612e-002
3.506009e+003,1.286691e-002
3.507937e+003,1.285317e-002
3.509866e+003,1.279962e-002
3.511794e+003,1.268245e-002
3.513723e+003,1.258954e-002
3.515651e+003,1.250400e-002
3.517580e+003,1.245428e-002
3.519508e+003,1.228472e-002
3.521437e+003,1.215148e-002
3.523365e+003,1.212414e-002
3.525294e+003,1.208858e-002
3.527222e+003,1.197138e-002
3.529151e+003,1.189737e-002
3.531079e+003,1.190879e-002
3.533008e+003,1.179035e-002
3.534936e+003,1.178050e-002
3.536865e+003,1.170988e-002
3.538793e+003,1.166501e-002
3.540722e+003,1.155921e-002
3.542650e+003,1.144650e-002
3.544579e+003,1.139979e-002
3.546507e+003,1.139568e-002
3.548436e+003,1.132337e-002
3.550364e+003,1.125857e-002
3.552293e+003,1.115603e-002
3.554221e+003,1.110817e-002
3.556150e+003,1.100336e-002
3.558078e+003,1.100589e-002
3.560007e+003,1.093594e-002
3.561935e+003,1.080055e-002
3.563864e+003,1.077147e-002
3.565792e+003,1.067452e-002
3.567721e+003,1.062128e-002
3.569649e+003,1.058670e-002
3.571578e+003,1.062733e-002
3.573506e+003,1.055480e-002
3.575435e+003,1.046317e-002
3.577363e+003,1.030200e-002
3.579292e+003,1.020028e-002
3.581220e+003,1.022189e-002
3.583149e+003,1.022455e-002
3.585077e+003,1.017482e-002
3.587006e+003,1.000954e-002
3.588934e+003,1.001425e-002
3.590863e+003,9.949875e-003
3.592791e+003,9.817667e-003
3.594720e+003,9.715280e-003
3.596648e+003,9.696320e-003
3.598577e+003,9.627876e-003
3.600505e+003,9.542811e-003
3.602434e+003,9.500157e-003
3.604362e+003,9.477923e-003
3.606291e+003,9.429888e-003
3.608219e+003,9.392085e-003
3.610148e+003,9.388731e-003
3.612076e+003,9.385216e-003
3.614005e+003,9.316294e-003
3.615933e+003,9.306657e-003
3.617862e+003,9.207984e-003
3.619790e+003,9.117262e-003
3.621719e+003,9.020573e-003
3.623647e+003,9.011180e-003
3.625576e+003,8.954428e-003
3.627504e+003,8.918980e-003
3.629433e+003,8.996466e-003
3.631361e+003,8.998925e-003
3.633290e+003,8.872766e-003
3.635218e+003,8.837502e-003
3.637146e+003,8.796119e-003
3.639075e+003,8.710821e-003
3.641004e+003,8.736270e-003
3.642932e+003,8.744981e-003
3.644861e+003,8.807492e-003
3.646789e+003,8.800492e-003
3.648718e+003,8.691322e-003
3.650646e+003,8.704008e-003
3.652574e+003,8.682182e-003
3.654503e+003,8.564611e-003
3.656432e+003,8.457868e-003
3.658360e+003,8.471386e-003
3.660289e+003,8.522214e-003
3.662217e+003,8.468064e-003
3.664146e+003,8.504213e-003
3.666074e+003,8.604216e-003
3.668002e+003,8.617060e-003
3.669931e+003,8.519505e-003
3.671860e+003,8.505105e-003
3.673788e+003,8.473352e-003
3.675717e+003,8.297079e-003
3.677645e+003,8.223016e-003
3.679573e+003,8.312557e-003
3.681502e+003,8.299493e-003
3.683430e+003,8.223189e-003
3.685359e+003,8.204731e-003
3.687288e+003,8.290521e-003
3.689216e+003,8.347869e-003
3.691145e+003,8.391773e-003
3.693073e+003,8.334306e-003
3.695001e+003,8.206204e-003
3.696930e+003,8.188237e-003
3.698858e+003,8.248667e-003
3.700787e+003,8.255408e-003
3.702716e+003,8.201568e-003
3.704644e+003,8.236931e-003
3.706573e+003,8.105131e-003
3.708501e+003,8.043261e-003
3.710429e+003,8.059155e-003
3.712358e+003,8.050874e-003
3.714286e+003,8.180452e-003
3.716215e+003,8.199457e-003
3.718144e+003,8.112846e-003
3.720072e+003,8.016686e-003
3.722000e+003,7.936464e-003
3.723929e+003,7.986920e-003
3.725857e+003,7.988598e-003
3.727786e+003,7.962077e-003
3.729714e+003,7.950802e-003
3.731643e+003,7.991654e-003
3.733572e+003,7.980765e-003
3.735500e+003,8.086628e-003
3.737428e+003,8.116622e-003
3.739357e+003,8.113450e-003
3.741285e+003,8.030214e-003
3.743214e+003,8.002834e-003
3.745142e+003,8.019295e-003
3.747071e+003,8.031565e-003
3.749000e+003,8.068092e-003
3.750928e+003,8.094346e-003
3.752856e+003,8.105412e-003
3.754785e+003,8.090233e-003
3.756713e+003,8.090095e-003
3.758642e+003,8.123834e-003
3.760570e+003,8.195110e-003
3.762499e+003,8.174472e-003
3.764427e+003,8.149114e-003
3.766356e+003,8.167061e-003
3.768284e+003,8.204470e-003
3.770213e+003,8.189918e-003
3.772141e+003,8.201617e-003
3.774070e+003,8.141971e-003
3.775998e+003,8.086631e-003
3.777927e+003,8.199220e-003
3.779855e+003,8.228800e-003
3.781784e+003,8.165727e-003
3.783712e+003,8.169276e-003
3.785641e+003,8.172781e-003
3.787569e+003,8.203060e-003
3.789498e+003,8.119099e-003
3.791426e+003,8.107976e-003
3.793355e+003,8.152950e-003
3.795283e+003,8.216831e-003
3.797212e+003,8.266919e-003
3.799140e+003,8.246643e-003
3.801069e+003,8.270325e-003
3.802997e+003,8.265313e-003
3.804926e+003,8.262392e-003
3.806854e+003,8.291645e-003
3.808783e+003,8.282493e-003
3.810711e+003,8.299994e-003
3.812640e+003,8.348936e-003
3.814568e+003,8.365086e-003
3.816497e+003,8.273996e-003
3.818425e+003,8.303756e-003
3.820354e+003,8.387812e-003
3.822282e+003,8.355584e-003
3.824211e+003,8.307680e-003
3.826139e+003,8.318197e-003
3.828068e+003,8.307253e-003
3.829996e+003,8.284031e-003
3.831925e+003,8.332483e-003
3.833853e+003,8.304227e-003
3.835782e+003,8.394701e-003
3.837710e+003,8.397165e-003
3.839639e+003,8.267953e-003
3.841567e+003,8.234295e-003
3.843496e+003,8.319931e-003
3.845424e+003,8.319172e-003
3.847353e+003,8.333835e-003
3.849281e+003,8.431507e-003
3.851210e+003,8.397144e-003
3.853138e+003,8.401630e-003
3.855067e+003,8.462681e-003
3.856995e+003,8.425807e-003
3.858924e+003,8.447424e-003
3.860852e+003,8.461045e-003
3.862781e+003,8.352994e-003
3.864709e+003,8.319078e-003
3.866638e+003,8.361419e-003
3.868566e+003,8.447477e-003
3.870495e+003,8.465709e-003
3.872423e+003,8.434689e-003
3.874352e+003,8.434735e-003
3.876280e+003,8.389266e-003
3.878209e+003,8.367933e-003
3.880137e+003,8.390012e-003
3.882066e+003,8.413916e-003
3.883994e+003,8.413857e-003
3.885923e+003,8.401196e-003
3.887851e+003,8.448463e-003
3.889780e+003,8.465924e-003
3.891708e+003,8.509434e-003
3.893637e+003,8.507787e-003
3.895565e+003,8.505667e-003
3.897494e+003,8.530997e-003
3.899422e+003,8.490153e-003
3.901351e+003,8.534424e-003
3.903279e+003,8.560563e-003
3.905208e+003,8.490031e-003
3.907136e+003,8.453887e-003
3.909065e+003,8.486468e-003
3.910993e+003,8.512848e-003
3.912922e+003,8.502189e-003
3.914850e+003,8.528243e-003
3.916779e+003,8.545124e-003
3.918707e+003,8.471133e-003
3.920636e+003,8.517542e-003
3.922564e+003,8.508439e-003
3.924493e+003,8.505319e-003
3.926421e+003,8.509282e-003
3.928350e+003,8.499803e-003
3.930278e+003,8.513037e-003
3.932207e+003,8.595594e-003
3.934135e+003,8.564193e-003
3.936064e+003,8.441784e-003
3.937992e+003,8.430621e-003
3.939921e+003,8.461798e-003
3.941849e+003,8.473985e-003
3.943778e+003,8.557861e-003
3.945706e+003,8.579630e-003
3.947635e+003,8.583426e-003
3.949563e+003,8.574291e-003
3.951492e+003,8.516450e-003
3.953420e+003,8.500697e-003
3.955349e+003,8.566158e-003
3.957277e+003,8.558181e-003
3.959206e+003,8.625031e-003
3.961134e+003,8.624799e-003
3.963063e+003,8.571098e-003
3.964991e+003,8.669667e-003
3.966920e+003,8.555372e-003
3.968848e+003,8.509693e-003
3.970777e+003,8.517971e-003
3.972705e+003,8.497640e-003
3.974634e+003,8.553496e-003
3.976562e+003,8.615640e-003
3.978491e+003,8.646289e-003
3.980419e+003,8.676681e-003
3.982348e+003,8.545899e-003
3.984276e+003,8.467561e-003
3.986205e+003,8.502259e-003
3.988133e+003,8.504106e-003
3.990062e+003,8.481886e-003
3.991990e+003,8.421219e-003
3.993919e+003,8.410861e-003
3.995847e+003,8.498066e-003
3.997776e+003,8.546906e-003
3.999704e+003,8.547117e-003
4.001633e+003,0.000000e+000
