3.991989e+002,3.163040e-002
4.011274e+002,3.443088e-002
4.030559e+002,3.443088e-002
4.049844e+002,3.749387e-002
4.069129e+002,3.892947e-002
4.088414e+002,4.051255e-002
4.107699e+002,4.138907e-002
4.126984e+002,4.289027e-002
4.146269e+002,4.372585e-002
4.165554e+002,4.345272e-002
4.184839e+002,4.459355e-002
4.204124e+002,4.520723e-002
4.223409e+002,4.494474e-002
4.242694e+002,4.581048e-002
4.261979e+002,4.685445e-002
4.281264e+002,4.741965e-002
4.300549e+002,4.851431e-002
4.319834e+002,4.960340e-002
4.339119e+002,5.014144e-002
4.358404e+002,5.042812e-002
4.377689e+002,5.059316e-002
4.396974e+002,5.106477e-002
4.416259e+002,5.159217e-002
4.435544e+002,5.197888e-002
4.454829e+002,5.228798e-002
4.474114e+002,5.275632e-002
4.493399e+002,5.261719e-002
4.512684e+002,5.243694e-002
4.531969e+002,5.207191e-002
4.551254e+002,5.239639e-002
4.570539e+002,5.263637e-002
4.589824e+002,5.279469e-002
4.609109e+002,5.307624e-002
4.628394e+002,5.344509e-002
4.647679e+002,5.342507e-002
4.666964e+002,5.267550e-002
4.686249e+002,5.236802e-002
4.705533e+002,5.239439e-002
4.724819e+002,5.186979e-002
4.744103e+002,5.125535e-002
4.763389e+002,5.134290e-002
4.782673e+002,5.100945e-002
4.801959e+002,5.066375e-002
4.821243e+002,5.024835e-002
4.840529e+002,4.954536e-002
4.859813e+002,4.962970e-002
4.879099e+002,4.930242e-002
4.898383e+002,4.871889e-002
4.917668e+002,4.777168e-002
4.936953e+002,4.726345e-002
4.956238e+002,4.720626e-002
4.975523e+002,4.732608e-002
4.994808e+002,4.738834e-002
5.014093e+002,4.714421e-002
5.033378e+002,4.662598e-002
5.052663e+002,4.632095e-002
5.071948e+002,4.681732e-002
5.091233e+002,4.737874e-002
5.110518e+002,4.771142e-002
5.129803e+002,4.800361e-002
5.149088e+002,4.819436e-002
5.168373e+002,4.838454e-002
5.187658e+002,4.850820e-002
5.206943e+002,4.880762e-002
5.226228e+002,4.847043e-002
5.245513e+002,4.847747e-002
5.264798e+002,4.867353e-002
5.284083e+002,4.851150e-002
5.303368e+002,4.823985e-002
5.322653e+002,4.785243e-002
5.341938e+002,4.767636e-002
5.361223e+002,4.778412e-002
5.380508e+002,4.725586e-002
5.399792e+002,4.709963e-002
5.419078e+002,4.697829e-002
5.438363e+002,4.687964e-002
5.457648e+002,4.737588e-002
5.476932e+002,4.793585e-002
5.496218e+002,4.774278e-002
5.515503e+002,4.788852e-002
5.534788e+002,4.847841e-002
5.554072e+002,4.876687e-002
5.573358e+002,4.895188e-002
5.592643e+002,4.876538e-002
5.611927e+002,4.845516e-002
5.631212e+002,4.789621e-002
5.650497e+002,4.769121e-002
5.669783e+002,4.760834e-002
5.689067e+002,4.727386e-002
5.708352e+002,4.704097e-002
5.727637e+002,4.695494e-002
5.746923e+002,4.680962e-002
5.766207e+002,4.650510e-002
5.785492e+002,4.619251e-002
5.804777e+002,4.618587e-002
5.824063e+002,4.603661e-002
5.843347e+002,4.597705e-002
5.862632e+002,4.612849e-002
5.881917e+002,4.603140e-002
5.901202e+002,4.598978e-002
5.920487e+002,4.595208e-002
5.939772e+002,4.580850e-002
5.959057e+002,4.556382e-002
5.978342e+002,4.523915e-002
5.997627e+002,4.507179e-002
6.016912e+002,4.521398e-002
6.036197e+002,4.485710e-002
6.055482e+002,4.448762e-002
6.074767e+002,4.432268e-002
6.094052e+002,4.441264e-002
6.113337e+002,4.409581e-002
6.132622e+002,4.386991e-002
6.151907e+002,4.373194e-002
6.171192e+002,4.353398e-002
6.190477e+002,4.330895e-002
6.209762e+002,4.293217e-002
6.229047e+002,4.215442e-002
6.248332e+002,4.143971e-002
6.267617e+002,4.104793e-002
6.286902e+002,4.040681e-002
6.306187e+002,3.978956e-002
6.325472e+002,3.963671e-002
6.344756e+002,3.943926e-002
6.364042e+002,3.914662e-002
6.383326e+002,3.874265e-002
6.402612e+002,3.833539e-002
6.421896e+002,3.836387e-002
6.441182e+002,3.822484e-002
6.460466e+002,3.801195e-002
6.479752e+002,3.781003e-002
6.499036e+002,3.748307e-002
6.518322e+002,3.739624e-002
6.537606e+002,3.720731e-002
6.556891e+002,3.728157e-002
6.576177e+002,3.735687e-002
6.595461e+002,3.723989e-002
6.614746e+002,3.698822e-002
6.634031e+002,3.698240e-002
6.653317e+002,3.683414e-002
6.672601e+002,3.665601e-002
6.691886e+002,3.647887e-002
6.711171e+002,3.630306e-002
6.730457e+002,3.572658e-002
6.749741e+002,3.507120e-002
6.769026e+002,3.419179e-002
6.788311e+002,3.338360e-002
6.807596e+002,3.297095e-002
6.826881e+002,3.254277e-002
6.846166e+002,3.209386e-002
6.865451e+002,3.188723e-002
6.884736e+002,3.168972e-002
6.904021e+002,3.161508e-002
6.923306e+002,3.142701e-002
6.942591e+002,3.137613e-002
6.961876e+002,3.123877e-002
6.981161e+002,3.109273e-002
7.000446e+002,3.096594e-002
7.019731e+002,3.080328e-002
7.039016e+002,3.055546e-002
7.058301e+002,3.043694e-002
7.077585e+002,3.015379e-002
7.096871e+002,2.995391e-002
7.116156e+002,2.980332e-002
7.135441e+002,2.965541e-002
7.154725e+002,2.960975e-002
7.174011e+002,2.957899e-002
7.193296e+002,2.931358e-002
7.212581e+002,2.922845e-002
7.231865e+002,2.894562e-002
7.251151e+002,2.878391e-002
7.270436e+002,2.863945e-002
7.289720e+002,2.847541e-002
7.309005e+002,2.812922e-002
7.328290e+002,2.776008e-002
7.347576e+002,2.752387e-002
7.366860e+002,2.742560e-002
7.386145e+002,2.723338e-002
7.405430e+002,2.706856e-002
7.424716e+002,2.690684e-002
7.444000e+002,2.662268e-002
7.463285e+002,2.652093e-002
7.482570e+002,2.650888e-002
7.501855e+002,2.627869e-002
7.521140e+002,2.611190e-002
7.540425e+002,2.590822e-002
7.559710e+002,2.575437e-002
7.578995e+002,2.572049e-002
7.598280e+002,2.555098e-002
7.617565e+002,2.546324e-002
7.636850e+002,2.553791e-002
7.656135e+002,2.544371e-002
7.675420e+002,2.539231e-002
7.694705e+002,2.534717e-002
7.713990e+002,2.538093e-002
7.733275e+002,2.540162e-002
7.752560e+002,2.540545e-002
7.771844e+002,2.532789e-002
7.791130e+002,2.547308e-002
7.810415e+002,2.550150e-002
7.829700e+002,2.541265e-002
7.848984e+002,2.518324e-002
7.868270e+002,2.496886e-002
7.887555e+002,2.485376e-002
7.906840e+002,2.476588e-002
7.926124e+002,2.460424e-002
7.945410e+002,2.437567e-002
7.964695e+002,2.420779e-002
7.983979e+002,2.402716e-002
8.003264e+002,2.389695e-002
8.022549e+002,2.378147e-002
8.041835e+002,2.365402e-002
8.061119e+002,2.358360e-002
8.080404e+002,2.343659e-002
8.099689e+002,2.333176e-002
8.118975e+002,2.332746e-002
8.138259e+002,2.316610e-002
8.157545e+002,2.282146e-002
8.176830e+002,2.274810e-002
8.196115e+002,2.267275e-002
8.215399e+002,2.257348e-002
8.234684e+002,2.238244e-002
8.253970e+002,2.218108e-002
8.273254e+002,2.209346e-002
8.292539e+002,2.213426e-002
8.311824e+002,2.208506e-002
8.331110e+002,2.197000e-002
8.350394e+002,2.179880e-002
8.369679e+002,2.181712e-002
8.388964e+002,2.185482e-002
8.408250e+002,2.180311e-002
8.427534e+002,2.168495e-002
8.446819e+002,2.160001e-002
8.466104e+002,2.150453e-002
8.485389e+002,2.148406e-002
8.504674e+002,2.144897e-002
8.523959e+002,2.145103e-002
8.543244e+002,2.136996e-002
8.562529e+002,2.135447e-002
8.581814e+002,2.136314e-002
8.601099e+002,2.146554e-002
8.620384e+002,2.158228e-002
8.639669e+002,2.166221e-002
8.658954e+002,2.165848e-002
8.678239e+002,2.170927e-002
8.697524e+002,2.187287e-002
8.716809e+002,2.207847e-002
8.736094e+002,2.218171e-002
8.755378e+002,2.224134e-002
8.774664e+002,2.237581e-002
8.793949e+002,2.269126e-002
8.813234e+002,2.294287e-002
8.832518e+002,2.325915e-002
8.851804e+002,2.374315e-002
8.871089e+002,2.424118e-002
8.890374e+002,2.464292e-002
8.909658e+002,2.511316e-002
8.928943e+002,2.558110e-002
8.948229e+002,2.604043e-002
8.967513e+002,2.614940e-002
8.986798e+002,2.605254e-002
9.006083e+002,2.577929e-002
9.025369e+002,2.544378e-002
9.044653e+002,2.514742e-002
9.063938e+002,2.483770e-002
9.083223e+002,2.458246e-002
9.102509e+002,2.445723e-002
9.121793e+002,2.432696e-002
9.141078e+002,2.420405e-002
9.160364e+002,2.417830e-002
9.179648e+002,2.438790e-002
9.198933e+002,2.450480e-002
9.218218e+002,2.465305e-002
9.237504e+002,2.486696e-002
9.256788e+002,2.505741e-002
9.276073e+002,2.529652e-002
9.295358e+002,2.549385e-002
9.314644e+002,2.564946e-002
9.333928e+002,2.597662e-002
9.353213e+002,2.641750e-002
9.372498e+002,2.676458e-002
9.391783e+002,2.714047e-002
9.411068e+002,2.765093e-002
9.430353e+002,2.821477e-002
9.449637e+002,2.882555e-002
9.468923e+002,2.960686e-002
9.488208e+002,3.033275e-002
9.507493e+002,3.092428e-002
9.526777e+002,3.167791e-002
9.546063e+002,3.251114e-002
9.565348e+002,3.333599e-002
9.584633e+002,3.418780e-002
9.603917e+002,3.496815e-002
9.623203e+002,3.583299e-002
9.642488e+002,3.668672e-002
9.661772e+002,3.751077e-002
9.681057e+002,3.826311e-002
9.700343e+002,3.900555e-002
9.719628e+002,3.980983e-002
9.738912e+002,4.057384e-002
9.758197e+002,4.147869e-002
9.777483e+002,4.255975e-002
9.796768e+002,4.370341e-002
9.816052e+002,4.508006e-002
9.835337e+002,4.654754e-002
9.854623e+002,4.800022e-002
9.873907e+002,4.925870e-002
9.893192e+002,5.025925e-002
9.912477e+002,5.103342e-002
9.931763e+002,5.150191e-002
9.951047e+002,5.178285e-002
9.970332e+002,5.214439e-002
9.989617e+002,5.271747e-002
1.000890e+003,5.350822e-002
1.002819e+003,5.453500e-002
1.004747e+003,5.545411e-002
1.006676e+003,5.627714e-002
1.008604e+003,5.718049e-002
1.010533e+003,5.805720e-002
1.012461e+003,5.893841e-002
1.014390e+003,5.998258e-002
1.016318e+003,6.107414e-002
1.018247e+003,6.229506e-002
1.020175e+003,6.349771e-002
1.022104e+003,6.464314e-002
1.024032e+003,6.578948e-002
1.025961e+003,6.696372e-002
1.027889e+003,6.819067e-002
1.029818e+003,6.926744e-002
1.031746e+003,7.020503e-002
1.033675e+003,7.076460e-002
1.035603e+003,7.093555e-002
1.037532e+003,7.061367e-002
1.039460e+003,7.001995e-002
1.041389e+003,6.936703e-002
1.043317e+003,6.879334e-002
1.045246e+003,6.836396e-002
1.047174e+003,6.809919e-002
1.049103e+003,6.791927e-002
1.051031e+003,6.767371e-002
1.052960e+003,6.738657e-002
1.054888e+003,6.694508e-002
1.056817e+003,6.622555e-002
1.058745e+003,6.541907e-002
1.060674e+003,6.450951e-002
1.062602e+003,6.352448e-002
1.064531e+003,6.243693e-002
1.066459e+003,6.129466e-002
1.068388e+003,6.016517e-002
1.070316e+003,5.912513e-002
1.072245e+003,5.825816e-002
1.074173e+003,5.732493e-002
1.076102e+003,5.634760e-002
1.078030e+003,5.530355e-002
1.079959e+003,5.417266e-002
1.081887e+003,5.313731e-002
1.083816e+003,5.227364e-002
1.085744e+003,5.166158e-002
1.087673e+003,5.110427e-002
1.089601e+003,5.063218e-002
1.091530e+003,5.033150e-002
1.093458e+003,4.997183e-002
1.095387e+003,4.962651e-002
1.097315e+003,4.928739e-002
1.099244e+003,4.905900e-002
1.101172e+003,4.885558e-002
1.103101e+003,4.862897e-002
1.105029e+003,4.829274e-002
1.106958e+003,4.761313e-002
1.108886e+003,4.668007e-002
1.110815e+003,4.563189e-002
1.112743e+003,4.433425e-002
1.114672e+003,4.292671e-002
1.116600e+003,4.158708e-002
1.118529e+003,4.046057e-002
1.120457e+003,3.950587e-002
1.122386e+003,3.853404e-002
1.124314e+003,3.747988e-002
1.126243e+003,3.644669e-002
1.128171e+003,3.538447e-002
1.130100e+003,3.434581e-002
1.132028e+003,3.338995e-002
1.133957e+003,3.258964e-002
1.135885e+003,3.188846e-002
1.137814e+003,3.128482e-002
1.139742e+003,3.092528e-002
1.141671e+003,3.084278e-002
1.143599e+003,3.088896e-002
1.145528e+003,3.106093e-002
1.147456e+003,3.128176e-002
1.149385e+003,3.159811e-002
1.151313e+003,3.193542e-002
1.153242e+003,3.229254e-002
1.155170e+003,3.268090e-002
1.157099e+003,3.296081e-002
1.159027e+003,3.307293e-002
1.160956e+003,3.303010e-002
1.162884e+003,3.278984e-002
1.164813e+003,3.216293e-002
1.166741e+003,3.127759e-002
1.168670e+003,3.019339e-002
1.170598e+003,2.898177e-002
1.172526e+003,2.772792e-002
1.174455e+003,2.652607e-002
1.176384e+003,2.546510e-002
1.178312e+003,2.456258e-002
1.180240e+003,2.372912e-002
1.182169e+003,2.300571e-002
1.184098e+003,2.249224e-002
1.186026e+003,2.211377e-002
1.187954e+003,2.188522e-002
1.189883e+003,2.178225e-002
1.191812e+003,2.181141e-002
1.193740e+003,2.189409e-002
1.195668e+003,2.203167e-002
1.197597e+003,2.218476e-002
1.199526e+003,2.234869e-002
1.201454e+003,2.241812e-002
1.203382e+003,2.239617e-002
1.205311e+003,2.229916e-002
1.207240e+003,2.214934e-002
1.209168e+003,2.199895e-002
1.211096e+003,2.190554e-002
1.213025e+003,2.187829e-002
1.214953e+003,2.195303e-002
1.216882e+003,2.206628e-002
1.218810e+003,2.224480e-002
1.220739e+003,2.242665e-002
1.222667e+003,2.269414e-002
1.224596e+003,2.295821e-002
1.226524e+003,2.319755e-002
1.228453e+003,2.346171e-002
1.230381e+003,2.370279e-002
1.232310e+003,2.383385e-002
1.234238e+003,2.394942e-002
1.236167e+003,2.403806e-002
1.238095e+003,2.404236e-002
1.240024e+003,2.396263e-002
1.241952e+003,2.388103e-002
1.243881e+003,2.381133e-002
1.245809e+003,2.367674e-002
1.247738e+003,2.345698e-002
1.249666e+003,2.320363e-002
1.251595e+003,2.293684e-002
1.253523e+003,2.267732e-002
1.255452e+003,2.242381e-002
1.257380e+003,2.212198e-002
1.259309e+003,2.180036e-002
1.261237e+003,2.152307e-002
1.263166e+003,2.122112e-002
1.265094e+003,2.089904e-002
1.267023e+003,2.057417e-002
1.268951e+003,2.026251e-002
1.270880e+003,2.001536e-002
1.272808e+003,1.972997e-002
1.274737e+003,1.948182e-002
1.276665e+003,1.930208e-002
1.278594e+003,1.916154e-002
1.280522e+003,1.907059e-002
1.282451e+003,1.897734e-002
1.284379e+003,1.890182e-002
1.286308e+003,1.878787e-002
1.288236e+003,1.874546e-002
1.290165e+003,1.873008e-002
1.292093e+003,1.876056e-002
1.294022e+003,1.887691e-002
1.295950e+003,1.907303e-002
1.297879e+003,1.931013e-002
1.299807e+003,1.957638e-002
1.301736e+003,1.988013e-002
1.303664e+003,2.025263e-002
1.305593e+003,2.065529e-002
1.307521e+003,2.107712e-002
1.309450e+003,2.154636e-002
1.311378e+003,2.203034e-002
1.313307e+003,2.246545e-002
1.315235e+003,2.284544e-002
1.317164e+003,2.310555e-002
1.319092e+003,2.322556e-002
1.321021e+003,2.321162e-002
1.322949e+003,2.314921e-002
1.324878e+003,2.304210e-002
1.326806e+003,2.282965e-002
1.328735e+003,2.258934e-002
1.330663e+003,2.228054e-002
1.332592e+003,2.192136e-002
1.334520e+003,2.155406e-002
1.336449e+003,2.116247e-002
1.338377e+003,2.081072e-002
1.340306e+003,2.045061e-002
1.342234e+003,2.017061e-002
1.344163e+003,2.002950e-002
1.346091e+003,1.997830e-002
1.348020e+003,1.995994e-002
1.349948e+003,1.999740e-002
1.351877e+003,2.009801e-002
1.353805e+003,2.025935e-002
1.355734e+003,2.041708e-002
1.357662e+003,2.056108e-002
1.359591e+003,2.074822e-002
1.361519e+003,2.095707e-002
1.363448e+003,2.109917e-002
1.365376e+003,2.123084e-002
1.367305e+003,2.131563e-002
1.369233e+003,2.132061e-002
1.371162e+003,2.121004e-002
1.373090e+003,2.103185e-002
1.375019e+003,2.079317e-002
1.376947e+003,2.052461e-002
1.378876e+003,2.022358e-002
1.380804e+003,1.988391e-002
1.382733e+003,1.951539e-002
1.384661e+003,1.916303e-002
1.386590e+003,1.884089e-002
1.388518e+003,1.858678e-002
1.390447e+003,1.839306e-002
1.392375e+003,1.826841e-002
1.394304e+003,1.820355e-002
1.396232e+003,1.810720e-002
1.398161e+003,1.800389e-002
1.400089e+003,1.797537e-002
1.402018e+003,1.804128e-002
1.403946e+003,1.810546e-002
1.405875e+003,1.814617e-002
1.407803e+003,1.821138e-002
1.409732e+003,1.832753e-002
1.411660e+003,1.844296e-002
1.413589e+003,1.852380e-002
1.415517e+003,1.864403e-002
1.417446e+003,1.877088e-002
1.419374e+003,1.888891e-002
1.421303e+003,1.898890e-002
1.423231e+003,1.899960e-002
1.425160e+003,1.901154e-002
1.427088e+003,1.900056e-002
1.429017e+003,1.894186e-002
1.430945e+003,1.884172e-002
1.432874e+003,1.868579e-002
1.434802e+003,1.855889e-002
1.436731e+003,1.842880e-002
1.438659e+003,1.826343e-002
1.440588e+003,1.809636e-002
1.442516e+003,1.795051e-002
1.444445e+003,1.787836e-002
1.446373e+003,1.785366e-002
1.448302e+003,1.777136e-002
1.450230e+003,1.773070e-002
1.452159e+003,1.767974e-002
1.454087e+003,1.761033e-002
1.456016e+003,1.752878e-002
1.457944e+003,1.737388e-002
1.459873e+003,1.724642e-002
1.461801e+003,1.716724e-002
1.463730e+003,1.703283e-002
1.465658e+003,1.678066e-002
1.467587e+003,1.644522e-002
1.469515e+003,1.605036e-002
1.471444e+003,1.568894e-002
1.473372e+003,1.526176e-002
1.475301e+003,1.485326e-002
1.477229e+003,1.455039e-002
1.479158e+003,1.432604e-002
1.481086e+003,1.420907e-002
1.483015e+003,1.416051e-002
1.484943e+003,1.415619e-002
1.486872e+003,1.424551e-002
1.488800e+003,1.438709e-002
1.490729e+003,1.447993e-002
1.492657e+003,1.462068e-002
1.494586e+003,1.477654e-002
1.496514e+003,1.492120e-002
1.498443e+003,1.509378e-002
1.500371e+003,1.522789e-002
1.502300e+003,1.531541e-002
1.504228e+003,1.542238e-002
1.506157e+003,1.559330e-002
1.508085e+003,1.572377e-002
1.510014e+003,1.586671e-002
1.511942e+003,1.597116e-002
1.513871e+003,1.608938e-002
1.515799e+003,1.615575e-002
1.517728e+003,1.612220e-002
1.519656e+003,1.601811e-002
1.521585e+003,1.590373e-002
1.523513e+003,1.585197e-002
1.525442e+003,1.585135e-002
1.527370e+003,1.583842e-002
1.529299e+003,1.584641e-002
1.531227e+003,1.588116e-002
1.533156e+003,1.588214e-002
1.535084e+003,1.590757e-002
1.537013e+003,1.594198e-002
1.538941e+003,1.593394e-002
1.540870e+003,1.596440e-002
1.542798e+003,1.602007e-002
1.544727e+003,1.604564e-002
1.546655e+003,1.605961e-002
1.548584e+003,1.605090e-002
1.550512e+003,1.595779e-002
1.552441e+003,1.589886e-002
1.554369e+003,1.587121e-002
1.556298e+003,1.584990e-002
1.558226e+003,1.582976e-002
1.560155e+003,1.582781e-002
1.562083e+003,1.589151e-002
1.564012e+003,1.594945e-002
1.565940e+003,1.601364e-002
1.567869e+003,1.607240e-002
1.569797e+003,1.613875e-002
1.571726e+003,1.626995e-002
1.573654e+003,1.644400e-002
1.575583e+003,1.655554e-002
1.577511e+003,1.672438e-002
1.579440e+003,1.696901e-002
1.581368e+003,1.719895e-002
1.583297e+003,1.748721e-002
1.585225e+003,1.779863e-002
1.587154e+003,1.805889e-002
1.589082e+003,1.831416e-002
1.591010e+003,1.862086e-002
1.592939e+003,1.893999e-002
1.594868e+003,1.922686e-002
1.596796e+003,1.948288e-002
1.598724e+003,1.976456e-002
1.600653e+003,2.009383e-002
1.602582e+003,2.039760e-002
1.604510e+003,2.062014e-002
1.606438e+003,2.081056e-002
1.608367e+003,2.109881e-002
1.610296e+003,2.136909e-002
1.612224e+003,2.165924e-002
1.614152e+003,2.197140e-002
1.616081e+003,2.221951e-002
1.618010e+003,2.251718e-002
1.619938e+003,2.286488e-002
1.621866e+003,2.309241e-002
1.623795e+003,2.320826e-002
1.625724e+003,2.329698e-002
1.627652e+003,2.330332e-002
1.629580e+003,2.321303e-002
1.631509e+003,2.314345e-002
1.633438e+003,2.310145e-002
1.635366e+003,2.304437e-002
1.637294e+003,2.301687e-002
1.639223e+003,2.301794e-002
1.641151e+003,2.299868e-002
1.643080e+003,2.295941e-002
1.645008e+003,2.293117e-002
1.646937e+003,2.287878e-002
1.648865e+003,2.276144e-002
1.650794e+003,2.256763e-002
1.652722e+003,2.231736e-002
1.654651e+003,2.204664e-002
1.656579e+003,2.178470e-002
1.658508e+003,2.141310e-002
1.660436e+003,2.100187e-002
1.662365e+003,2.050841e-002
1.664293e+003,2.003883e-002
1.666222e+003,1.963641e-002
1.668150e+003,1.912740e-002
1.670079e+003,1.863434e-002
1.672007e+003,1.823961e-002
1.673936e+003,1.780234e-002
1.675864e+003,1.731616e-002
1.677793e+003,1.684858e-002
1.679721e+003,1.642255e-002
1.681650e+003,1.606142e-002
1.683578e+003,1.565683e-002
1.685507e+003,1.526829e-002
1.687435e+003,1.503386e-002
1.689364e+003,1.475017e-002
1.691292e+003,1.450652e-002
1.693221e+003,1.428502e-002
1.695149e+003,1.400404e-002
1.697078e+003,1.375228e-002
1.699006e+003,1.358726e-002
1.700935e+003,1.339522e-002
1.702863e+003,1.327043e-002
1.704792e+003,1.319518e-002
1.706720e+003,1.317242e-002
1.708649e+003,1.315897e-002
1.710577e+003,1.315104e-002
1.712506e+003,1.319024e-002
1.714434e+003,1.326599e-002
1.716363e+003,1.336296e-002
1.718291e+003,1.342227e-002
1.720220e+003,1.345600e-002
1.722148e+003,1.358456e-002
1.724077e+003,1.369056e-002
1.726005e+003,1.378595e-002
1.727934e+003,1.386280e-002
1.729862e+003,1.387204e-002
1.731791e+003,1.384281e-002
1.733719e+003,1.375112e-002
1.735648e+003,1.357696e-002
1.737576e+003,1.329585e-002
1.739505e+003,1.296845e-002
1.741433e+003,1.260656e-002
1.743362e+003,1.219348e-002
1.745290e+003,1.184486e-002
1.747219e+003,1.156541e-002
1.749147e+003,1.131514e-002
1.751076e+003,1.112089e-002
1.753004e+003,1.089803e-002
1.754933e+003,1.067206e-002
1.756861e+003,1.050298e-002
1.758790e+003,1.037539e-002
1.760718e+003,1.028886e-002
1.762647e+003,1.020295e-002
1.764575e+003,1.008834e-002
1.766504e+003,9.995833e-003
1.768432e+003,9.963910e-003
1.770361e+003,9.895668e-003
1.772289e+003,9.833419e-003
1.774218e+003,9.864349e-003
1.776146e+003,9.855933e-003
1.778075e+003,9.793624e-003
1.780003e+003,9.790612e-003
1.781932e+003,9.834416e-003
1.783860e+003,9.783668e-003
1.785789e+003,9.738099e-003
1.787717e+003,9.755053e-003
1.789646e+003,9.755592e-003
1.791574e+003,9.755564e-003
1.793503e+003,9.738972e-003
1.795431e+003,9.787017e-003
1.797360e+003,9.778267e-003
1.799288e+003,9.730540e-003
1.801217e+003,9.739487e-003
1.803145e+003,9.762996e-003
1.805074e+003,9.845132e-003
1.807002e+003,9.877147e-003
1.808931e+003,9.831018e-003
1.810859e+003,9.807848e-003
1.812788e+003,9.748005e-003
1.814716e+003,9.771479e-003
1.816645e+003,9.755986e-003
1.818573e+003,9.720267e-003
1.820502e+003,9.714857e-003
1.822430e+003,9.749028e-003
1.824359e+003,9.733514e-003
1.826287e+003,9.673999e-003
1.828216e+003,9.628847e-003
1.830144e+003,9.655223e-003
1.832073e+003,9.620360e-003
1.834001e+003,9.558776e-003
1.835930e+003,9.601478e-003
1.837858e+003,9.632899e-003
1.839787e+003,9.632846e-003
1.841715e+003,9.730353e-003
1.843644e+003,9.777990e-003
1.845572e+003,9.736844e-003
1.847501e+003,9.654638e-003
1.849429e+003,9.547753e-003
1.851358e+003,9.620251e-003
1.853286e+003,9.670226e-003
1.855215e+003,9.717931e-003
1.857143e+003,9.700831e-003
1.859072e+003,9.599518e-003
1.861000e+003,9.569609e-003
1.862929e+003,9.588279e-003
1.864857e+003,9.550915e-003
1.866786e+003,9.445969e-003
1.868714e+003,9.504916e-003
1.870643e+003,9.512691e-003
1.872571e+003,9.578272e-003
1.874500e+003,9.591675e-003
1.876428e+003,9.520523e-003
1.878357e+003,9.553342e-003
1.880285e+003,9.602230e-003
1.882214e+003,9.520764e-003
1.884142e+003,9.496723e-003
1.886071e+003,9.392568e-003
1.887999e+003,9.530883e-003
1.889928e+003,9.592444e-003
1.891856e+003,9.477068e-003
1.893785e+003,9.517792e-003
1.895713e+003,9.568104e-003
1.897642e+003,9.365914e-003
1.899570e+003,9.355237e-003
1.901499e+003,9.463070e-003
1.903427e+003,9.356728e-003
1.905356e+003,9.156246e-003
1.907284e+003,9.126953e-003
1.909213e+003,9.259604e-003
1.911141e+003,9.255822e-003
1.913070e+003,9.299171e-003
1.914998e+003,9.325248e-003
1.916927e+003,9.361959e-003
1.918855e+003,9.450613e-003
1.920784e+003,9.261514e-003
1.922712e+003,9.134827e-003
1.924641e+003,9.211017e-003
1.926569e+003,9.136888e-003
1.928498e+003,9.255354e-003
1.930426e+003,9.200230e-003
1.932355e+003,8.843997e-003
1.934283e+003,9.163482e-003
1.936212e+003,9.045132e-003
1.938140e+003,8.976969e-003
1.940069e+003,8.879698e-003
1.941997e+003,9.019445e-003
1.943926e+003,8.810277e-003
1.945854e+003,8.445032e-003
1.947783e+003,8.324883e-003
1.949711e+003,7.925382e-003
1.951640e+003,7.740099e-003
1.953568e+003,7.971863e-003
1.955497e+003,7.956610e-003
1.957425e+003,7.856944e-003
1.959354e+003,7.251224e-003
1.961282e+003,6.310358e-003
1.963211e+003,6.256328e-003
1.965139e+003,6.566582e-003
1.967068e+003,6.759578e-003
1.968996e+003,6.191693e-003
1.970925e+003,5.263912e-003
1.972853e+003,4.492053e-003
1.974782e+003,4.348426e-003
1.976710e+003,3.918875e-003
1.978639e+003,4.156550e-003
1.980567e+003,4.444814e-003
1.982496e+003,4.811946e-003
1.984424e+003,4.852973e-003
1.986353e+003,5.343250e-003
1.988281e+003,5.417114e-003
1.990210e+003,5.271961e-003
1.992138e+003,5.788756e-003
1.994067e+003,5.754555e-003
1.995995e+003,5.426110e-003
1.997924e+003,5.892708e-003
1.999852e+003,5.848319e-003
2.001781e+003,5.134835e-003
2.003709e+003,4.957618e-003
2.005638e+003,4.604768e-003
2.007566e+003,3.989137e-003
2.009495e+003,2.763923e-003
2.011423e+003,2.983176e-003
2.013352e+003,3.293152e-003
2.015280e+003,3.051436e-003
2.017208e+003,2.957437e-003
2.019137e+003,2.723240e-003
2.021066e+003,2.164420e-003
2.022994e+003,2.598828e-003
2.024922e+003,2.881048e-003
2.026851e+003,2.952798e-003
2.028780e+003,3.404326e-003
2.030708e+003,3.306279e-003
2.032636e+003,2.691358e-003
2.034565e+003,2.743309e-003
2.036494e+003,2.244826e-003
2.038422e+003,2.534200e-003
2.040350e+003,3.361746e-003
2.042279e+003,3.637864e-003
2.044208e+003,3.226671e-003
2.046136e+003,3.272428e-003
2.048064e+003,4.306619e-003
2.049993e+003,5.382995e-003
2.051921e+003,5.960246e-003
2.053850e+003,5.583206e-003
2.055778e+003,5.122911e-003
2.057707e+003,5.612073e-003
2.059635e+003,5.930943e-003
2.061564e+003,6.164861e-003
2.063492e+003,5.853081e-003
2.065421e+003,5.723346e-003
2.067349e+003,6.134903e-003
2.069278e+003,6.653379e-003
2.071206e+003,6.829654e-003
2.073135e+003,6.844707e-003
2.075063e+003,6.717572e-003
2.076992e+003,6.671794e-003
2.078920e+003,6.737924e-003
2.080849e+003,7.163190e-003
2.082777e+003,7.382554e-003
2.084706e+003,7.602273e-003
2.086634e+003,7.636400e-003
2.088563e+003,7.579984e-003
2.090491e+003,7.466717e-003
2.092420e+003,7.426325e-003
2.094348e+003,7.656191e-003
2.096277e+003,7.808826e-003
2.098205e+003,7.595243e-003
2.100134e+003,7.577777e-003
2.102062e+003,7.815651e-003
2.103991e+003,7.974170e-003
2.105919e+003,8.131329e-003
2.107848e+003,8.202569e-003
2.109776e+003,8.202028e-003
2.111705e+003,8.309417e-003
2.113633e+003,8.475246e-003
2.115562e+003,8.726491e-003
2.117490e+003,8.979167e-003
2.119419e+003,9.004402e-003
2.121347e+003,8.926908e-003
2.123276e+003,8.729804e-003
2.125204e+003,8.613085e-003
2.127133e+003,8.829343e-003
2.129061e+003,8.980114e-003
2.130990e+003,8.887170e-003
2.132918e+003,8.571820e-003
2.134847e+003,8.579795e-003
2.136775e+003,8.196997e-003
2.138704e+003,7.561358e-003
2.140632e+003,7.788865e-003
2.142561e+003,7.584184e-003
2.144489e+003,6.601682e-003
2.146418e+003,6.004585e-003
2.148346e+003,6.046111e-003
2.150275e+003,5.689004e-003
2.152203e+003,5.188750e-003
2.154132e+003,4.635451e-003
2.156060e+003,2.034050e-003
2.157989e+003,6.869146e-004
2.159917e+003,1.263348e-003
2.161846e+003,2.812792e-003
2.163774e+003,3.222148e-003
2.165703e+003,3.480459e-003
2.167631e+003,3.435370e-003
2.169560e+003,3.589459e-003
2.171488e+003,3.788020e-003
2.173417e+003,4.594998e-003
2.175345e+003,4.530340e-003
2.177274e+003,4.307979e-003
2.179202e+003,4.476974e-003
2.181131e+003,5.086991e-003
2.183059e+003,5.210848e-003
2.184988e+003,4.668942e-003
2.186916e+003,4.988173e-003
2.188845e+003,5.786874e-003
2.190773e+003,5.741110e-003
2.192702e+003,5.974585e-003
2.194630e+003,6.406672e-003
2.196559e+003,6.928599e-003
2.198487e+003,6.592565e-003
2.200416e+003,6.782543e-003
2.202344e+003,6.953883e-003
2.204273e+003,6.614836e-003
2.206201e+003,6.379099e-003
2.208130e+003,6.434011e-003
2.210058e+003,6.778841e-003
2.211987e+003,6.882410e-003
2.213915e+003,6.775778e-003
2.215844e+003,7.266578e-003
2.217772e+003,7.103500e-003
2.219701e+003,7.151632e-003
2.221629e+003,7.470233e-003
2.223558e+003,7.751119e-003
2.225486e+003,7.575552e-003
2.227415e+003,7.741236e-003
2.229343e+003,8.232689e-003
2.231272e+003,8.300031e-003
2.233200e+003,8.704083e-003
2.235129e+003,8.582765e-003
2.237057e+003,8.297496e-003
2.238986e+003,8.493237e-003
2.240914e+003,8.530953e-003
2.242843e+003,8.538661e-003
2.244771e+003,8.754061e-003
2.246700e+003,9.063846e-003
2.248628e+003,8.729200e-003
2.250557e+003,8.752139e-003
2.252485e+003,8.926460e-003
2.254414e+003,8.638066e-003
2.256342e+003,8.740312e-003
2.258271e+003,9.004219e-003
2.260199e+003,9.007630e-003
2.262128e+003,8.868152e-003
2.264056e+003,8.641472e-003
2.265985e+003,8.648388e-003
2.267913e+003,8.708397e-003
2.269842e+003,9.151717e-003
2.271770e+003,9.291523e-003
2.273699e+003,9.464077e-003
2.275627e+003,9.548256e-003
2.277556e+003,9.616476e-003
2.279484e+003,9.688529e-003
2.281413e+003,9.599877e-003
2.283341e+003,9.552147e-003
2.285270e+003,9.835046e-003
2.287198e+003,9.951971e-003
2.289127e+003,1.016245e-002
2.291055e+003,1.029362e-002
2.292984e+003,1.040909e-002
2.294912e+003,1.056200e-002
2.296841e+003,1.056663e-002
2.298769e+003,1.041122e-002
2.300698e+003,1.061926e-002
2.302626e+003,1.070956e-002
2.304555e+003,1.063296e-002
2.306483e+003,1.074864e-002
2.308412e+003,1.089758e-002
2.310340e+003,1.102241e-002
2.312269e+003,1.130172e-002
2.314197e+003,1.123351e-002
2.316125e+003,1.123243e-002
2.318054e+003,1.143194e-002
2.319983e+003,1.165443e-002
2.321911e+003,1.157878e-002
2.323840e+003,1.154066e-002
2.325768e+003,1.165919e-002
2.327697e+003,1.149558e-002
2.329625e+003,1.137188e-002
2.331553e+003,1.130487e-002
2.333482e+003,1.094397e-002
2.335411e+003,1.057945e-002
2.337339e+003,1.044070e-002
2.339268e+003,1.060694e-002
2.341196e+003,1.039261e-002
2.343125e+003,1.035911e-002
2.345053e+003,1.009321e-002
2.346981e+003,1.001068e-002
2.348910e+003,9.964496e-003
2.350839e+003,9.859117e-003
2.352767e+003,9.874831e-003
2.354696e+003,9.809340e-003
2.356624e+003,1.006822e-002
2.358552e+003,1.021191e-002
2.360481e+003,9.972019e-003
2.362409e+003,9.741278e-003
2.364338e+003,1.016704e-002
2.366267e+003,1.027498e-002
2.368195e+003,1.011097e-002
2.370124e+003,1.021525e-002
2.372052e+003,1.051079e-002
2.373980e+003,1.049750e-002
2.375909e+003,1.058332e-002
2.377838e+003,1.060262e-002
2.379766e+003,1.065475e-002
2.381695e+003,1.084365e-002
2.383623e+003,1.087558e-002
2.385552e+003,1.082470e-002
2.387480e+003,1.076321e-002
2.389408e+003,1.079186e-002
2.391337e+003,1.082677e-002
2.393266e+003,1.082460e-002
2.395194e+003,1.086449e-002
2.397123e+003,1.082877e-002
2.399051e+003,1.083109e-002
2.400979e+003,1.083688e-002
2.402908e+003,1.090170e-002
2.404836e+003,1.092589e-002
2.406765e+003,1.094438e-002
2.408694e+003,1.094091e-002
2.410622e+003,1.094319e-002
2.412551e+003,1.095382e-002
2.414479e+003,1.107281e-002
2.416407e+003,1.116027e-002
2.418336e+003,1.120909e-002
2.420264e+003,1.114409e-002
2.422193e+003,1.100334e-002
2.424122e+003,1.087157e-002
2.426050e+003,1.096235e-002
2.427979e+003,1.094988e-002
2.429907e+003,1.102196e-002
2.431835e+003,1.098621e-002
2.433764e+003,1.079805e-002
2.435692e+003,1.073668e-002
2.437621e+003,1.072839e-002
2.439550e+003,1.086151e-002
2.441478e+003,1.093330e-002
2.443406e+003,1.096912e-002
2.445335e+003,1.093738e-002
2.447263e+003,1.105272e-002
2.449192e+003,1.107478e-002
2.451121e+003,1.112135e-002
2.453049e+003,1.110462e-002
2.454978e+003,1.101948e-002
2.456906e+003,1.093286e-002
2.458834e+003,1.092681e-002
2.460763e+003,1.090347e-002
2.462691e+003,1.098040e-002
2.464620e+003,1.100096e-002
2.466549e+003,1.098162e-002
2.468477e+003,1.090371e-002
2.470406e+003,1.090721e-002
2.472334e+003,1.091889e-002
2.474262e+003,1.096286e-002
2.476191e+003,1.098087e-002
2.478119e+003,1.088662e-002
2.480048e+003,1.082132e-002
2.481977e+003,1.083511e-002
2.483905e+003,1.092229e-002
2.485833e+003,1.103341e-002
2.487762e+003,1.102206e-002
2.489690e+003,1.085376e-002
2.491619e+003,1.085723e-002
2.493547e+003,1.099369e-002
2.495476e+003,1.105605e-002
2.497405e+003,1.114609e-002
2.499333e+003,1.105343e-002
2.501261e+003,1.102886e-002
2.503190e+003,1.117373e-002
2.505118e+003,1.117611e-002
2.507047e+003,1.101652e-002
2.508975e+003,1.102651e-002
2.510904e+003,1.112396e-002
2.512833e+003,1.104225e-002
2.514761e+003,1.102301e-002
2.516689e+003,1.114966e-002
2.518618e+003,1.121066e-002
2.520546e+003,1.113066e-002
2.522475e+003,1.117958e-002
2.524403e+003,1.118975e-002
2.526332e+003,1.121596e-002
2.528260e+003,1.118669e-002
2.530189e+003,1.116010e-002
2.532117e+003,1.122827e-002
2.534046e+003,1.130767e-002
2.535974e+003,1.125721e-002
2.537903e+003,1.122436e-002
2.539831e+003,1.124279e-002
2.541760e+003,1.136073e-002
2.543688e+003,1.137348e-002
2.545617e+003,1.129332e-002
2.547545e+003,1.127200e-002
2.549474e+003,1.131355e-002
2.551402e+003,1.127026e-002
2.553331e+003,1.134120e-002
2.555259e+003,1.144896e-002
2.557188e+003,1.144930e-002
2.559116e+003,1.143138e-002
2.561045e+003,1.132682e-002
2.562973e+003,1.138215e-002
2.564902e+003,1.159323e-002
2.566830e+003,1.160596e-002
2.568759e+003,1.157577e-002
2.570687e+003,1.153487e-002
2.572616e+003,1.145308e-002
2.574544e+003,1.139583e-002
2.576473e+003,1.142852e-002
2.578401e+003,1.146716e-002
2.580330e+003,1.156141e-002
2.582258e+003,1.157506e-002
2.584187e+003,1.143644e-002
2.586115e+003,1.133600e-002
2.588044e+003,1.145890e-002
2.589972e+003,1.151626e-002
2.591901e+003,1.144913e-002
2.593829e+003,1.145192e-002
2.595758e+003,1.140127e-002
2.597686e+003,1.125622e-002
2.599615e+003,1.134287e-002
2.601543e+003,1.133342e-002
2.603472e+003,1.137338e-002
2.605400e+003,1.145240e-002
2.607329e+003,1.142753e-002
2.609257e+003,1.138008e-002
2.611186e+003,1.141307e-002
2.613114e+003,1.140141e-002
2.615043e+003,1.141726e-002
2.616971e+003,1.133821e-002
2.618900e+003,1.127761e-002
2.620828e+003,1.132178e-002
2.622757e+003,1.143206e-002
2.624685e+003,1.148707e-002
2.626614e+003,1.142270e-002
2.628542e+003,1.142495e-002
2.630471e+003,1.150898e-002
2.632399e+003,1.152772e-002
2.634328e+003,1.150762e-002
2.636256e+003,1.156924e-002
2.638185e+003,1.163686e-002
2.640113e+003,1.173597e-002
2.642042e+003,1.177080e-002
2.643970e+003,1.175746e-002
2.645899e+003,1.175528e-002
2.647827e+003,1.182034e-002
2.649756e+003,1.189059e-002
2.651684e+003,1.198400e-002
2.653613e+003,1.205615e-002
2.655541e+003,1.207135e-002
2.657470e+003,1.209894e-002
2.659398e+003,1.217404e-002
2.661327e+003,1.227860e-002
2.663255e+003,1.234953e-002
2.665184e+003,1.235921e-002
2.667112e+003,1.238338e-002
2.669041e+003,1.237691e-002
2.670969e+003,1.237830e-002
2.672898e+003,1.241260e-002
2.674826e+003,1.246116e-002
2.676755e+003,1.248714e-002
2.678683e+003,1.247483e-002
2.680612e+003,1.247125e-002
2.682540e+003,1.249239e-002
2.684469e+003,1.254645e-002
2.686397e+003,1.260644e-002
2.688326e+003,1.259986e-002
2.690254e+003,1.255900e-002
2.692183e+003,1.256541e-002
2.694111e+003,1.258962e-002
2.696040e+003,1.260177e-002
2.697968e+003,1.263874e-002
2.699897e+003,1.266249e-002
2.701825e+003,1.265809e-002
2.703754e+003,1.269411e-002
2.705682e+003,1.269858e-002
2.707611e+003,1.266750e-002
2.709539e+003,1.265351e-002
2.711468e+003,1.272912e-002
2.713396e+003,1.274829e-002
2.715325e+003,1.273325e-002
2.717253e+003,1.272806e-002
2.719182e+003,1.268309e-002
2.721110e+003,1.268401e-002
2.723039e+003,1.274392e-002
2.724967e+003,1.282012e-002
2.726896e+003,1.282470e-002
2.728824e+003,1.281053e-002
2.730753e+003,1.283876e-002
2.732681e+003,1.283374e-002
2.734610e+003,1.279545e-002
2.736538e+003,1.282473e-002
2.738467e+003,1.277296e-002
2.740395e+003,1.277951e-002
2.742324e+003,1.284749e-002
2.744252e+003,1.286391e-002
2.746181e+003,1.284429e-002
2.748109e+003,1.282364e-002
2.750038e+003,1.278985e-002
2.751966e+003,1.282985e-002
2.753895e+003,1.285548e-002
2.755823e+003,1.283937e-002
2.757752e+003,1.286589e-002
2.759680e+003,1.288971e-002
2.761609e+003,1.295402e-002
2.763537e+003,1.297348e-002
2.765466e+003,1.299765e-002
2.767394e+003,1.300250e-002
2.769323e+003,1.302978e-002
2.771251e+003,1.309428e-002
2.773180e+003,1.315384e-002
2.775108e+003,1.313468e-002
2.777037e+003,1.309117e-002
2.778965e+003,1.312676e-002
2.780894e+003,1.320125e-002
2.782822e+003,1.320586e-002
2.784750e+003,1.316549e-002
2.786679e+003,1.318881e-002
2.788608e+003,1.323322e-002
2.790536e+003,1.323400e-002
2.792465e+003,1.322140e-002
2.794393e+003,1.329382e-002
2.796322e+003,1.335409e-002
2.798250e+003,1.336868e-002
2.800178e+003,1.338765e-002
2.802107e+003,1.341143e-002
2.804036e+003,1.342114e-002
2.805964e+003,1.347079e-002
2.807893e+003,1.349055e-002
2.809821e+003,1.348528e-002
2.811750e+003,1.351229e-002
2.813678e+003,1.357023e-002
2.815606e+003,1.355929e-002
2.817535e+003,1.360120e-002
2.819464e+003,1.367940e-002
2.821392e+003,1.371561e-002
2.823321e+003,1.375952e-002
2.825249e+003,1.383939e-002
2.827177e+003,1.390507e-002
2.829106e+003,1.396029e-002
2.831034e+003,1.401812e-002
2.832963e+003,1.410789e-002
2.834892e+003,1.420415e-002
2.836820e+003,1.435023e-002
2.838749e+003,1.446579e-002
2.840677e+003,1.461730e-002
2.842605e+003,1.479834e-002
2.844534e+003,1.502569e-002
2.846462e+003,1.543125e-002
2.848391e+003,1.571678e-002
2.850320e+003,1.572207e-002
2.852248e+003,1.551104e-002
2.854177e+003,1.532956e-002
2.856105e+003,1.525920e-002
2.858033e+003,1.525100e-002
2.859962e+003,1.521384e-002
2.861890e+003,1.521109e-002
2.863819e+003,1.522159e-002
2.865748e+003,1.523714e-002
2.867676e+003,1.526617e-002
2.869604e+003,1.529356e-002
2.871533e+003,1.533873e-002
2.873461e+003,1.539722e-002
2.875390e+003,1.535830e-002
2.877319e+003,1.533385e-002
2.879247e+003,1.540498e-002
2.881176e+003,1.545480e-002
2.883104e+003,1.548687e-002
2.885032e+003,1.557619e-002
2.886961e+003,1.559659e-002
2.888889e+003,1.560847e-002
2.890818e+003,1.569445e-002
2.892747e+003,1.572118e-002
2.894675e+003,1.574296e-002
2.896604e+003,1.574870e-002
2.898532e+003,1.578800e-002
2.900460e+003,1.578508e-002
2.902389e+003,1.580017e-002
2.904317e+003,1.586488e-002
2.906246e+003,1.591612e-002
2.908175e+003,1.596789e-002
2.910103e+003,1.610166e-002
2.912031e+003,1.633217e-002
2.913960e+003,1.655045e-002
2.915888e+003,1.663045e-002
2.917817e+003,1.666082e-002
2.919745e+003,1.655592e-002
2.921674e+003,1.638030e-002
2.923603e+003,1.615809e-002
2.925531e+003,1.595431e-002
2.927459e+003,1.578921e-002
2.929388e+003,1.568140e-002
2.931316e+003,1.551393e-002
2.933245e+003,1.532455e-002
2.935173e+003,1.522149e-002
2.937102e+003,1.507365e-002
2.939031e+003,1.500137e-002
2.940959e+003,1.493059e-002
2.942887e+003,1.484065e-002
2.944816e+003,1.465397e-002
2.946744e+003,1.454979e-002
2.948673e+003,1.449344e-002
2.950601e+003,1.436588e-002
2.952530e+003,1.424445e-002
2.954458e+003,1.418371e-002
2.956387e+003,1.414140e-002
2.958315e+003,1.407325e-002
2.960244e+003,1.396761e-002
2.962172e+003,1.389286e-002
2.964101e+003,1.383716e-002
2.966029e+003,1.376441e-002
2.967958e+003,1.365341e-002
2.969886e+003,1.362363e-002
2.971815e+003,1.359806e-002
2.973743e+003,1.351112e-002
2.975672e+003,1.347353e-002
2.977600e+003,1.346505e-002
2.979529e+003,1.343163e-002
2.981457e+003,1.338146e-002
2.983386e+003,1.337890e-002
2.985314e+003,1.337292e-002
2.987243e+003,1.331914e-002
2.989171e+003,1.331719e-002
2.991100e+003,1.329778e-002
2.993028e+003,1.332536e-002
2.994957e+003,1.328572e-002
2.996885e+003,1.330868e-002
2.998814e+003,1.331606e-002
3.000742e+003,1.328924e-002
3.002671e+003,1.333263e-002
3.004599e+003,1.335648e-002
3.006528e+003,1.337511e-002
3.008456e+003,1.336082e-002
3.010385e+003,1.340371e-002
3.012313e+003,1.346249e-002
3.014242e+003,1.346262e-002
3.016170e+003,1.349339e-002
3.018099e+003,1.347507e-002
3.020027e+003,1.347182e-002
3.021956e+003,1.354920e-002
3.023884e+003,1.354968e-002
3.025813e+003,1.359836e-002
3.027741e+003,1.363501e-002
3.029670e+003,1.364260e-002
3.031598e+003,1.364602e-002
3.033527e+003,1.371540e-002
3.035455e+003,1.377477e-002
3.037384e+003,1.376807e-002
3.039312e+003,1.378962e-002
3.041241e+003,1.387770e-002
3.043169e+003,1.388030e-002
3.045098e+003,1.390028e-002
3.047026e+003,1.393716e-002
3.048955e+003,1.391841e-002
3.050883e+003,1.393962e-002
3.052812e+003,1.403294e-002
3.054740e+003,1.405460e-002
3.056669e+003,1.404550e-002
3.058597e+003,1.415236e-002
3.060526e+003,1.424934e-002
3.062454e+003,1.419279e-002
3.064383e+003,1.422483e-002
3.066311e+003,1.427886e-002
3.068240e+003,1.429756e-002
3.070168e+003,1.431269e-002
3.072097e+003,1.431940e-002
3.074025e+003,1.437091e-002
3.075954e+003,1.441451e-002
3.077882e+003,1.446504e-002
3.079811e+003,1.447847e-002
3.081739e+003,1.444209e-002
3.083668e+003,1.448652e-002
3.085596e+003,1.454870e-002
3.087525e+003,1.454870e-002
3.089453e+003,1.457477e-002
3.091382e+003,1.456148e-002
3.093310e+003,1.464492e-002
3.095239e+003,1.470181e-002
3.097167e+003,1.475148e-002
3.099096e+003,1.473026e-002
3.101024e+003,1.475659e-002
3.102953e+003,1.481003e-002
3.104881e+003,1.491615e-002
3.106810e+003,1.491540e-002
3.108738e+003,1.491920e-002
3.110667e+003,1.499722e-002
3.112595e+003,1.505142e-002
3.114524e+003,1.502809e-002
3.116452e+003,1.508473e-002
3.118381e+003,1.515554e-002
3.120309e+003,1.518436e-002
3.122238e+003,1.520859e-002
3.124166e+003,1.533317e-002
3.126095e+003,1.533739e-002
3.128023e+003,1.534031e-002
3.129952e+003,1.541799e-002
3.131880e+003,1.545009e-002
3.133809e+003,1.556746e-002
3.135737e+003,1.566851e-002
3.137666e+003,1.565333e-002
3.139594e+003,1.566432e-002
3.141523e+003,1.566954e-002
3.143451e+003,1.573413e-002
3.145380e+003,1.579969e-002
3.147308e+003,1.588567e-002
3.149237e+003,1.592567e-002
3.151165e+003,1.599827e-002
3.153094e+003,1.599030e-002
3.155022e+003,1.602158e-002
3.156951e+003,1.614134e-002
3.158879e+003,1.618990e-002
3.160808e+003,1.617064e-002
3.162736e+003,1.620734e-002
3.164665e+003,1.625491e-002
3.166593e+003,1.630307e-002
3.168522e+003,1.644586e-002
3.170450e+003,1.658418e-002
3.172379e+003,1.659709e-002
3.174307e+003,1.655369e-002
3.176236e+003,1.662398e-002
3.178164e+003,1.666629e-002
3.180093e+003,1.666746e-002
3.182021e+003,1.671990e-002
3.183950e+003,1.673833e-002
3.185878e+003,1.687279e-002
3.187807e+003,1.700122e-002
3.189735e+003,1.710884e-002
3.191664e+003,1.708210e-002
3.193592e+003,1.709892e-002
3.195521e+003,1.717461e-002
3.197449e+003,1.724707e-002
3.199378e+003,1.731441e-002
3.201306e+003,1.735445e-002
3.203235e+003,1.749147e-002
3.205163e+003,1.754657e-002
3.207092e+003,1.756844e-002
3.209020e+003,1.774492e-002
3.210948e+003,1.773350e-002
3.212877e+003,1.769108e-002
3.214806e+003,1.779856e-002
3.216734e+003,1.790127e-002
3.218663e+003,1.788190e-002
3.220591e+003,1.795479e-002
3.222520e+003,1.810362e-002
3.224448e+003,1.814176e-002
3.226376e+003,1.818080e-002
3.228305e+003,1.822157e-002
3.230234e+003,1.834470e-002
3.232162e+003,1.843651e-002
3.234091e+003,1.848066e-002
3.236019e+003,1.847734e-002
3.237948e+003,1.855812e-002
3.239876e+003,1.863313e-002
3.241804e+003,1.872434e-002
3.243733e+003,1.877703e-002
3.245662e+003,1.884475e-002
3.247590e+003,1.901399e-002
3.249519e+003,1.908946e-002
3.251447e+003,1.913323e-002
3.253375e+003,1.922427e-002
3.255304e+003,1.922825e-002
3.257232e+003,1.926434e-002
3.259161e+003,1.934997e-002
3.261090e+003,1.939747e-002
3.263018e+003,1.940295e-002
3.264947e+003,1.947464e-002
3.266875e+003,1.959653e-002
3.268803e+003,1.969627e-002
3.270732e+003,1.971648e-002
3.272660e+003,1.968296e-002
3.274589e+003,1.966250e-002
3.276518e+003,1.969027e-002
3.278446e+003,1.981077e-002
3.280375e+003,1.986779e-002
3.282303e+003,1.990393e-002
3.284231e+003,1.989585e-002
3.286160e+003,1.981303e-002
3.288088e+003,1.985322e-002
3.290017e+003,1.993366e-002
3.291946e+003,1.996842e-002
3.293874e+003,1.991784e-002
3.295802e+003,1.988877e-002
3.297731e+003,1.995000e-002
3.299659e+003,1.998462e-002
3.301588e+003,1.998400e-002
3.303516e+003,2.001276e-002
3.305445e+003,2.007237e-002
3.307374e+003,2.006974e-002
3.309302e+003,2.004246e-002
3.311230e+003,1.999868e-002
3.313159e+003,1.997064e-002
3.315087e+003,2.001252e-002
3.317016e+003,2.008414e-002
3.318944e+003,2.016198e-002
3.320873e+003,2.019090e-002
3.322802e+003,2.017625e-002
3.324730e+003,2.016497e-002
3.326658e+003,2.013876e-002
3.328587e+003,2.015410e-002
3.330515e+003,2.013470e-002
3.332444e+003,2.014102e-002
3.334372e+003,2.020068e-002
3.336301e+003,2.012054e-002
3.338229e+003,2.005412e-002
3.340158e+003,2.010600e-002
3.342086e+003,2.008556e-002
3.344015e+003,2.003768e-002
3.345943e+003,1.998507e-002
3.347872e+003,1.993831e-002
3.349800e+003,1.991087e-002
3.351729e+003,1.991340e-002
3.353657e+003,1.978493e-002
3.355586e+003,1.966576e-002
3.357514e+003,1.962468e-002
3.359443e+003,1.965130e-002
3.361371e+003,1.965484e-002
3.363300e+003,1.964361e-002
3.365229e+003,1.960922e-002
3.367157e+003,1.952191e-002
3.369085e+003,1.949200e-002
3.371014e+003,1.947110e-002
3.372942e+003,1.940620e-002
3.374871e+003,1.936688e-002
3.376799e+003,1.932957e-002
3.378728e+003,1.927743e-002
3.380656e+003,1.927317e-002
3.382585e+003,1.921578e-002
3.384513e+003,1.923525e-002
3.386442e+003,1.915805e-002
3.388370e+003,1.912371e-002
3.390299e+003,1.903604e-002
3.392227e+003,1.901486e-002
3.394156e+003,1.903033e-002
3.396084e+003,1.902437e-002
3.398013e+003,1.893926e-002
3.399941e+003,1.885281e-002
3.401870e+003,1.876098e-002
3.403798e+003,1.866149e-002
3.405727e+003,1.863977e-002
3.407655e+003,1.859681e-002
3.409584e+003,1.848716e-002
3.411512e+003,1.846541e-002
3.413441e+003,1.836752e-002
3.415369e+003,1.825415e-002
3.417298e+003,1.829607e-002
3.419226e+003,1.816290e-002
3.421155e+003,1.802468e-002
3.423083e+003,1.791217e-002
3.425012e+003,1.777756e-002
3.426940e+003,1.773687e-002
3.428869e+003,1.771400e-002
3.430797e+003,1.763080e-002
3.432726e+003,1.761119e-002
3.434654e+003,1.747191e-002
3.436583e+003,1.730547e-002
3.438511e+003,1.719547e-002
3.440440e+003,1.717714e-002
3.442368e+003,1.703621e-002
3.444297e+003,1.693849e-002
3.446225e+003,1.686683e-002
3.448154e+003,1.671936e-002
3.450082e+003,1.659449e-002
3.452011e+003,1.655773e-002
3.453939e+003,1.640633e-002
3.455868e+003,1.620539e-002
3.457796e+003,1.616029e-002
3.459725e+003,1.606891e-002
3.461653e+003,1.592687e-002
3.463582e+003,1.584104e-002
3.465510e+003,1.578156e-002
3.467439e+003,1.565899e-002
3.469367e+003,1.558264e-002
3.471296e+003,1.547671e-002
3.473224e+003,1.533936e-002
3.475153e+003,1.532312e-002
3.477081e+003,1.518633e-002
3.479010e+003,1.519778e-002
3.480938e+003,1.520484e-002
3.482867e+003,1.505423e-002
3.484795e+003,1.491529e-002
3.486724e+003,1.480813e-002
3.488652e+003,1.467512e-002
3.490581e+003,1.451732e-002
3.492509e+003,1.444374e-002
3.494438e+003,1.444490e-002
3.496366e+003,1.437262e-002
3.498295e+003,1.419104e-002
3.500223e+003,1.409865e-002
3.502152e+003,1.406017e-002
3.504080e+003,1.391030e-002
3.506009e+003,1.382485e-002
3.507937e+003,1.384975e-002
3.509866e+003,1.386162e-002
3.511794e+003,1.369727e-002
3.513723e+003,1.349077e-002
3.515651e+003,1.336781e-002
3.517580e+003,1.345824e-002
3.519508e+003,1.344246e-002
3.521437e+003,1.336331e-002
3.523365e+003,1.331145e-002
3.525294e+003,1.318374e-002
3.527222e+003,1.301786e-002
3.529151e+003,1.297366e-002
3.531079e+003,1.296441e-002
3.533008e+003,1.279976e-002
3.534936e+003,1.272283e-002
3.536865e+003,1.263437e-002
3.538793e+003,1.257061e-002
3.540722e+003,1.252898e-002
3.542650e+003,1.251321e-002
3.544579e+003,1.247017e-002
3.546507e+003,1.243063e-002
3.548436e+003,1.227382e-002
3.550364e+003,1.217620e-002
3.552293e+003,1.219667e-002
3.554221e+003,1.216489e-002
3.556150e+003,1.212232e-002
3.558078e+003,1.209153e-002
3.560007e+003,1.203554e-002
3.561935e+003,1.187987e-002
3.563864e+003,1.179388e-002
3.565792e+003,1.174527e-002
3.567721e+003,1.175523e-002
3.569649e+003,1.176479e-002
3.571578e+003,1.170593e-002
3.573506e+003,1.157767e-002
3.575435e+003,1.154520e-002
3.577363e+003,1.147970e-002
3.579292e+003,1.144637e-002
3.581220e+003,1.143058e-002
3.583149e+003,1.162948e-002
3.585077e+003,1.176844e-002
3.587006e+003,1.171605e-002
3.588934e+003,1.171140e-002
3.590863e+003,1.178080e-002
3.592791e+003,1.173876e-002
3.594720e+003,1.167066e-002
3.596648e+003,1.175311e-002
3.598577e+003,1.180922e-002
3.600505e+003,1.167030e-002
3.602434e+003,1.154454e-002
3.604362e+003,1.138905e-002
3.606291e+003,1.121865e-002
3.608219e+003,1.102334e-002
3.610148e+003,1.072423e-002
3.612076e+003,1.052161e-002
3.614005e+003,1.059210e-002
3.615933e+003,1.075504e-002
3.617862e+003,1.094171e-002
3.619790e+003,1.119936e-002
3.621719e+003,1.139657e-002
3.623647e+003,1.153123e-002
3.625576e+003,1.149681e-002
3.627504e+003,1.133101e-002
3.629433e+003,1.126070e-002
3.631361e+003,1.110784e-002
3.633290e+003,1.085537e-002
3.635218e+003,1.059659e-002
3.637146e+003,1.037190e-002
3.639075e+003,1.014405e-002
3.641004e+003,1.004376e-002
3.642932e+003,1.001573e-002
3.644861e+003,9.953097e-003
3.646789e+003,9.830796e-003
3.648718e+003,9.675759e-003
3.650646e+003,9.765425e-003
3.652574e+003,9.725315e-003
3.654503e+003,9.590829e-003
3.656432e+003,9.551887e-003
3.658360e+003,9.571007e-003
3.660289e+003,9.628777e-003
3.662217e+003,9.637453e-003
3.664146e+003,9.579078e-003
3.666074e+003,9.634004e-003
3.668002e+003,9.792466e-003
3.669931e+003,9.711328e-003
3.671860e+003,9.629881e-003
3.673788e+003,9.770008e-003
3.675717e+003,9.873765e-003
3.677645e+003,9.906100e-003
3.679573e+003,1.001007e-002
3.681502e+003,9.973801e-003
3.683430e+003,9.913083e-003
3.685359e+003,1.004250e-002
3.687288e+003,1.015023e-002
3.689216e+003,1.025669e-002
3.691145e+003,1.035731e-002
3.693073e+003,1.047727e-002
3.695001e+003,1.059452e-002
3.696930e+003,1.074552e-002
3.698858e+003,1.087216e-002
3.700787e+003,1.089157e-002
3.702716e+003,1.098785e-002
3.704644e+003,1.093516e-002
3.706573e+003,1.081666e-002
3.708501e+003,1.070432e-002
3.710429e+003,1.052615e-002
3.712358e+003,1.018236e-002
3.714286e+003,9.887405e-003
3.716215e+003,9.980027e-003
3.718144e+003,1.034360e-002
3.720072e+003,1.073096e-002
3.722000e+003,1.099754e-002
3.723929e+003,1.117092e-002
3.725857e+003,1.152351e-002
3.727786e+003,1.164250e-002
3.729714e+003,1.149105e-002
3.731643e+003,1.134406e-002
3.733572e+003,1.111696e-002
3.735500e+003,1.082561e-002
3.737428e+003,1.064138e-002
3.739357e+003,1.034255e-002
3.741285e+003,9.960140e-003
3.743214e+003,9.667356e-003
3.745142e+003,9.596418e-003
3.747071e+003,9.560220e-003
3.749000e+003,9.489496e-003
3.750928e+003,9.347479e-003
3.752856e+003,9.365800e-003
3.754785e+003,9.409433e-003
3.756713e+003,9.409043e-003
3.758642e+003,9.463746e-003
3.760570e+003,9.494828e-003
3.762499e+003,9.479501e-003
3.764427e+003,9.457178e-003
3.766356e+003,9.485432e-003
3.768284e+003,9.523768e-003
3.770213e+003,9.477730e-003
3.772141e+003,9.419028e-003
3.774070e+003,9.414773e-003
3.775998e+003,9.474095e-003
3.777927e+003,9.549901e-003
3.779855e+003,9.658026e-003
3.781784e+003,9.652576e-003
3.783712e+003,9.673017e-003
3.785641e+003,9.644933e-003
3.787569e+003,9.621269e-003
3.789498e+003,9.516743e-003
3.791426e+003,9.476477e-003
3.793355e+003,9.544807e-003
3.795283e+003,9.551111e-003
3.797212e+003,9.587544e-003
3.799140e+003,9.583361e-003
3.801069e+003,9.588005e-003
3.802997e+003,9.644503e-003
3.804926e+003,9.597328e-003
3.806854e+003,9.584697e-003
3.808783e+003,9.695602e-003
3.810711e+003,9.621806e-003
3.812640e+003,9.670681e-003
3.814568e+003,9.684836e-003
3.816497e+003,9.660077e-003
3.818425e+003,9.684803e-003
3.820354e+003,9.733664e-003
3.822282e+003,9.698739e-003
3.824211e+003,9.711235e-003
3.826139e+003,9.766653e-003
3.828068e+003,9.731626e-003
3.829996e+003,9.662662e-003
3.831925e+003,9.624816e-003
3.833853e+003,9.505207e-003
3.835782e+003,9.521443e-003
3.837710e+003,9.594132e-003
3.839639e+003,9.623888e-003
3.841567e+003,9.646474e-003
3.843496e+003,9.696207e-003
3.845424e+003,9.610307e-003
3.847353e+003,9.636928e-003
3.849281e+003,9.751079e-003
3.851210e+003,9.737355e-003
3.853138e+003,9.686626e-003
3.855067e+003,9.714414e-003
3.856995e+003,9.753108e-003
3.858924e+003,9.688703e-003
3.860852e+003,9.649673e-003
3.862781e+003,9.627474e-003
3.864709e+003,9.697660e-003
3.866638e+003,9.772280e-003
3.868566e+003,9.709425e-003
3.870495e+003,9.716432e-003
3.872423e+003,9.750364e-003
3.874352e+003,9.855489e-003
3.876280e+003,9.769605e-003
3.878209e+003,9.696753e-003
3.880137e+003,9.739268e-003
3.882066e+003,9.702830e-003
3.883994e+003,9.682735e-003
3.885923e+003,9.751195e-003
3.887851e+003,9.736926e-003
3.889780e+003,9.791574e-003
3.891708e+003,9.895878e-003
3.893637e+003,9.819040e-003
3.895565e+003,9.726451e-003
3.897494e+003,9.776273e-003
3.899422e+003,9.816952e-003
3.901351e+003,9.869386e-003
3.903279e+003,9.892604e-003
3.905208e+003,9.872272e-003
3.907136e+003,9.850788e-003
3.909065e+003,9.851051e-003
3.910993e+003,9.880727e-003
3.912922e+003,9.879772e-003
3.914850e+003,9.818633e-003
3.916779e+003,9.829391e-003
3.918707e+003,9.814862e-003
3.920636e+003,9.796956e-003
3.922564e+003,9.810681e-003
3.924493e+003,9.889135e-003
3.926421e+003,9.864070e-003
3.928350e+003,9.809203e-003
3.930278e+003,9.819703e-003
3.932207e+003,9.838976e-003
3.934135e+003,9.798006e-003
3.936064e+003,9.759840e-003
3.937992e+003,9.767559e-003
3.939921e+003,9.794616e-003
3.941849e+003,9.824959e-003
3.943778e+003,9.915859e-003
3.945706e+003,9.874795e-003
3.947635e+003,9.834149e-003
3.949563e+003,9.884361e-003
3.951492e+003,9.905431e-003
3.953420e+003,9.796236e-003
3.955349e+003,9.767385e-003
3.957277e+003,9.748583e-003
3.959206e+003,9.792644e-003
3.961134e+003,9.790060e-003
3.963063e+003,9.750388e-003
3.964991e+003,9.810886e-003
3.966920e+003,9.777345e-003
3.968848e+003,9.772369e-003
3.970777e+003,9.844495e-003
3.972705e+003,9.879179e-003
3.974634e+003,9.855249e-003
3.976562e+003,9.902455e-003
3.978491e+003,9.929640e-003
3.980419e+003,9.890866e-003
3.982348e+003,9.879497e-003
3.984276e+003,9.820626e-003
3.986205e+003,9.789736e-003
3.988133e+003,9.768175e-003
3.990062e+003,9.753191e-003
3.991990e+003,9.771255e-003
3.993919e+003,9.795551e-003
3.995847e+003,9.829889e-003
3.997776e+003,9.858361e-003
3.999704e+003,9.858016e-003
4.001633e+003,0.000000e+000
