3.991989e+002,8.707266e-002
4.011274e+002,8.787916e-002
4.030559e+002,8.787916e-002
4.049844e+002,8.851077e-002
4.069129e+002,9.011771e-002
4.088414e+002,9.129231e-002
4.107699e+002,9.223025e-002
4.126984e+002,9.253925e-002
4.146269e+002,9.440108e-002
4.165554e+002,9.749970e-002
4.184839e+002,9.825614e-002
4.204124e+002,9.912995e-002
4.223409e+002,9.908115e-002
4.242694e+002,1.011632e-001
4.261979e+002,1.019951e-001
4.281264e+002,1.033852e-001
4.300549e+002,1.040015e-001
4.319834e+002,1.054648e-001
4.339119e+002,1.072000e-001
4.358404e+002,1.079524e-001
4.377689e+002,1.081510e-001
4.396974e+002,1.093685e-001
4.416259e+002,1.106305e-001
4.435544e+002,1.111286e-001
4.454829e+002,1.110105e-001
4.474114e+002,1.125239e-001
4.493399e+002,1.128367e-001
4.512684e+002,1.127425e-001
4.531969e+002,1.131182e-001
4.551254e+002,1.129366e-001
4.570539e+002,1.124847e-001
4.589824e+002,1.129836e-001
4.609109e+002,1.121010e-001
4.628394e+002,1.113649e-001
4.647679e+002,1.104553e-001
4.666964e+002,1.091479e-001
4.686249e+002,1.079360e-001
4.705533e+002,1.067486e-001
4.724819e+002,1.041816e-001
4.744103e+002,1.020095e-001
4.763389e+002,9.929233e-002
4.782673e+002,9.653439e-002
4.801959e+002,9.328027e-002
4.821243e+002,9.006458e-002
4.840529e+002,8.660784e-002
4.859813e+002,8.377930e-002
4.879099e+002,8.097608e-002
4.898383e+002,7.811925e-002
4.917668e+002,7.528088e-002
4.936953e+002,7.275715e-002
4.956238e+002,7.104192e-002
4.975523e+002,6.970383e-002
4.994808e+002,6.856098e-002
5.014093e+002,6.754021e-002
5.033378e+002,6.665009e-002
5.052663e+002,6.604425e-002
5.071948e+002,6.538066e-002
5.091233e+002,6.515224e-002
5.110518e+002,6.495860e-002
5.129803e+002,6.518200e-002
5.149088e+002,6.500794e-002
5.168373e+002,6.478829e-002
5.187658e+002,6.457993e-002
5.206943e+002,6.454676e-002
5.226228e+002,6.441811e-002
5.245513e+002,6.447291e-002
5.264798e+002,6.454307e-002
5.284083e+002,6.452385e-002
5.303368e+002,6.390887e-002
5.322653e+002,6.336278e-002
5.341938e+002,6.325292e-002
5.361223e+002,6.368863e-002
5.380508e+002,6.341258e-002
5.399792e+002,6.305963e-002
5.419078e+002,6.297060e-002
5.438363e+002,6.280278e-002
5.457648e+002,6.278957e-002
5.476932e+002,6.311101e-002
5.496218e+002,6.311587e-002
5.515503e+002,6.319995e-002
5.534788e+002,6.368686e-002
5.554072e+002,6.407612e-002
5.573358e+002,6.419073e-002
5.592643e+002,6.377661e-002
5.611927e+002,6.335477e-002
5.631212e+002,6.279915e-002
5.650497e+002,6.212854e-002
5.669783e+002,6.167304e-002
5.689067e+002,6.157112e-002
5.708352e+002,6.137770e-002
5.727637e+002,6.102384e-002
5.746923e+002,6.068882e-002
5.766207e+002,6.022717e-002
5.785492e+002,6.013043e-002
5.804777e+002,5.993681e-002
5.824063e+002,5.923882e-002
5.843347e+002,5.886184e-002
5.862632e+002,5.890566e-002
5.881917e+002,5.861658e-002
5.901202e+002,5.850185e-002
5.920487e+002,5.825872e-002
5.939772e+002,5.793698e-002
5.959057e+002,5.745911e-002
5.978342e+002,5.710993e-002
5.997627e+002,5.695732e-002
6.016912e+002,5.669550e-002
6.036197e+002,5.635502e-002
6.055482e+002,5.609111e-002
6.074767e+002,5.574744e-002
6.094052e+002,5.572307e-002
6.113337e+002,5.553009e-002
6.132622e+002,5.503477e-002
6.151907e+002,5.471212e-002
6.171192e+002,5.424773e-002
6.190477e+002,5.370568e-002
6.209762e+002,5.337482e-002
6.229047e+002,5.288993e-002
6.248332e+002,5.222237e-002
6.267617e+002,5.157405e-002
6.286902e+002,5.094719e-002
6.306187e+002,5.056226e-002
6.325472e+002,5.027357e-002
6.344756e+002,4.993877e-002
6.364042e+002,4.962537e-002
6.383326e+002,4.914499e-002
6.402612e+002,4.878690e-002
6.421896e+002,4.867061e-002
6.441182e+002,4.856471e-002
6.460466e+002,4.843849e-002
6.479752e+002,4.809897e-002
6.499036e+002,4.757799e-002
6.518322e+002,4.732909e-002
6.537606e+002,4.721775e-002
6.556891e+002,4.743236e-002
6.576177e+002,4.727035e-002
6.595461e+002,4.696922e-002
6.614746e+002,4.690763e-002
6.634031e+002,4.697689e-002
6.653317e+002,4.667247e-002
6.672601e+002,4.650846e-002
6.691886e+002,4.634540e-002
6.711171e+002,4.614635e-002
6.730457e+002,4.557616e-002
6.749741e+002,4.472241e-002
6.769026e+002,4.392993e-002
6.788311e+002,4.342371e-002
6.807596e+002,4.298465e-002
6.826881e+002,4.245602e-002
6.846166e+002,4.205292e-002
6.865451e+002,4.175746e-002
6.884736e+002,4.150913e-002
6.904021e+002,4.149534e-002
6.923306e+002,4.131824e-002
6.942591e+002,4.119032e-002
6.961876e+002,4.103930e-002
6.981161e+002,4.096300e-002
7.000446e+002,4.088498e-002
7.019731e+002,4.070524e-002
7.039016e+002,4.050328e-002
7.058301e+002,4.044491e-002
7.077585e+002,4.017703e-002
7.096871e+002,3.979975e-002
7.116156e+002,3.952449e-002
7.135441e+002,3.946625e-002
7.154725e+002,3.933790e-002
7.174011e+002,3.932710e-002
7.193296e+002,3.917406e-002
7.212581e+002,3.888668e-002
7.231865e+002,3.866699e-002
7.251151e+002,3.851743e-002
7.270436e+002,3.840909e-002
7.289720e+002,3.811307e-002
7.309005e+002,3.779565e-002
7.328290e+002,3.762685e-002
7.347576e+002,3.755318e-002
7.366860e+002,3.747999e-002
7.386145e+002,3.739797e-002
7.405430e+002,3.721304e-002
7.424716e+002,3.710762e-002
7.444000e+002,3.695215e-002
7.463285e+002,3.672589e-002
7.482570e+002,3.666693e-002
7.501855e+002,3.656149e-002
7.521140e+002,3.641410e-002
7.540425e+002,3.620929e-002
7.559710e+002,3.612064e-002
7.578995e+002,3.615927e-002
7.598280e+002,3.612895e-002
7.617565e+002,3.612225e-002
7.636850e+002,3.631443e-002
7.656135e+002,3.638278e-002
7.675420e+002,3.644053e-002
7.694705e+002,3.655636e-002
7.713990e+002,3.703886e-002
7.733275e+002,3.744593e-002
7.752560e+002,3.796554e-002
7.771844e+002,3.841772e-002
7.791130e+002,3.889320e-002
7.810415e+002,3.920441e-002
7.829700e+002,3.926433e-002
7.848984e+002,3.918846e-002
7.868270e+002,3.911601e-002
7.887555e+002,3.905840e-002
7.906840e+002,3.892817e-002
7.926124e+002,3.869447e-002
7.945410e+002,3.846916e-002
7.964695e+002,3.813362e-002
7.983979e+002,3.786647e-002
8.003264e+002,3.767166e-002
8.022549e+002,3.733034e-002
8.041835e+002,3.691695e-002
8.061119e+002,3.664644e-002
8.080404e+002,3.631836e-002
8.099689e+002,3.587919e-002
8.118975e+002,3.554431e-002
8.138259e+002,3.515447e-002
8.157545e+002,3.462084e-002
8.176830e+002,3.418952e-002
8.196115e+002,3.377134e-002
8.215399e+002,3.341980e-002
8.234684e+002,3.302191e-002
8.253970e+002,3.256671e-002
8.273254e+002,3.213318e-002
8.292539e+002,3.185936e-002
8.311824e+002,3.152179e-002
8.331110e+002,3.123775e-002
8.350394e+002,3.089636e-002
8.369679e+002,3.051606e-002
8.388964e+002,3.027250e-002
8.408250e+002,3.006564e-002
8.427534e+002,2.989683e-002
8.446819e+002,2.973387e-002
8.466104e+002,2.966787e-002
8.485389e+002,2.957011e-002
8.504674e+002,2.957965e-002
8.523959e+002,2.960228e-002
8.543244e+002,2.952844e-002
8.562529e+002,2.958873e-002
8.581814e+002,2.977251e-002
8.601099e+002,2.994784e-002
8.620384e+002,3.005314e-002
8.639669e+002,3.013344e-002
8.658954e+002,3.027676e-002
8.678239e+002,3.061980e-002
8.697524e+002,3.094752e-002
8.716809e+002,3.125940e-002
8.736094e+002,3.151930e-002
8.755378e+002,3.174477e-002
8.774664e+002,3.202294e-002
8.793949e+002,3.251439e-002
8.813234e+002,3.296904e-002
8.832518e+002,3.338848e-002
8.851804e+002,3.387428e-002
8.871089e+002,3.445818e-002
8.890374e+002,3.516553e-002
8.909658e+002,3.592649e-002
8.928943e+002,3.650882e-002
8.948229e+002,3.717044e-002
8.967513e+002,3.741531e-002
8.986798e+002,3.745218e-002
9.006083e+002,3.744644e-002
9.025369e+002,3.731373e-002
9.044653e+002,3.719275e-002
9.063938e+002,3.714388e-002
9.083223e+002,3.708502e-002
9.102509e+002,3.711692e-002
9.121793e+002,3.727542e-002
9.141078e+002,3.753494e-002
9.160364e+002,3.781069e-002
9.179648e+002,3.822822e-002
9.198933e+002,3.865481e-002
9.218218e+002,3.911895e-002
9.237504e+002,3.959980e-002
9.256788e+002,3.999202e-002
9.276073e+002,4.046563e-002
9.295358e+002,4.095340e-002
9.314644e+002,4.146341e-002
9.333928e+002,4.196081e-002
9.353213e+002,4.245180e-002
9.372498e+002,4.302324e-002
9.391783e+002,4.367091e-002
9.411068e+002,4.435924e-002
9.430353e+002,4.499042e-002
9.449637e+002,4.577041e-002
9.468923e+002,4.660356e-002
9.488208e+002,4.736263e-002
9.507493e+002,4.806877e-002
9.526777e+002,4.881105e-002
9.546063e+002,4.964437e-002
9.565348e+002,5.039851e-002
9.584633e+002,5.114128e-002
9.603917e+002,5.191303e-002
9.623203e+002,5.268021e-002
9.642488e+002,5.333541e-002
9.661772e+002,5.397062e-002
9.681057e+002,5.455998e-002
9.700343e+002,5.507879e-002
9.719628e+002,5.558364e-002
9.738912e+002,5.613504e-002
9.758197e+002,5.672644e-002
9.777483e+002,5.741803e-002
9.796768e+002,5.823429e-002
9.816052e+002,5.921239e-002
9.835337e+002,6.032836e-002
9.854623e+002,6.159976e-002
9.873907e+002,6.282086e-002
9.893192e+002,6.367517e-002
9.912477e+002,6.440131e-002
9.931763e+002,6.503157e-002
9.951047e+002,6.557776e-002
9.970332e+002,6.622273e-002
9.989617e+002,6.716219e-002
1.000890e+003,6.834185e-002
1.002819e+003,6.974791e-002
1.004747e+003,7.119992e-002
1.006676e+003,7.252043e-002
1.008604e+003,7.391119e-002
1.010533e+003,7.530867e-002
1.012461e+003,7.678095e-002
1.014390e+003,7.830920e-002
1.016318e+003,7.996412e-002
1.018247e+003,8.169274e-002
1.020175e+003,8.335817e-002
1.022104e+003,8.504626e-002
1.024032e+003,8.676185e-002
1.025961e+003,8.848689e-002
1.027889e+003,9.022720e-002
1.029818e+003,9.180821e-002
1.031746e+003,9.318015e-002
1.033675e+003,9.417872e-002
1.035603e+003,9.485519e-002
1.037532e+003,9.521364e-002
1.039460e+003,9.526005e-002
1.041389e+003,9.509009e-002
1.043317e+003,9.511839e-002
1.045246e+003,9.529764e-002
1.047174e+003,9.545224e-002
1.049103e+003,9.565444e-002
1.051031e+003,9.578421e-002
1.052960e+003,9.578483e-002
1.054888e+003,9.573253e-002
1.056817e+003,9.541819e-002
1.058745e+003,9.503685e-002
1.060674e+003,9.457044e-002
1.062602e+003,9.406029e-002
1.064531e+003,9.335425e-002
1.066459e+003,9.261589e-002
1.068388e+003,9.186696e-002
1.070316e+003,9.114183e-002
1.072245e+003,9.054087e-002
1.074173e+003,8.990382e-002
1.076102e+003,8.916194e-002
1.078030e+003,8.835927e-002
1.079959e+003,8.744958e-002
1.081887e+003,8.655223e-002
1.083816e+003,8.574884e-002
1.085744e+003,8.513585e-002
1.087673e+003,8.457930e-002
1.089601e+003,8.393154e-002
1.091530e+003,8.332192e-002
1.093458e+003,8.274607e-002
1.095387e+003,8.205629e-002
1.097315e+003,8.127527e-002
1.099244e+003,8.043998e-002
1.101172e+003,7.960111e-002
1.103101e+003,7.864460e-002
1.105029e+003,7.752113e-002
1.106958e+003,7.614725e-002
1.108886e+003,7.455683e-002
1.110815e+003,7.270250e-002
1.112743e+003,7.078082e-002
1.114672e+003,6.883103e-002
1.116600e+003,6.697829e-002
1.118529e+003,6.530764e-002
1.120457e+003,6.376265e-002
1.122386e+003,6.225991e-002
1.124314e+003,6.081454e-002
1.126243e+003,5.938045e-002
1.128171e+003,5.795665e-002
1.130100e+003,5.655785e-002
1.132028e+003,5.526095e-002
1.133957e+003,5.412000e-002
1.135885e+003,5.313113e-002
1.137814e+003,5.225394e-002
1.139742e+003,5.158609e-002
1.141671e+003,5.116316e-002
1.143599e+003,5.087053e-002
1.145528e+003,5.075685e-002
1.147456e+003,5.067578e-002
1.149385e+003,5.064369e-002
1.151313e+003,5.066785e-002
1.153242e+003,5.075826e-002
1.155170e+003,5.085391e-002
1.157099e+003,5.078020e-002
1.159027e+003,5.061052e-002
1.160956e+003,5.035177e-002
1.162884e+003,4.984743e-002
1.164813e+003,4.908679e-002
1.166741e+003,4.812506e-002
1.168670e+003,4.698182e-002
1.170598e+003,4.576603e-002
1.172526e+003,4.453642e-002
1.174455e+003,4.333678e-002
1.176384e+003,4.227299e-002
1.178312e+003,4.129470e-002
1.180240e+003,4.035708e-002
1.182169e+003,3.958158e-002
1.184098e+003,3.900247e-002
1.186026e+003,3.848001e-002
1.187954e+003,3.801177e-002
1.189883e+003,3.769929e-002
1.191812e+003,3.745965e-002
1.193740e+003,3.725332e-002
1.195668e+003,3.717338e-002
1.197597e+003,3.708937e-002
1.199526e+003,3.691669e-002
1.201454e+003,3.673270e-002
1.203382e+003,3.650023e-002
1.205311e+003,3.615420e-002
1.207240e+003,3.576418e-002
1.209168e+003,3.542420e-002
1.211096e+003,3.509824e-002
1.213025e+003,3.484263e-002
1.214953e+003,3.465374e-002
1.216882e+003,3.450370e-002
1.218810e+003,3.433446e-002
1.220739e+003,3.414838e-002
1.222667e+003,3.402490e-002
1.224596e+003,3.390032e-002
1.226524e+003,3.372046e-002
1.228453e+003,3.353484e-002
1.230381e+003,3.333417e-002
1.232310e+003,3.301521e-002
1.234238e+003,3.264363e-002
1.236167e+003,3.229191e-002
1.238095e+003,3.185665e-002
1.240024e+003,3.130299e-002
1.241952e+003,3.073204e-002
1.243881e+003,3.018823e-002
1.245809e+003,2.962561e-002
1.247738e+003,2.895224e-002
1.249666e+003,2.827897e-002
1.251595e+003,2.756949e-002
1.253523e+003,2.690239e-002
1.255452e+003,2.626417e-002
1.257380e+003,2.561305e-002
1.259309e+003,2.501863e-002
1.261237e+003,2.446144e-002
1.263166e+003,2.392673e-002
1.265094e+003,2.343367e-002
1.267023e+003,2.297649e-002
1.268951e+003,2.256936e-002
1.270880e+003,2.221516e-002
1.272808e+003,2.184526e-002
1.274737e+003,2.156359e-002
1.276665e+003,2.133309e-002
1.278594e+003,2.116577e-002
1.280522e+003,2.098765e-002
1.282451e+003,2.083664e-002
1.284379e+003,2.070730e-002
1.286308e+003,2.059065e-002
1.288236e+003,2.050649e-002
1.290165e+003,2.045315e-002
1.292093e+003,2.048220e-002
1.294022e+003,2.055318e-002
1.295950e+003,2.064911e-002
1.297879e+003,2.088035e-002
1.299807e+003,2.117654e-002
1.301736e+003,2.146970e-002
1.303664e+003,2.179431e-002
1.305593e+003,2.216514e-002
1.307521e+003,2.263556e-002
1.309450e+003,2.309139e-002
1.311378e+003,2.356972e-002
1.313307e+003,2.404086e-002
1.315235e+003,2.443665e-002
1.317164e+003,2.468934e-002
1.319092e+003,2.484847e-002
1.321021e+003,2.483224e-002
1.322949e+003,2.474671e-002
1.324878e+003,2.458907e-002
1.326806e+003,2.439203e-002
1.328735e+003,2.417968e-002
1.330663e+003,2.385215e-002
1.332592e+003,2.349041e-002
1.334520e+003,2.313116e-002
1.336449e+003,2.274173e-002
1.338377e+003,2.236025e-002
1.340306e+003,2.202317e-002
1.342234e+003,2.170700e-002
1.344163e+003,2.153535e-002
1.346091e+003,2.145362e-002
1.348020e+003,2.141736e-002
1.349948e+003,2.148115e-002
1.351877e+003,2.160117e-002
1.353805e+003,2.173333e-002
1.355734e+003,2.187867e-002
1.357662e+003,2.207942e-002
1.359591e+003,2.225198e-002
1.361519e+003,2.246669e-002
1.363448e+003,2.264011e-002
1.365376e+003,2.276053e-002
1.367305e+003,2.287816e-002
1.369233e+003,2.297322e-002
1.371162e+003,2.291605e-002
1.373090e+003,2.279782e-002
1.375019e+003,2.263820e-002
1.376947e+003,2.242999e-002
1.378876e+003,2.220275e-002
1.380804e+003,2.191801e-002
1.382733e+003,2.163776e-002
1.384661e+003,2.133707e-002
1.386590e+003,2.106669e-002
1.388518e+003,2.083579e-002
1.390447e+003,2.060929e-002
1.392375e+003,2.044819e-002
1.394304e+003,2.035644e-002
1.396232e+003,2.029490e-002
1.398161e+003,2.025641e-002
1.400089e+003,2.023910e-002
1.402018e+003,2.024425e-002
1.403946e+003,2.027651e-002
1.405875e+003,2.031132e-002
1.407803e+003,2.034511e-002
1.409732e+003,2.042019e-002
1.411660e+003,2.052687e-002
1.413589e+003,2.060200e-002
1.415517e+003,2.070573e-002
1.417446e+003,2.084585e-002
1.419374e+003,2.095992e-002
1.421303e+003,2.102345e-002
1.423231e+003,2.106924e-002
1.425160e+003,2.106912e-002
1.427088e+003,2.102836e-002
1.429017e+003,2.102114e-002
1.430945e+003,2.099982e-002
1.432874e+003,2.089751e-002
1.434802e+003,2.083200e-002
1.436731e+003,2.073988e-002
1.438659e+003,2.059774e-002
1.440588e+003,2.051713e-002
1.442516e+003,2.041861e-002
1.444445e+003,2.033129e-002
1.446373e+003,2.031929e-002
1.448302e+003,2.027233e-002
1.450230e+003,2.022786e-002
1.452159e+003,2.018513e-002
1.454087e+003,2.011635e-002
1.456016e+003,1.995135e-002
1.457944e+003,1.975322e-002
1.459873e+003,1.960281e-002
1.461801e+003,1.947471e-002
1.463730e+003,1.932159e-002
1.465658e+003,1.912220e-002
1.467587e+003,1.878451e-002
1.469515e+003,1.840726e-002
1.471444e+003,1.801845e-002
1.473372e+003,1.760483e-002
1.475301e+003,1.725150e-002
1.477229e+003,1.696580e-002
1.479158e+003,1.680341e-002
1.481086e+003,1.676297e-002
1.483015e+003,1.675751e-002
1.484943e+003,1.683060e-002
1.486872e+003,1.696244e-002
1.488800e+003,1.714353e-002
1.490729e+003,1.733088e-002
1.492657e+003,1.758862e-002
1.494586e+003,1.785762e-002
1.496514e+003,1.811003e-002
1.498443e+003,1.835117e-002
1.500371e+003,1.857743e-002
1.502300e+003,1.878764e-002
1.504228e+003,1.901121e-002
1.506157e+003,1.931213e-002
1.508085e+003,1.956007e-002
1.510014e+003,1.976220e-002
1.511942e+003,1.996544e-002
1.513871e+003,2.021232e-002
1.515799e+003,2.036468e-002
1.517728e+003,2.037423e-002
1.519656e+003,2.029540e-002
1.521585e+003,2.018729e-002
1.523513e+003,2.014853e-002
1.525442e+003,2.016038e-002
1.527370e+003,2.015224e-002
1.529299e+003,2.013699e-002
1.531227e+003,2.017181e-002
1.533156e+003,2.023388e-002
1.535084e+003,2.022824e-002
1.537013e+003,2.020565e-002
1.538941e+003,2.015830e-002
1.540870e+003,2.016438e-002
1.542798e+003,2.016315e-002
1.544727e+003,2.011001e-002
1.546655e+003,2.002347e-002
1.548584e+003,1.997881e-002
1.550512e+003,1.984018e-002
1.552441e+003,1.965697e-002
1.554369e+003,1.955988e-002
1.556298e+003,1.948733e-002
1.558226e+003,1.941050e-002
1.560155e+003,1.931684e-002
1.562083e+003,1.929324e-002
1.564012e+003,1.929248e-002
1.565940e+003,1.930531e-002
1.567869e+003,1.933246e-002
1.569797e+003,1.937318e-002
1.571726e+003,1.947943e-002
1.573654e+003,1.963330e-002
1.575583e+003,1.972297e-002
1.577511e+003,1.995339e-002
1.579440e+003,2.018380e-002
1.581368e+003,2.039948e-002
1.583297e+003,2.072427e-002
1.585225e+003,2.104241e-002
1.587154e+003,2.129997e-002
1.589082e+003,2.166343e-002
1.591010e+003,2.207896e-002
1.592939e+003,2.247656e-002
1.594868e+003,2.285978e-002
1.596796e+003,2.322963e-002
1.598724e+003,2.360108e-002
1.600653e+003,2.406294e-002
1.602582e+003,2.452770e-002
1.604510e+003,2.493758e-002
1.606438e+003,2.533869e-002
1.608367e+003,2.578584e-002
1.610296e+003,2.624265e-002
1.612224e+003,2.676894e-002
1.614152e+003,2.727631e-002
1.616081e+003,2.774162e-002
1.618010e+003,2.818946e-002
1.619938e+003,2.868104e-002
1.621866e+003,2.904970e-002
1.623795e+003,2.927226e-002
1.625724e+003,2.940372e-002
1.627652e+003,2.937375e-002
1.629580e+003,2.922321e-002
1.631509e+003,2.908967e-002
1.633438e+003,2.893324e-002
1.635366e+003,2.874077e-002
1.637294e+003,2.859178e-002
1.639223e+003,2.849588e-002
1.641151e+003,2.838211e-002
1.643080e+003,2.825814e-002
1.645008e+003,2.815990e-002
1.646937e+003,2.800738e-002
1.648865e+003,2.780076e-002
1.650794e+003,2.753276e-002
1.652722e+003,2.714087e-002
1.654651e+003,2.679646e-002
1.656579e+003,2.641810e-002
1.658508e+003,2.587975e-002
1.660436e+003,2.532700e-002
1.662365e+003,2.477407e-002
1.664293e+003,2.417244e-002
1.666222e+003,2.356846e-002
1.668150e+003,2.291093e-002
1.670079e+003,2.225631e-002
1.672007e+003,2.167192e-002
1.673936e+003,2.110533e-002
1.675864e+003,2.055176e-002
1.677793e+003,2.003451e-002
1.679721e+003,1.947347e-002
1.681650e+003,1.893898e-002
1.683578e+003,1.846329e-002
1.685507e+003,1.793373e-002
1.687435e+003,1.754547e-002
1.689364e+003,1.716052e-002
1.691292e+003,1.678939e-002
1.693221e+003,1.644072e-002
1.695149e+003,1.611911e-002
1.697078e+003,1.583121e-002
1.699006e+003,1.546649e-002
1.700935e+003,1.510646e-002
1.702863e+003,1.491804e-002
1.704792e+003,1.477139e-002
1.706720e+003,1.468820e-002
1.708649e+003,1.463966e-002
1.710577e+003,1.461145e-002
1.712506e+003,1.463654e-002
1.714434e+003,1.471181e-002
1.716363e+003,1.476804e-002
1.718291e+003,1.480759e-002
1.720220e+003,1.484302e-002
1.722148e+003,1.493988e-002
1.724077e+003,1.500991e-002
1.726005e+003,1.511488e-002
1.727934e+003,1.519372e-002
1.729862e+003,1.519462e-002
1.731791e+003,1.515809e-002
1.733719e+003,1.506526e-002
1.735648e+003,1.482298e-002
1.737576e+003,1.456353e-002
1.739505e+003,1.431669e-002
1.741433e+003,1.394690e-002
1.743362e+003,1.352156e-002
1.745290e+003,1.317182e-002
1.747219e+003,1.288846e-002
1.749147e+003,1.270015e-002
1.751076e+003,1.243685e-002
1.753004e+003,1.221421e-002
1.754933e+003,1.207803e-002
1.756861e+003,1.198735e-002
1.758790e+003,1.180501e-002
1.760718e+003,1.162406e-002
1.762647e+003,1.147879e-002
1.764575e+003,1.139166e-002
1.766504e+003,1.136973e-002
1.768432e+003,1.128754e-002
1.770361e+003,1.121688e-002
1.772289e+003,1.123575e-002
1.774218e+003,1.124407e-002
1.776146e+003,1.115741e-002
1.778075e+003,1.113633e-002
1.780003e+003,1.120992e-002
1.781932e+003,1.119646e-002
1.783860e+003,1.114368e-002
1.785789e+003,1.116875e-002
1.787717e+003,1.120716e-002
1.789646e+003,1.121442e-002
1.791574e+003,1.119805e-002
1.793503e+003,1.119283e-002
1.795431e+003,1.123627e-002
1.797360e+003,1.126357e-002
1.799288e+003,1.126665e-002
1.801217e+003,1.123513e-002
1.803145e+003,1.127160e-002
1.805074e+003,1.132389e-002
1.807002e+003,1.130619e-002
1.808931e+003,1.133473e-002
1.810859e+003,1.133047e-002
1.812788e+003,1.133265e-002
1.814716e+003,1.133627e-002
1.816645e+003,1.127659e-002
1.818573e+003,1.130490e-002
1.820502e+003,1.134439e-002
1.822430e+003,1.135391e-002
1.824359e+003,1.128152e-002
1.826287e+003,1.128339e-002
1.828216e+003,1.132522e-002
1.830144e+003,1.128414e-002
1.832073e+003,1.121163e-002
1.834001e+003,1.117359e-002
1.835930e+003,1.130822e-002
1.837858e+003,1.139781e-002
1.839787e+003,1.132858e-002
1.841715e+003,1.126084e-002
1.843644e+003,1.125509e-002
1.845572e+003,1.132638e-002
1.847501e+003,1.140098e-002
1.849429e+003,1.146016e-002
1.851358e+003,1.138432e-002
1.853286e+003,1.131056e-002
1.855215e+003,1.119206e-002
1.857143e+003,1.129952e-002
1.859072e+003,1.133948e-002
1.861000e+003,1.138431e-002
1.862929e+003,1.135401e-002
1.864857e+003,1.117170e-002
1.866786e+003,1.123290e-002
1.868714e+003,1.134244e-002
1.870643e+003,1.134296e-002
1.872571e+003,1.143708e-002
1.874500e+003,1.159228e-002
1.876428e+003,1.148411e-002
1.878357e+003,1.144941e-002
1.880285e+003,1.157837e-002
1.882214e+003,1.139060e-002
1.884142e+003,1.134432e-002
1.886071e+003,1.133498e-002
1.887999e+003,1.144421e-002
1.889928e+003,1.144406e-002
1.891856e+003,1.127365e-002
1.893785e+003,1.125610e-002
1.895713e+003,1.121113e-002
1.897642e+003,1.119040e-002
1.899570e+003,1.124284e-002
1.901499e+003,1.124292e-002
1.903427e+003,1.108671e-002
1.905356e+003,1.106713e-002
1.907284e+003,1.132606e-002
1.909213e+003,1.130306e-002
1.911141e+003,1.111376e-002
1.913070e+003,1.116840e-002
1.914998e+003,1.125955e-002
1.916927e+003,1.109273e-002
1.918855e+003,1.120017e-002
1.920784e+003,1.114073e-002
1.922712e+003,1.113744e-002
1.924641e+003,1.136565e-002
1.926569e+003,1.119911e-002
1.928498e+003,1.118131e-002
1.930426e+003,1.117927e-002
1.932355e+003,1.102134e-002
1.934283e+003,1.111580e-002
1.936212e+003,1.115372e-002
1.938140e+003,1.114070e-002
1.940069e+003,1.076924e-002
1.941997e+003,1.065501e-002
1.943926e+003,1.071890e-002
1.945854e+003,1.052455e-002
1.947783e+003,1.016526e-002
1.949711e+003,1.016069e-002
1.951640e+003,9.901514e-003
1.953568e+003,9.491757e-003
1.955497e+003,9.618771e-003
1.957425e+003,9.433500e-003
1.959354e+003,9.631254e-003
1.961282e+003,9.087346e-003
1.963211e+003,8.582258e-003
1.965139e+003,8.933398e-003
1.967068e+003,8.398563e-003
1.968996e+003,7.320231e-003
1.970925e+003,6.646608e-003
1.972853e+003,6.242898e-003
1.974782e+003,5.925995e-003
1.976710e+003,5.741165e-003
1.978639e+003,6.233291e-003
1.980567e+003,6.956601e-003
1.982496e+003,7.315713e-003
1.984424e+003,7.796825e-003
1.986353e+003,8.194178e-003
1.988281e+003,7.860512e-003
1.990210e+003,7.468081e-003
1.992138e+003,7.798173e-003
1.994067e+003,8.218183e-003
1.995995e+003,8.193730e-003
1.997924e+003,7.945538e-003
1.999852e+003,6.930159e-003
2.001781e+003,6.527240e-003
2.003709e+003,6.567755e-003
2.005638e+003,6.208201e-003
2.007566e+003,5.656448e-003
2.009495e+003,5.191223e-003
2.011423e+003,4.265676e-003
2.013352e+003,4.354421e-003
2.015280e+003,4.228470e-003
2.017208e+003,3.151962e-003
2.019137e+003,3.758505e-003
2.021066e+003,4.540071e-003
2.022994e+003,4.504130e-003
2.024922e+003,4.196819e-003
2.026851e+003,3.273316e-003
2.028780e+003,3.527061e-003
2.030708e+003,4.583790e-003
2.032636e+003,4.877651e-003
2.034565e+003,3.858957e-003
2.036494e+003,2.801532e-003
2.038422e+003,3.493091e-003
2.040350e+003,4.965952e-003
2.042279e+003,5.374967e-003
2.044208e+003,4.572127e-003
2.046136e+003,4.806549e-003
2.048064e+003,5.554113e-003
2.049993e+003,6.405381e-003
2.051921e+003,6.683648e-003
2.053850e+003,7.086779e-003
2.055778e+003,7.043614e-003
2.057707e+003,7.284944e-003
2.059635e+003,7.247297e-003
2.061564e+003,7.221926e-003
2.063492e+003,7.229892e-003
2.065421e+003,7.362944e-003
2.067349e+003,7.706591e-003
2.069278e+003,7.786418e-003
2.071206e+003,7.727738e-003
2.073135e+003,8.103482e-003
2.075063e+003,8.237956e-003
2.076992e+003,8.214051e-003
2.078920e+003,8.283987e-003
2.080849e+003,8.456828e-003
2.082777e+003,8.710234e-003
2.084706e+003,8.997652e-003
2.086634e+003,8.974190e-003
2.088563e+003,8.852256e-003
2.090491e+003,8.650839e-003
2.092420e+003,8.646654e-003
2.094348e+003,8.802116e-003
2.096277e+003,9.103692e-003
2.098205e+003,9.196048e-003
2.100134e+003,9.380260e-003
2.102062e+003,9.302801e-003
2.103991e+003,9.194490e-003
2.105919e+003,9.321116e-003
2.107848e+003,9.363807e-003
2.109776e+003,9.667873e-003
2.111705e+003,9.900013e-003
2.113633e+003,9.890454e-003
2.115562e+003,1.021596e-002
2.117490e+003,1.032408e-002
2.119419e+003,1.023967e-002
2.121347e+003,1.010525e-002
2.123276e+003,9.894386e-003
2.125204e+003,9.913301e-003
2.127133e+003,1.009066e-002
2.129061e+003,9.865540e-003
2.130990e+003,9.529632e-003
2.132918e+003,8.940370e-003
2.134847e+003,8.174308e-003
2.136775e+003,8.152802e-003
2.138704e+003,7.986454e-003
2.140632e+003,7.540185e-003
2.142561e+003,7.706664e-003
2.144489e+003,7.030217e-003
2.146418e+003,6.031361e-003
2.148346e+003,5.433168e-003
2.150275e+003,4.100149e-003
2.152203e+003,3.107400e-003
2.154132e+003,3.519305e-003
2.156060e+003,2.144086e-003
2.157989e+003,9.382090e-004
2.159917e+003,9.343899e-006
2.161846e+003,4.545718e-004
2.163774e+003,1.148020e-003
2.165703e+003,2.383232e-003
2.167631e+003,2.874760e-003
2.169560e+003,3.391589e-003
2.171488e+003,4.029946e-003
2.173417e+003,4.530239e-003
2.175345e+003,3.458114e-003
2.177274e+003,3.131195e-003
2.179202e+003,3.025580e-003
2.181131e+003,3.879479e-003
2.183059e+003,3.969953e-003
2.184988e+003,3.332185e-003
2.186916e+003,3.659523e-003
2.188845e+003,5.005501e-003
2.190773e+003,4.709034e-003
2.192702e+003,4.635619e-003
2.194630e+003,5.527323e-003
2.196559e+003,6.261161e-003
2.198487e+003,5.759878e-003
2.200416e+003,5.846212e-003
2.202344e+003,6.244320e-003
2.204273e+003,6.483112e-003
2.206201e+003,6.492260e-003
2.208130e+003,6.494951e-003
2.210058e+003,6.859958e-003
2.211987e+003,7.179119e-003
2.213915e+003,7.168306e-003
2.215844e+003,7.335216e-003
2.217772e+003,7.511966e-003
2.219701e+003,7.640563e-003
2.221629e+003,8.085519e-003
2.223558e+003,8.077418e-003
2.225486e+003,7.598952e-003
2.227415e+003,7.898378e-003
2.229343e+003,8.371397e-003
2.231272e+003,8.428575e-003
2.233200e+003,8.670933e-003
2.235129e+003,8.418964e-003
2.237057e+003,8.465954e-003
2.238986e+003,8.793789e-003
2.240914e+003,9.039761e-003
2.242843e+003,9.400100e-003
2.244771e+003,9.540835e-003
2.246700e+003,9.598642e-003
2.248628e+003,9.494891e-003
2.250557e+003,9.612783e-003
2.252485e+003,9.740969e-003
2.254414e+003,9.617634e-003
2.256342e+003,9.503317e-003
2.258271e+003,9.756682e-003
2.260199e+003,9.889536e-003
2.262128e+003,9.719754e-003
2.264056e+003,9.625313e-003
2.265985e+003,9.800424e-003
2.267913e+003,9.724621e-003
2.269842e+003,1.001376e-002
2.271770e+003,1.029068e-002
2.273699e+003,1.031240e-002
2.275627e+003,1.023868e-002
2.277556e+003,1.032562e-002
2.279484e+003,1.061890e-002
2.281413e+003,1.081447e-002
2.283341e+003,1.085098e-002
2.285270e+003,1.111136e-002
2.287198e+003,1.135294e-002
2.289127e+003,1.159757e-002
2.291055e+003,1.155306e-002
2.292984e+003,1.155536e-002
2.294912e+003,1.174127e-002
2.296841e+003,1.177038e-002
2.298769e+003,1.174901e-002
2.300698e+003,1.178028e-002
2.302626e+003,1.188889e-002
2.304555e+003,1.186964e-002
2.306483e+003,1.191530e-002
2.308412e+003,1.215024e-002
2.310340e+003,1.229072e-002
2.312269e+003,1.243104e-002
2.314197e+003,1.236694e-002
2.316125e+003,1.247556e-002
2.318054e+003,1.280512e-002
2.319983e+003,1.306427e-002
2.321911e+003,1.319461e-002
2.323840e+003,1.323350e-002
2.325768e+003,1.290422e-002
2.327697e+003,1.246505e-002
2.329625e+003,1.229306e-002
2.331553e+003,1.207786e-002
2.333482e+003,1.181078e-002
2.335411e+003,1.163258e-002
2.337339e+003,1.137039e-002
2.339268e+003,1.123407e-002
2.341196e+003,1.121192e-002
2.343125e+003,1.138451e-002
2.345053e+003,1.110327e-002
2.346981e+003,1.114892e-002
2.348910e+003,1.110354e-002
2.350839e+003,1.103975e-002
2.352767e+003,1.106069e-002
2.354696e+003,1.114921e-002
2.356624e+003,1.143268e-002
2.358552e+003,1.159160e-002
2.360481e+003,1.138229e-002
2.362409e+003,1.112000e-002
2.364338e+003,1.147148e-002
2.366267e+003,1.183082e-002
2.368195e+003,1.168835e-002
2.370124e+003,1.139797e-002
2.372052e+003,1.156838e-002
2.373980e+003,1.181955e-002
2.375909e+003,1.186508e-002
2.377838e+003,1.183385e-002
2.379766e+003,1.183385e-002
2.381695e+003,1.206889e-002
2.383623e+003,1.228446e-002
2.385552e+003,1.242556e-002
2.387480e+003,1.246241e-002
2.389408e+003,1.247374e-002
2.391337e+003,1.250571e-002
2.393266e+003,1.257267e-002
2.395194e+003,1.252848e-002
2.397123e+003,1.242175e-002
2.399051e+003,1.249563e-002
2.400979e+003,1.258492e-002
2.402908e+003,1.245683e-002
2.404836e+003,1.239743e-002
2.406765e+003,1.236818e-002
2.408694e+003,1.244735e-002
2.410622e+003,1.270615e-002
2.412551e+003,1.271400e-002
2.414479e+003,1.270547e-002
2.416407e+003,1.277934e-002
2.418336e+003,1.280931e-002
2.420264e+003,1.280402e-002
2.422193e+003,1.270622e-002
2.424122e+003,1.262650e-002
2.426050e+003,1.268807e-002
2.427979e+003,1.273993e-002
2.429907e+003,1.276921e-002
2.431835e+003,1.277457e-002
2.433764e+003,1.276153e-002
2.435692e+003,1.269899e-002
2.437621e+003,1.271257e-002
2.439550e+003,1.277310e-002
2.441478e+003,1.273314e-002
2.443406e+003,1.283688e-002
2.445335e+003,1.281872e-002
2.447263e+003,1.281958e-002
2.449192e+003,1.291081e-002
2.451121e+003,1.295392e-002
2.453049e+003,1.285299e-002
2.454978e+003,1.274822e-002
2.456906e+003,1.278736e-002
2.458834e+003,1.271943e-002
2.460763e+003,1.270053e-002
2.462691e+003,1.282794e-002
2.464620e+003,1.281306e-002
2.466549e+003,1.276965e-002
2.468477e+003,1.271206e-002
2.470406e+003,1.278037e-002
2.472334e+003,1.286838e-002
2.474262e+003,1.290521e-002
2.476191e+003,1.305515e-002
2.478119e+003,1.306379e-002
2.480048e+003,1.285121e-002
2.481977e+003,1.280432e-002
2.483905e+003,1.291166e-002
2.485833e+003,1.299789e-002
2.487762e+003,1.292487e-002
2.489690e+003,1.281050e-002
2.491619e+003,1.280763e-002
2.493547e+003,1.286910e-002
2.495476e+003,1.291446e-002
2.497405e+003,1.298564e-002
2.499333e+003,1.302821e-002
2.501261e+003,1.296925e-002
2.503190e+003,1.298314e-002
2.505118e+003,1.297567e-002
2.507047e+003,1.294993e-002
2.508975e+003,1.306099e-002
2.510904e+003,1.316098e-002
2.512833e+003,1.322287e-002
2.514761e+003,1.318799e-002
2.516689e+003,1.317461e-002
2.518618e+003,1.324903e-002
2.520546e+003,1.316538e-002
2.522475e+003,1.320446e-002
2.524403e+003,1.322369e-002
2.526332e+003,1.328651e-002
2.528260e+003,1.326557e-002
2.530189e+003,1.318625e-002
2.532117e+003,1.321286e-002
2.534046e+003,1.323042e-002
2.535974e+003,1.315469e-002
2.537903e+003,1.312300e-002
2.539831e+003,1.310108e-002
2.541760e+003,1.304767e-002
2.543688e+003,1.312372e-002
2.545617e+003,1.313752e-002
2.547545e+003,1.312618e-002
2.549474e+003,1.324422e-002
2.551402e+003,1.309005e-002
2.553331e+003,1.301483e-002
2.555259e+003,1.317331e-002
2.557188e+003,1.326297e-002
2.559116e+003,1.314452e-002
2.561045e+003,1.308755e-002
2.562973e+003,1.312771e-002
2.564902e+003,1.334018e-002
2.566830e+003,1.342657e-002
2.568759e+003,1.323250e-002
2.570687e+003,1.318943e-002
2.572616e+003,1.317819e-002
2.574544e+003,1.314803e-002
2.576473e+003,1.322048e-002
2.578401e+003,1.317372e-002
2.580330e+003,1.313642e-002
2.582258e+003,1.324535e-002
2.584187e+003,1.326386e-002
2.586115e+003,1.317778e-002
2.588044e+003,1.317071e-002
2.589972e+003,1.323421e-002
2.591901e+003,1.314506e-002
2.593829e+003,1.310941e-002
2.595758e+003,1.316234e-002
2.597686e+003,1.310726e-002
2.599615e+003,1.315835e-002
2.601543e+003,1.312891e-002
2.603472e+003,1.308537e-002
2.605400e+003,1.310203e-002
2.607329e+003,1.310145e-002
2.609257e+003,1.306621e-002
2.611186e+003,1.307458e-002
2.613114e+003,1.316207e-002
2.615043e+003,1.314376e-002
2.616971e+003,1.305873e-002
2.618900e+003,1.316091e-002
2.620828e+003,1.323151e-002
2.622757e+003,1.325556e-002
2.624685e+003,1.321515e-002
2.626614e+003,1.319298e-002
2.628542e+003,1.324664e-002
2.630471e+003,1.336041e-002
2.632399e+003,1.338611e-002
2.634328e+003,1.346115e-002
2.636256e+003,1.352869e-002
2.638185e+003,1.359207e-002
2.640113e+003,1.361600e-002
2.642042e+003,1.358787e-002
2.643970e+003,1.364821e-002
2.645899e+003,1.372177e-002
2.647827e+003,1.381640e-002
2.649756e+003,1.387897e-002
2.651684e+003,1.392806e-002
2.653613e+003,1.398979e-002
2.655541e+003,1.402236e-002
2.657470e+003,1.405354e-002
2.659398e+003,1.410782e-002
2.661327e+003,1.422503e-002
2.663255e+003,1.428581e-002
2.665184e+003,1.433947e-002
2.667112e+003,1.435677e-002
2.669041e+003,1.433889e-002
2.670969e+003,1.438266e-002
2.672898e+003,1.441417e-002
2.674826e+003,1.446696e-002
2.676755e+003,1.447257e-002
2.678683e+003,1.448422e-002
2.680612e+003,1.454322e-002
2.682540e+003,1.452509e-002
2.684469e+003,1.445589e-002
2.686397e+003,1.446490e-002
2.688326e+003,1.450577e-002
2.690254e+003,1.457906e-002
2.692183e+003,1.465116e-002
2.694111e+003,1.462580e-002
2.696040e+003,1.464636e-002
2.697968e+003,1.473643e-002
2.699897e+003,1.476008e-002
2.701825e+003,1.477451e-002
2.703754e+003,1.476965e-002
2.705682e+003,1.475371e-002
2.707611e+003,1.476197e-002
2.709539e+003,1.474466e-002
2.711468e+003,1.476910e-002
2.713396e+003,1.482704e-002
2.715325e+003,1.484301e-002
2.717253e+003,1.484504e-002
2.719182e+003,1.482186e-002
2.721110e+003,1.480770e-002
2.723039e+003,1.486036e-002
2.724967e+003,1.487943e-002
2.726896e+003,1.484555e-002
2.728824e+003,1.490617e-002
2.730753e+003,1.495751e-002
2.732681e+003,1.492116e-002
2.734610e+003,1.490281e-002
2.736538e+003,1.492815e-002
2.738467e+003,1.492603e-002
2.740395e+003,1.489160e-002
2.742324e+003,1.494955e-002
2.744252e+003,1.495449e-002
2.746181e+003,1.493134e-002
2.748109e+003,1.492195e-002
2.750038e+003,1.490422e-002
2.751966e+003,1.493031e-002
2.753895e+003,1.496828e-002
2.755823e+003,1.502302e-002
2.757752e+003,1.508133e-002
2.759680e+003,1.506140e-002
2.761609e+003,1.507495e-002
2.763537e+003,1.510432e-002
2.765466e+003,1.510638e-002
2.767394e+003,1.515142e-002
2.769323e+003,1.521116e-002
2.771251e+003,1.523003e-002
2.773180e+003,1.522224e-002
2.775108e+003,1.520293e-002
2.777037e+003,1.523882e-002
2.778965e+003,1.528364e-002
2.780894e+003,1.533372e-002
2.782822e+003,1.540117e-002
2.784750e+003,1.537776e-002
2.786679e+003,1.537409e-002
2.788608e+003,1.544034e-002
2.790536e+003,1.543512e-002
2.792465e+003,1.541411e-002
2.794393e+003,1.551825e-002
2.796322e+003,1.560954e-002
2.798250e+003,1.558282e-002
2.800178e+003,1.559398e-002
2.802107e+003,1.561678e-002
2.804036e+003,1.561297e-002
2.805964e+003,1.569864e-002
2.807893e+003,1.577673e-002
2.809821e+003,1.574756e-002
2.811750e+003,1.579158e-002
2.813678e+003,1.581914e-002
2.815606e+003,1.578804e-002
2.817535e+003,1.583027e-002
2.819464e+003,1.590914e-002
2.821392e+003,1.595248e-002
2.823321e+003,1.602547e-002
2.825249e+003,1.612329e-002
2.827177e+003,1.618106e-002
2.829106e+003,1.625322e-002
2.831034e+003,1.628659e-002
2.832963e+003,1.635144e-002
2.834892e+003,1.646857e-002
2.836820e+003,1.659954e-002
2.838749e+003,1.675141e-002
2.840677e+003,1.683872e-002
2.842605e+003,1.702403e-002
2.844534e+003,1.723149e-002
2.846462e+003,1.750769e-002
2.848391e+003,1.770053e-002
2.850320e+003,1.774126e-002
2.852248e+003,1.772994e-002
2.854177e+003,1.765433e-002
2.856105e+003,1.759339e-002
2.858033e+003,1.758155e-002
2.859962e+003,1.755160e-002
2.861890e+003,1.753894e-002
2.863819e+003,1.754063e-002
2.865748e+003,1.755650e-002
2.867676e+003,1.756727e-002
2.869604e+003,1.755895e-002
2.871533e+003,1.762479e-002
2.873461e+003,1.769701e-002
2.875390e+003,1.768193e-002
2.877319e+003,1.768138e-002
2.879247e+003,1.772960e-002
2.881176e+003,1.778821e-002
2.883104e+003,1.781644e-002
2.885032e+003,1.785321e-002
2.886961e+003,1.787040e-002
2.888889e+003,1.791191e-002
2.890818e+003,1.790649e-002
2.892747e+003,1.792081e-002
2.894675e+003,1.802542e-002
2.896604e+003,1.806034e-002
2.898532e+003,1.814376e-002
2.900460e+003,1.821241e-002
2.902389e+003,1.822814e-002
2.904317e+003,1.823505e-002
2.906246e+003,1.828802e-002
2.908175e+003,1.844872e-002
2.910103e+003,1.859418e-002
2.912031e+003,1.867702e-002
2.913960e+003,1.883298e-002
2.915888e+003,1.894691e-002
2.917817e+003,1.901084e-002
2.919745e+003,1.895542e-002
2.921674e+003,1.883578e-002
2.923603e+003,1.867211e-002
2.925531e+003,1.851783e-002
2.927459e+003,1.840122e-002
2.929388e+003,1.834311e-002
2.931316e+003,1.817016e-002
2.933245e+003,1.800048e-002
2.935173e+003,1.790688e-002
2.937102e+003,1.782744e-002
2.939031e+003,1.773337e-002
2.940959e+003,1.760157e-002
2.942887e+003,1.745282e-002
2.944816e+003,1.733395e-002
2.946744e+003,1.729324e-002
2.948673e+003,1.721981e-002
2.950601e+003,1.707610e-002
2.952530e+003,1.696947e-002
2.954458e+003,1.697625e-002
2.956387e+003,1.694239e-002
2.958315e+003,1.680933e-002
2.960244e+003,1.670816e-002
2.962172e+003,1.667134e-002
2.964101e+003,1.662761e-002
2.966029e+003,1.655986e-002
2.967958e+003,1.645217e-002
2.969886e+003,1.637594e-002
2.971815e+003,1.638482e-002
2.973743e+003,1.637013e-002
2.975672e+003,1.628784e-002
2.977600e+003,1.615231e-002
2.979529e+003,1.613910e-002
2.981457e+003,1.610054e-002
2.983386e+003,1.601249e-002
2.985314e+003,1.599920e-002
2.987243e+003,1.600599e-002
2.989171e+003,1.599655e-002
2.991100e+003,1.597662e-002
2.993028e+003,1.598161e-002
2.994957e+003,1.591713e-002
2.996885e+003,1.592876e-002
2.998814e+003,1.594639e-002
3.000742e+003,1.598506e-002
3.002671e+003,1.599305e-002
3.004599e+003,1.596257e-002
3.006528e+003,1.599036e-002
3.008456e+003,1.602583e-002
3.010385e+003,1.610002e-002
3.012313e+003,1.614775e-002
3.014242e+003,1.617046e-002
3.016170e+003,1.619608e-002
3.018099e+003,1.615932e-002
3.020027e+003,1.614762e-002
3.021956e+003,1.621748e-002
3.023884e+003,1.620876e-002
3.025813e+003,1.621507e-002
3.027741e+003,1.624918e-002
3.029670e+003,1.627721e-002
3.031598e+003,1.637326e-002
3.033527e+003,1.645326e-002
3.035455e+003,1.649923e-002
3.037384e+003,1.648970e-002
3.039312e+003,1.650540e-002
3.041241e+003,1.655387e-002
3.043169e+003,1.661604e-002
3.045098e+003,1.668828e-002
3.047026e+003,1.670991e-002
3.048955e+003,1.672193e-002
3.050883e+003,1.676352e-002
3.052812e+003,1.676323e-002
3.054740e+003,1.681966e-002
3.056669e+003,1.689432e-002
3.058597e+003,1.696142e-002
3.060526e+003,1.694141e-002
3.062454e+003,1.695150e-002
3.064383e+003,1.705401e-002
3.066311e+003,1.713157e-002
3.068240e+003,1.714962e-002
3.070168e+003,1.715528e-002
3.072097e+003,1.712334e-002
3.074025e+003,1.721231e-002
3.075954e+003,1.725720e-002
3.077882e+003,1.729394e-002
3.079811e+003,1.729950e-002
3.081739e+003,1.725197e-002
3.083668e+003,1.732633e-002
3.085596e+003,1.746462e-002
3.087525e+003,1.742242e-002
3.089453e+003,1.744216e-002
3.091382e+003,1.753815e-002
3.093310e+003,1.753119e-002
3.095239e+003,1.754805e-002
3.097167e+003,1.752894e-002
3.099096e+003,1.751006e-002
3.101024e+003,1.759363e-002
3.102953e+003,1.766539e-002
3.104881e+003,1.768494e-002
3.106810e+003,1.766636e-002
3.108738e+003,1.773446e-002
3.110667e+003,1.776549e-002
3.112595e+003,1.780797e-002
3.114524e+003,1.789667e-002
3.116452e+003,1.793023e-002
3.118381e+003,1.795571e-002
3.120309e+003,1.798822e-002
3.122238e+003,1.798811e-002
3.124166e+003,1.811038e-002
3.126095e+003,1.817245e-002
3.128023e+003,1.819588e-002
3.129952e+003,1.826996e-002
3.131880e+003,1.831260e-002
3.133809e+003,1.833606e-002
3.135737e+003,1.845709e-002
3.137666e+003,1.844974e-002
3.139594e+003,1.840928e-002
3.141523e+003,1.848710e-002
3.143451e+003,1.855508e-002
3.145380e+003,1.866215e-002
3.147308e+003,1.864887e-002
3.149237e+003,1.864655e-002
3.151165e+003,1.882987e-002
3.153094e+003,1.889015e-002
3.155022e+003,1.890854e-002
3.156951e+003,1.898416e-002
3.158879e+003,1.895024e-002
3.160808e+003,1.897661e-002
3.162736e+003,1.910070e-002
3.164665e+003,1.917263e-002
3.166593e+003,1.923462e-002
3.168522e+003,1.926737e-002
3.170450e+003,1.929138e-002
3.172379e+003,1.933101e-002
3.174307e+003,1.943940e-002
3.176236e+003,1.952741e-002
3.178164e+003,1.959044e-002
3.180093e+003,1.960191e-002
3.182021e+003,1.961314e-002
3.183950e+003,1.969327e-002
3.185878e+003,1.979404e-002
3.187807e+003,1.979176e-002
3.189735e+003,1.986355e-002
3.191664e+003,1.995874e-002
3.193592e+003,1.994919e-002
3.195521e+003,2.007668e-002
3.197449e+003,2.012744e-002
3.199378e+003,2.015950e-002
3.201306e+003,2.017086e-002
3.203235e+003,2.032547e-002
3.205163e+003,2.047929e-002
3.207092e+003,2.047212e-002
3.209020e+003,2.048229e-002
3.210948e+003,2.053519e-002
3.212877e+003,2.058988e-002
3.214806e+003,2.066056e-002
3.216734e+003,2.069416e-002
3.218663e+003,2.082258e-002
3.220591e+003,2.087086e-002
3.222520e+003,2.090839e-002
3.224448e+003,2.094518e-002
3.226376e+003,2.106766e-002
3.228305e+003,2.109594e-002
3.230234e+003,2.105914e-002
3.232162e+003,2.125616e-002
3.234091e+003,2.141007e-002
3.236019e+003,2.134580e-002
3.237948e+003,2.136873e-002
3.239876e+003,2.151518e-002
3.241804e+003,2.160052e-002
3.243733e+003,2.163398e-002
3.245662e+003,2.165857e-002
3.247590e+003,2.175628e-002
3.249519e+003,2.181456e-002
3.251447e+003,2.183759e-002
3.253375e+003,2.188645e-002
3.255304e+003,2.196651e-002
3.257232e+003,2.199577e-002
3.259161e+003,2.201401e-002
3.261090e+003,2.212632e-002
3.263018e+003,2.215394e-002
3.264947e+003,2.222015e-002
3.266875e+003,2.230321e-002
3.268803e+003,2.235525e-002
3.270732e+003,2.242515e-002
3.272660e+003,2.243500e-002
3.274589e+003,2.236255e-002
3.276518e+003,2.244058e-002
3.278446e+003,2.243175e-002
3.280375e+003,2.243809e-002
3.282303e+003,2.251051e-002
3.284231e+003,2.258785e-002
3.286160e+003,2.255196e-002
3.288088e+003,2.249502e-002
3.290017e+003,2.257083e-002
3.291946e+003,2.260354e-002
3.293874e+003,2.255524e-002
3.295802e+003,2.253453e-002
3.297731e+003,2.251667e-002
3.299659e+003,2.252887e-002
3.301588e+003,2.259028e-002
3.303516e+003,2.262511e-002
3.305445e+003,2.264592e-002
3.307374e+003,2.260361e-002
3.309302e+003,2.254475e-002
3.311230e+003,2.246762e-002
3.313159e+003,2.250545e-002
3.315087e+003,2.253195e-002
3.317016e+003,2.257953e-002
3.318944e+003,2.264850e-002
3.320873e+003,2.266519e-002
3.322802e+003,2.262330e-002
3.324730e+003,2.252490e-002
3.326658e+003,2.251083e-002
3.328587e+003,2.257716e-002
3.330515e+003,2.258795e-002
3.332444e+003,2.249625e-002
3.334372e+003,2.241324e-002
3.336301e+003,2.243337e-002
3.338229e+003,2.245022e-002
3.340158e+003,2.238444e-002
3.342086e+003,2.234657e-002
3.344015e+003,2.237413e-002
3.345943e+003,2.234628e-002
3.347872e+003,2.229619e-002
3.349800e+003,2.229474e-002
3.351729e+003,2.222487e-002
3.353657e+003,2.210055e-002
3.355586e+003,2.198233e-002
3.357514e+003,2.195441e-002
3.359443e+003,2.205205e-002
3.361371e+003,2.207551e-002
3.363300e+003,2.201184e-002
3.365229e+003,2.190587e-002
3.367157e+003,2.183030e-002
3.369085e+003,2.188518e-002
3.371014e+003,2.188806e-002
3.372942e+003,2.179177e-002
3.374871e+003,2.167198e-002
3.376799e+003,2.166495e-002
3.378728e+003,2.158528e-002
3.380656e+003,2.156354e-002
3.382585e+003,2.154733e-002
3.384513e+003,2.157538e-002
3.386442e+003,2.154271e-002
3.388370e+003,2.144002e-002
3.390299e+003,2.137825e-002
3.392227e+003,2.133031e-002
3.394156e+003,2.129861e-002
3.396084e+003,2.125535e-002
3.398013e+003,2.125560e-002
3.399941e+003,2.122849e-002
3.401870e+003,2.113020e-002
3.403798e+003,2.101307e-002
3.405727e+003,2.087649e-002
3.407655e+003,2.085887e-002
3.409584e+003,2.084409e-002
3.411512e+003,2.074309e-002
3.413441e+003,2.062890e-002
3.415369e+003,2.056550e-002
3.417298e+003,2.053594e-002
3.419226e+003,2.037764e-002
3.421155e+003,2.033925e-002
3.423083e+003,2.024617e-002
3.425012e+003,2.010219e-002
3.426940e+003,2.000899e-002
3.428869e+003,1.994177e-002
3.430797e+003,1.982145e-002
3.432726e+003,1.979781e-002
3.434654e+003,1.973723e-002
3.436583e+003,1.963690e-002
3.438511e+003,1.944841e-002
3.440440e+003,1.937750e-002
3.442368e+003,1.938139e-002
3.444297e+003,1.924225e-002
3.446225e+003,1.904158e-002
3.448154e+003,1.892317e-002
3.450082e+003,1.882186e-002
3.452011e+003,1.877442e-002
3.453939e+003,1.869679e-002
3.455868e+003,1.858072e-002
3.457796e+003,1.847830e-002
3.459725e+003,1.837568e-002
3.461653e+003,1.826227e-002
3.463582e+003,1.820226e-002
3.465510e+003,1.809371e-002
3.467439e+003,1.799618e-002
3.469367e+003,1.792398e-002
3.471296e+003,1.777965e-002
3.473224e+003,1.766994e-002
3.475153e+003,1.754807e-002
3.477081e+003,1.735175e-002
3.479010e+003,1.727890e-002
3.480938e+003,1.731986e-002
3.482867e+003,1.720411e-002
3.484795e+003,1.716738e-002
3.486724e+003,1.707511e-002
3.488652e+003,1.688237e-002
3.490581e+003,1.678642e-002
3.492509e+003,1.665450e-002
3.494438e+003,1.657422e-002
3.496366e+003,1.651788e-002
3.498295e+003,1.638064e-002
3.500223e+003,1.629725e-002
3.502152e+003,1.628499e-002
3.504080e+003,1.606009e-002
3.506009e+003,1.589554e-002
3.507937e+003,1.589573e-002
3.509866e+003,1.591817e-002
3.511794e+003,1.591472e-002
3.513723e+003,1.581237e-002
3.515651e+003,1.575165e-002
3.517580e+003,1.565762e-002
3.519508e+003,1.548370e-002
3.521437e+003,1.541138e-002
3.523365e+003,1.543826e-002
3.525294e+003,1.537418e-002
3.527222e+003,1.515269e-002
3.529151e+003,1.505322e-002
3.531079e+003,1.511945e-002
3.533008e+003,1.502244e-002
3.534936e+003,1.489847e-002
3.536865e+003,1.479426e-002
3.538793e+003,1.474260e-002
3.540722e+003,1.467812e-002
3.542650e+003,1.457438e-002
3.544579e+003,1.450006e-002
3.546507e+003,1.447766e-002
3.548436e+003,1.440346e-002
3.550364e+003,1.433504e-002
3.552293e+003,1.430542e-002
3.554221e+003,1.426379e-002
3.556150e+003,1.425553e-002
3.558078e+003,1.417862e-002
3.560007e+003,1.411575e-002
3.561935e+003,1.397097e-002
3.563864e+003,1.391116e-002
3.565792e+003,1.395374e-002
3.567721e+003,1.386402e-002
3.569649e+003,1.363177e-002
3.571578e+003,1.366095e-002
3.573506e+003,1.372277e-002
3.575435e+003,1.362844e-002
3.577363e+003,1.342201e-002
3.579292e+003,1.337821e-002
3.581220e+003,1.344626e-002
3.583149e+003,1.360106e-002
3.585077e+003,1.377357e-002
3.587006e+003,1.381983e-002
3.588934e+003,1.390056e-002
3.590863e+003,1.389577e-002
3.592791e+003,1.383403e-002
3.594720e+003,1.387463e-002
3.596648e+003,1.389812e-002
3.598577e+003,1.392754e-002
3.600505e+003,1.379776e-002
3.602434e+003,1.364300e-002
3.604362e+003,1.347821e-002
3.606291e+003,1.328309e-002
3.608219e+003,1.306738e-002
3.610148e+003,1.284691e-002
3.612076e+003,1.264959e-002
3.614005e+003,1.264167e-002
3.615933e+003,1.287449e-002
3.617862e+003,1.308473e-002
3.619790e+003,1.333081e-002
3.621719e+003,1.350793e-002
3.623647e+003,1.364086e-002
3.625576e+003,1.359673e-002
3.627504e+003,1.336297e-002
3.629433e+003,1.320375e-002
3.631361e+003,1.307935e-002
3.633290e+003,1.293509e-002
3.635218e+003,1.266572e-002
3.637146e+003,1.238532e-002
3.639075e+003,1.227954e-002
3.641004e+003,1.212315e-002
3.642932e+003,1.197656e-002
3.644861e+003,1.182910e-002
3.646789e+003,1.171792e-002
3.648718e+003,1.169273e-002
3.650646e+003,1.163459e-002
3.652574e+003,1.153350e-002
3.654503e+003,1.142160e-002
3.656432e+003,1.147768e-002
3.658360e+003,1.151298e-002
3.660289e+003,1.146916e-002
3.662217e+003,1.145237e-002
3.664146e+003,1.145124e-002
3.666074e+003,1.147687e-002
3.668002e+003,1.150555e-002
3.669931e+003,1.134969e-002
3.671860e+003,1.133288e-002
3.673788e+003,1.140581e-002
3.675717e+003,1.145322e-002
3.677645e+003,1.146822e-002
3.679573e+003,1.150861e-002
3.681502e+003,1.156695e-002
3.683430e+003,1.169024e-002
3.685359e+003,1.182042e-002
3.687288e+003,1.199470e-002
3.689216e+003,1.222257e-002
3.691145e+003,1.233006e-002
3.693073e+003,1.243554e-002
3.695001e+003,1.249008e-002
3.696930e+003,1.258173e-002
3.698858e+003,1.269597e-002
3.700787e+003,1.275434e-002
3.702716e+003,1.283856e-002
3.704644e+003,1.280320e-002
3.706573e+003,1.256770e-002
3.708501e+003,1.229147e-002
3.710429e+003,1.208865e-002
3.712358e+003,1.175188e-002
3.714286e+003,1.157336e-002
3.716215e+003,1.169743e-002
3.718144e+003,1.206841e-002
3.720072e+003,1.245230e-002
3.722000e+003,1.277792e-002
3.723929e+003,1.303781e-002
3.725857e+003,1.324699e-002
3.727786e+003,1.341466e-002
3.729714e+003,1.336319e-002
3.731643e+003,1.311723e-002
3.733572e+003,1.288275e-002
3.735500e+003,1.256817e-002
3.737428e+003,1.223914e-002
3.739357e+003,1.191819e-002
3.741285e+003,1.158804e-002
3.743214e+003,1.129965e-002
3.745142e+003,1.115308e-002
3.747071e+003,1.107994e-002
3.749000e+003,1.108242e-002
3.750928e+003,1.101203e-002
3.752856e+003,1.097496e-002
3.754785e+003,1.103369e-002
3.756713e+003,1.103088e-002
3.758642e+003,1.108898e-002
3.760570e+003,1.112535e-002
3.762499e+003,1.107254e-002
3.764427e+003,1.096799e-002
3.766356e+003,1.095344e-002
3.768284e+003,1.095101e-002
3.770213e+003,1.094600e-002
3.772141e+003,1.097440e-002
3.774070e+003,1.103090e-002
3.775998e+003,1.104631e-002
3.777927e+003,1.108284e-002
3.779855e+003,1.116128e-002
3.781784e+003,1.107775e-002
3.783712e+003,1.110769e-002
3.785641e+003,1.110592e-002
3.787569e+003,1.110535e-002
3.789498e+003,1.107665e-002
3.791426e+003,1.101076e-002
3.793355e+003,1.106924e-002
3.795283e+003,1.114278e-002
3.797212e+003,1.111993e-002
3.799140e+003,1.104764e-002
3.801069e+003,1.103939e-002
3.802997e+003,1.111017e-002
3.804926e+003,1.115443e-002
3.806854e+003,1.118377e-002
3.808783e+003,1.131437e-002
3.810711e+003,1.124599e-002
3.812640e+003,1.118011e-002
3.814568e+003,1.116156e-002
3.816497e+003,1.118122e-002
3.818425e+003,1.118526e-002
3.820354e+003,1.115188e-002
3.822282e+003,1.120310e-002
3.824211e+003,1.126956e-002
3.826139e+003,1.125065e-002
3.828068e+003,1.120132e-002
3.829996e+003,1.123911e-002
3.831925e+003,1.116247e-002
3.833853e+003,1.098531e-002
3.835782e+003,1.109662e-002
3.837710e+003,1.124660e-002
3.839639e+003,1.136383e-002
3.841567e+003,1.133616e-002
3.843496e+003,1.132398e-002
3.845424e+003,1.128502e-002
3.847353e+003,1.128655e-002
3.849281e+003,1.131367e-002
3.851210e+003,1.129322e-002
3.853138e+003,1.129760e-002
3.855067e+003,1.136615e-002
3.856995e+003,1.143929e-002
3.858924e+003,1.131675e-002
3.860852e+003,1.128590e-002
3.862781e+003,1.131535e-002
3.864709e+003,1.128773e-002
3.866638e+003,1.124178e-002
3.868566e+003,1.129022e-002
3.870495e+003,1.139194e-002
3.872423e+003,1.135668e-002
3.874352e+003,1.134047e-002
3.876280e+003,1.122324e-002
3.878209e+003,1.126586e-002
3.880137e+003,1.139665e-002
3.882066e+003,1.132576e-002
3.883994e+003,1.126990e-002
3.885923e+003,1.127759e-002
3.887851e+003,1.129434e-002
3.889780e+003,1.138215e-002
3.891708e+003,1.143305e-002
3.893637e+003,1.137566e-002
3.895565e+003,1.132029e-002
3.897494e+003,1.130973e-002
3.899422e+003,1.140455e-002
3.901351e+003,1.140252e-002
3.903279e+003,1.139715e-002
3.905208e+003,1.143200e-002
3.907136e+003,1.145514e-002
3.909065e+003,1.143784e-002
3.910993e+003,1.140489e-002
3.912922e+003,1.137981e-002
3.914850e+003,1.138733e-002
3.916779e+003,1.148062e-002
3.918707e+003,1.147341e-002
3.920636e+003,1.148236e-002
3.922564e+003,1.139220e-002
3.924493e+003,1.136600e-002
3.926421e+003,1.148260e-002
3.928350e+003,1.157839e-002
3.930278e+003,1.153531e-002
3.932207e+003,1.145008e-002
3.934135e+003,1.143607e-002
3.936064e+003,1.138646e-002
3.937992e+003,1.132811e-002
3.939921e+003,1.142088e-002
3.941849e+003,1.148939e-002
3.943778e+003,1.156389e-002
3.945706e+003,1.153562e-002
3.947635e+003,1.151225e-002
3.949563e+003,1.149063e-002
3.951492e+003,1.141056e-002
3.953420e+003,1.137978e-002
3.955349e+003,1.143126e-002
3.957277e+003,1.141080e-002
3.959206e+003,1.144100e-002
3.961134e+003,1.145978e-002
3.963063e+003,1.142724e-002
3.964991e+003,1.148480e-002
3.966920e+003,1.138712e-002
3.968848e+003,1.130493e-002
3.970777e+003,1.137755e-002
3.972705e+003,1.143074e-002
3.974634e+003,1.147796e-002
3.976562e+003,1.150681e-002
3.978491e+003,1.138856e-002
3.980419e+003,1.140657e-002
3.982348e+003,1.142540e-002
3.984276e+003,1.147474e-002
3.986205e+003,1.152008e-002
3.988133e+003,1.145805e-002
3.990062e+003,1.141101e-002
3.991990e+003,1.144301e-002
3.993919e+003,1.143798e-002
3.995847e+003,1.144912e-002
3.997776e+003,1.144169e-002
3.999704e+003,1.144127e-002
4.001633e+003,0.000000e+000
