3.991989e+002,7.597237e-002
4.011274e+002,7.775525e-002
4.030559e+002,7.775525e-002
4.049844e+002,7.833281e-002
4.069129e+002,7.891269e-002
4.088414e+002,7.985749e-002
4.107699e+002,8.103227e-002
4.126984e+002,8.097680e-002
4.146269e+002,8.104745e-002
4.165554e+002,8.320935e-002
4.184839e+002,8.545165e-002
4.204124e+002,8.622363e-002
4.223409e+002,8.687758e-002
4.242694e+002,8.734716e-002
4.261979e+002,8.810105e-002
4.281264e+002,8.997499e-002
4.300549e+002,9.241138e-002
4.319834e+002,9.355113e-002
4.339119e+002,9.390310e-002
4.358404e+002,9.432685e-002
4.377689e+002,9.481083e-002
4.396974e+002,9.663301e-002
4.416259e+002,9.797538e-002
4.435544e+002,9.913830e-002
4.454829e+002,9.977610e-002
4.474114e+002,1.003781e-001
4.493399e+002,1.006502e-001
4.512684e+002,1.004752e-001
4.531969e+002,1.006028e-001
4.551254e+002,1.009796e-001
4.570539e+002,1.007976e-001
4.589824e+002,1.016264e-001
4.609109e+002,1.016078e-001
4.628394e+002,1.016132e-001
4.647679e+002,1.009095e-001
4.666964e+002,9.929503e-002
4.686249e+002,9.746680e-002
4.705533e+002,9.627964e-002
4.724819e+002,9.471580e-002
4.744103e+002,9.229439e-002
4.763389e+002,8.958625e-002
4.782673e+002,8.666752e-002
4.801959e+002,8.404461e-002
4.821243e+002,8.106136e-002
4.840529e+002,7.814782e-002
4.859813e+002,7.561453e-002
4.879099e+002,7.228822e-002
4.898383e+002,6.979268e-002
4.917668e+002,6.772597e-002
4.936953e+002,6.542949e-002
4.956238e+002,6.340364e-002
4.975523e+002,6.198242e-002
4.994808e+002,6.045715e-002
5.014093e+002,5.921571e-002
5.033378e+002,5.781698e-002
5.052663e+002,5.701756e-002
5.071948e+002,5.682993e-002
5.091233e+002,5.601348e-002
5.110518e+002,5.568812e-002
5.129803e+002,5.572660e-002
5.149088e+002,5.584509e-002
5.168373e+002,5.593336e-002
5.187658e+002,5.569802e-002
5.206943e+002,5.550829e-002
5.226228e+002,5.535078e-002
5.245513e+002,5.505960e-002
5.264798e+002,5.467588e-002
5.284083e+002,5.432928e-002
5.303368e+002,5.421509e-002
5.322653e+002,5.390555e-002
5.341938e+002,5.351840e-002
5.361223e+002,5.372340e-002
5.380508e+002,5.383586e-002
5.399792e+002,5.362184e-002
5.419078e+002,5.343520e-002
5.438363e+002,5.306831e-002
5.457648e+002,5.334823e-002
5.476932e+002,5.342860e-002
5.496218e+002,5.338645e-002
5.515503e+002,5.364843e-002
5.534788e+002,5.390076e-002
5.554072e+002,5.399118e-002
5.573358e+002,5.448342e-002
5.592643e+002,5.406020e-002
5.611927e+002,5.370995e-002
5.631212e+002,5.389699e-002
5.650497e+002,5.341202e-002
5.669783e+002,5.303225e-002
5.689067e+002,5.241592e-002
5.708352e+002,5.189418e-002
5.727637e+002,5.159713e-002
5.746923e+002,5.127848e-002
5.766207e+002,5.089679e-002
5.785492e+002,5.060809e-002
5.804777e+002,5.045383e-002
5.824063e+002,5.017994e-002
5.843347e+002,4.966944e-002
5.862632e+002,4.936356e-002
5.881917e+002,4.928045e-002
5.901202e+002,4.917681e-002
5.920487e+002,4.895007e-002
5.939772e+002,4.884412e-002
5.959057e+002,4.837806e-002
5.978342e+002,4.822822e-002
5.997627e+002,4.805244e-002
6.016912e+002,4.769817e-002
6.036197e+002,4.737100e-002
6.055482e+002,4.733437e-002
6.074767e+002,4.732760e-002
6.094052e+002,4.707883e-002
6.113337e+002,4.659683e-002
6.132622e+002,4.621769e-002
6.151907e+002,4.585288e-002
6.171192e+002,4.553106e-002
6.190477e+002,4.509481e-002
6.209762e+002,4.481683e-002
6.229047e+002,4.436738e-002
6.248332e+002,4.371259e-002
6.267617e+002,4.320195e-002
6.286902e+002,4.278395e-002
6.306187e+002,4.240594e-002
6.325472e+002,4.199637e-002
6.344756e+002,4.170584e-002
6.364042e+002,4.152759e-002
6.383326e+002,4.113432e-002
6.402612e+002,4.081739e-002
6.421896e+002,4.064163e-002
6.441182e+002,4.023036e-002
6.460466e+002,3.990119e-002
6.479752e+002,3.979025e-002
6.499036e+002,3.958038e-002
6.518322e+002,3.952396e-002
6.537606e+002,3.934762e-002
6.556891e+002,3.933933e-002
6.576177e+002,3.955269e-002
6.595461e+002,3.958566e-002
6.614746e+002,3.944431e-002
6.634031e+002,3.958148e-002
6.653317e+002,3.951564e-002
6.672601e+002,3.924610e-002
6.691886e+002,3.904898e-002
6.711171e+002,3.876815e-002
6.730457e+002,3.818863e-002
6.749741e+002,3.754531e-002
6.769026e+002,3.696395e-002
6.788311e+002,3.639797e-002
6.807596e+002,3.577355e-002
6.826881e+002,3.536541e-002
6.846166e+002,3.498954e-002
6.865451e+002,3.476094e-002
6.884736e+002,3.464064e-002
6.904021e+002,3.444118e-002
6.923306e+002,3.423155e-002
6.942591e+002,3.430022e-002
6.961876e+002,3.440711e-002
6.981161e+002,3.431124e-002
7.000446e+002,3.410081e-002
7.019731e+002,3.391869e-002
7.039016e+002,3.370761e-002
7.058301e+002,3.363347e-002
7.077585e+002,3.348332e-002
7.096871e+002,3.327708e-002
7.116156e+002,3.307204e-002
7.135441e+002,3.300010e-002
7.154725e+002,3.301786e-002
7.174011e+002,3.297373e-002
7.193296e+002,3.290875e-002
7.212581e+002,3.273060e-002
7.231865e+002,3.230785e-002
7.251151e+002,3.210433e-002
7.270436e+002,3.194328e-002
7.289720e+002,3.176587e-002
7.309005e+002,3.156906e-002
7.328290e+002,3.148499e-002
7.347576e+002,3.145492e-002
7.366860e+002,3.147024e-002
7.386145e+002,3.124753e-002
7.405430e+002,3.104573e-002
7.424716e+002,3.098921e-002
7.444000e+002,3.088557e-002
7.463285e+002,3.066404e-002
7.482570e+002,3.056516e-002
7.501855e+002,3.059152e-002
7.521140e+002,3.058076e-002
7.540425e+002,3.049553e-002
7.559710e+002,3.043477e-002
7.578995e+002,3.033093e-002
7.598280e+002,3.018994e-002
7.617565e+002,3.022589e-002
7.636850e+002,3.044927e-002
7.656135e+002,3.062798e-002
7.675420e+002,3.067210e-002
7.694705e+002,3.070923e-002
7.713990e+002,3.100445e-002
7.733275e+002,3.134180e-002
7.752560e+002,3.189890e-002
7.771844e+002,3.239257e-002
7.791130e+002,3.279084e-002
7.810415e+002,3.304948e-002
7.829700e+002,3.308677e-002
7.848984e+002,3.309127e-002
7.868270e+002,3.305455e-002
7.887555e+002,3.299570e-002
7.906840e+002,3.288125e-002
7.926124e+002,3.284483e-002
7.945410e+002,3.269273e-002
7.964695e+002,3.239378e-002
7.983979e+002,3.223234e-002
8.003264e+002,3.196716e-002
8.022549e+002,3.174014e-002
8.041835e+002,3.154349e-002
8.061119e+002,3.123864e-002
8.080404e+002,3.090913e-002
8.099689e+002,3.051542e-002
8.118975e+002,3.015389e-002
8.138259e+002,2.988118e-002
8.157545e+002,2.950088e-002
8.176830e+002,2.913988e-002
8.196115e+002,2.863907e-002
8.215399e+002,2.816485e-002
8.234684e+002,2.784445e-002
8.253970e+002,2.757551e-002
8.273254e+002,2.718241e-002
8.292539e+002,2.688797e-002
8.311824e+002,2.653959e-002
8.331110e+002,2.615820e-002
8.350394e+002,2.583861e-002
8.369679e+002,2.564595e-002
8.388964e+002,2.549592e-002
8.408250e+002,2.526414e-002
8.427534e+002,2.489976e-002
8.446819e+002,2.470166e-002
8.466104e+002,2.467753e-002
8.485389e+002,2.468363e-002
8.504674e+002,2.459670e-002
8.523959e+002,2.463548e-002
8.543244e+002,2.460631e-002
8.562529e+002,2.466778e-002
8.581814e+002,2.476167e-002
8.601099e+002,2.484496e-002
8.620384e+002,2.493236e-002
8.639669e+002,2.513486e-002
8.658954e+002,2.529449e-002
8.678239e+002,2.547614e-002
8.697524e+002,2.563793e-002
8.716809e+002,2.581958e-002
8.736094e+002,2.608452e-002
8.755378e+002,2.637732e-002
8.774664e+002,2.663795e-002
8.793949e+002,2.696430e-002
8.813234e+002,2.739365e-002
8.832518e+002,2.779390e-002
8.851804e+002,2.820222e-002
8.871089e+002,2.870727e-002
8.890374e+002,2.931790e-002
8.909658e+002,2.991305e-002
8.928943e+002,3.037742e-002
8.948229e+002,3.080436e-002
8.967513e+002,3.110492e-002
8.986798e+002,3.118146e-002
9.006083e+002,3.111023e-002
9.025369e+002,3.099826e-002
9.044653e+002,3.090055e-002
9.063938e+002,3.076513e-002
9.083223e+002,3.069144e-002
9.102509e+002,3.084609e-002
9.121793e+002,3.105189e-002
9.141078e+002,3.125687e-002
9.160364e+002,3.145196e-002
9.179648e+002,3.163343e-002
9.198933e+002,3.198628e-002
9.218218e+002,3.240292e-002
9.237504e+002,3.274456e-002
9.256788e+002,3.315346e-002
9.276073e+002,3.356285e-002
9.295358e+002,3.396463e-002
9.314644e+002,3.436148e-002
9.333928e+002,3.472538e-002
9.353213e+002,3.517297e-002
9.372498e+002,3.574653e-002
9.391783e+002,3.634354e-002
9.411068e+002,3.690840e-002
9.430353e+002,3.753934e-002
9.449637e+002,3.824190e-002
9.468923e+002,3.892229e-002
9.488208e+002,3.954394e-002
9.507493e+002,4.018793e-002
9.526777e+002,4.087130e-002
9.546063e+002,4.150348e-002
9.565348e+002,4.212679e-002
9.584633e+002,4.281118e-002
9.603917e+002,4.350844e-002
9.623203e+002,4.408769e-002
9.642488e+002,4.463610e-002
9.661772e+002,4.515145e-002
9.681057e+002,4.564397e-002
9.700343e+002,4.617566e-002
9.719628e+002,4.666381e-002
9.738912e+002,4.718404e-002
9.758197e+002,4.781941e-002
9.777483e+002,4.856442e-002
9.796768e+002,4.944672e-002
9.816052e+002,5.046475e-002
9.835337e+002,5.167882e-002
9.854623e+002,5.282639e-002
9.873907e+002,5.399339e-002
9.893192e+002,5.502609e-002
9.912477e+002,5.583305e-002
9.931763e+002,5.650588e-002
9.951047e+002,5.706337e-002
9.970332e+002,5.770796e-002
9.989617e+002,5.866583e-002
1.000890e+003,5.986287e-002
1.002819e+003,6.115194e-002
1.004747e+003,6.242251e-002
1.006676e+003,6.368602e-002
1.008604e+003,6.493748e-002
1.010533e+003,6.621131e-002
1.012461e+003,6.760602e-002
1.014390e+003,6.911746e-002
1.016318e+003,7.066544e-002
1.018247e+003,7.214039e-002
1.020175e+003,7.355372e-002
1.022104e+003,7.490028e-002
1.024032e+003,7.640927e-002
1.025961e+003,7.791483e-002
1.027889e+003,7.931509e-002
1.029818e+003,8.069346e-002
1.031746e+003,8.200110e-002
1.033675e+003,8.296080e-002
1.035603e+003,8.356698e-002
1.037532e+003,8.376600e-002
1.039460e+003,8.381426e-002
1.041389e+003,8.372525e-002
1.043317e+003,8.371247e-002
1.045246e+003,8.388142e-002
1.047174e+003,8.420743e-002
1.049103e+003,8.452382e-002
1.051031e+003,8.486542e-002
1.052960e+003,8.507149e-002
1.054888e+003,8.505323e-002
1.056817e+003,8.489753e-002
1.058745e+003,8.460212e-002
1.060674e+003,8.421656e-002
1.062602e+003,8.369680e-002
1.064531e+003,8.298739e-002
1.066459e+003,8.226719e-002
1.068388e+003,8.156450e-002
1.070316e+003,8.091860e-002
1.072245e+003,8.026555e-002
1.074173e+003,7.959323e-002
1.076102e+003,7.893649e-002
1.078030e+003,7.816943e-002
1.079959e+003,7.728885e-002
1.081887e+003,7.648702e-002
1.083816e+003,7.585809e-002
1.085744e+003,7.542978e-002
1.087673e+003,7.498206e-002
1.089601e+003,7.447918e-002
1.091530e+003,7.399251e-002
1.093458e+003,7.356074e-002
1.095387e+003,7.308040e-002
1.097315e+003,7.258249e-002
1.099244e+003,7.200497e-002
1.101172e+003,7.129443e-002
1.103101e+003,7.047615e-002
1.105029e+003,6.958173e-002
1.106958e+003,6.840926e-002
1.108886e+003,6.692889e-002
1.110815e+003,6.525308e-002
1.112743e+003,6.350270e-002
1.114672e+003,6.171791e-002
1.116600e+003,5.999776e-002
1.118529e+003,5.843340e-002
1.120457e+003,5.700326e-002
1.122386e+003,5.565911e-002
1.124314e+003,5.424797e-002
1.126243e+003,5.286351e-002
1.128171e+003,5.151602e-002
1.130100e+003,5.020673e-002
1.132028e+003,4.902636e-002
1.133957e+003,4.794846e-002
1.135885e+003,4.703274e-002
1.137814e+003,4.631745e-002
1.139742e+003,4.566355e-002
1.141671e+003,4.520561e-002
1.143599e+003,4.491457e-002
1.145528e+003,4.477728e-002
1.147456e+003,4.470841e-002
1.149385e+003,4.464653e-002
1.151313e+003,4.464499e-002
1.153242e+003,4.468920e-002
1.155170e+003,4.474334e-002
1.157099e+003,4.473276e-002
1.159027e+003,4.451020e-002
1.160956e+003,4.414014e-002
1.162884e+003,4.363441e-002
1.164813e+003,4.291500e-002
1.166741e+003,4.202753e-002
1.168670e+003,4.098304e-002
1.170598e+003,3.984662e-002
1.172526e+003,3.870581e-002
1.174455e+003,3.760437e-002
1.176384e+003,3.656826e-002
1.178312e+003,3.567584e-002
1.180240e+003,3.490915e-002
1.182169e+003,3.424925e-002
1.184098e+003,3.364358e-002
1.186026e+003,3.315167e-002
1.187954e+003,3.275057e-002
1.189883e+003,3.246608e-002
1.191812e+003,3.220179e-002
1.193740e+003,3.204927e-002
1.195668e+003,3.197943e-002
1.197597e+003,3.188311e-002
1.199526e+003,3.175358e-002
1.201454e+003,3.156818e-002
1.203382e+003,3.133784e-002
1.205311e+003,3.098823e-002
1.207240e+003,3.058780e-002
1.209168e+003,3.022728e-002
1.211096e+003,2.993911e-002
1.213025e+003,2.965787e-002
1.214953e+003,2.939702e-002
1.216882e+003,2.915129e-002
1.218810e+003,2.901223e-002
1.220739e+003,2.884659e-002
1.222667e+003,2.869510e-002
1.224596e+003,2.858609e-002
1.226524e+003,2.839913e-002
1.228453e+003,2.821909e-002
1.230381e+003,2.799564e-002
1.232310e+003,2.771905e-002
1.234238e+003,2.740777e-002
1.236167e+003,2.701747e-002
1.238095e+003,2.659888e-002
1.240024e+003,2.612790e-002
1.241952e+003,2.565269e-002
1.243881e+003,2.513763e-002
1.245809e+003,2.460199e-002
1.247738e+003,2.400013e-002
1.249666e+003,2.335172e-002
1.251595e+003,2.277526e-002
1.253523e+003,2.220330e-002
1.255452e+003,2.159625e-002
1.257380e+003,2.104715e-002
1.259309e+003,2.052216e-002
1.261237e+003,2.003799e-002
1.263166e+003,1.960721e-002
1.265094e+003,1.915632e-002
1.267023e+003,1.879191e-002
1.268951e+003,1.843558e-002
1.270880e+003,1.809143e-002
1.272808e+003,1.780802e-002
1.274737e+003,1.756682e-002
1.276665e+003,1.737490e-002
1.278594e+003,1.721156e-002
1.280522e+003,1.709185e-002
1.282451e+003,1.699350e-002
1.284379e+003,1.688804e-002
1.286308e+003,1.677442e-002
1.288236e+003,1.666636e-002
1.290165e+003,1.667256e-002
1.292093e+003,1.672262e-002
1.294022e+003,1.678251e-002
1.295950e+003,1.691850e-002
1.297879e+003,1.708572e-002
1.299807e+003,1.727800e-002
1.301736e+003,1.753718e-002
1.303664e+003,1.777850e-002
1.305593e+003,1.807087e-002
1.307521e+003,1.848810e-002
1.309450e+003,1.891140e-002
1.311378e+003,1.928994e-002
1.313307e+003,1.972331e-002
1.315235e+003,2.007432e-002
1.317164e+003,2.026938e-002
1.319092e+003,2.034723e-002
1.321021e+003,2.033035e-002
1.322949e+003,2.029574e-002
1.324878e+003,2.021696e-002
1.326806e+003,2.008882e-002
1.328735e+003,1.989044e-002
1.330663e+003,1.967658e-002
1.332592e+003,1.942772e-002
1.334520e+003,1.906696e-002
1.336449e+003,1.867052e-002
1.338377e+003,1.833955e-002
1.340306e+003,1.800542e-002
1.342234e+003,1.775452e-002
1.344163e+003,1.761758e-002
1.346091e+003,1.748547e-002
1.348020e+003,1.745850e-002
1.349948e+003,1.754084e-002
1.351877e+003,1.759735e-002
1.353805e+003,1.767993e-002
1.355734e+003,1.778783e-002
1.357662e+003,1.793908e-002
1.359591e+003,1.810642e-002
1.361519e+003,1.825937e-002
1.363448e+003,1.841961e-002
1.365376e+003,1.854266e-002
1.367305e+003,1.863877e-002
1.369233e+003,1.867367e-002
1.371162e+003,1.864710e-002
1.373090e+003,1.856960e-002
1.375019e+003,1.841152e-002
1.376947e+003,1.822527e-002
1.378876e+003,1.800159e-002
1.380804e+003,1.773560e-002
1.382733e+003,1.748841e-002
1.384661e+003,1.724287e-002
1.386590e+003,1.698747e-002
1.388518e+003,1.677817e-002
1.390447e+003,1.663524e-002
1.392375e+003,1.646867e-002
1.394304e+003,1.635106e-002
1.396232e+003,1.634972e-002
1.398161e+003,1.635185e-002
1.400089e+003,1.635994e-002
1.402018e+003,1.634845e-002
1.403946e+003,1.635127e-002
1.405875e+003,1.638547e-002
1.407803e+003,1.645952e-002
1.409732e+003,1.652801e-002
1.411660e+003,1.659620e-002
1.413589e+003,1.669738e-002
1.415517e+003,1.679439e-002
1.417446e+003,1.689576e-002
1.419374e+003,1.698317e-002
1.421303e+003,1.704809e-002
1.423231e+003,1.704695e-002
1.425160e+003,1.708761e-002
1.427088e+003,1.712277e-002
1.429017e+003,1.704454e-002
1.430945e+003,1.696253e-002
1.432874e+003,1.684082e-002
1.434802e+003,1.673444e-002
1.436731e+003,1.660078e-002
1.438659e+003,1.649610e-002
1.440588e+003,1.639304e-002
1.442516e+003,1.631803e-002
1.444445e+003,1.629794e-002
1.446373e+003,1.625769e-002
1.448302e+003,1.616944e-002
1.450230e+003,1.611634e-002
1.452159e+003,1.608433e-002
1.454087e+003,1.602217e-002
1.456016e+003,1.589106e-002
1.457944e+003,1.576553e-002
1.459873e+003,1.566236e-002
1.461801e+003,1.559659e-002
1.463730e+003,1.546970e-002
1.465658e+003,1.530135e-002
1.467587e+003,1.509046e-002
1.469515e+003,1.478974e-002
1.471444e+003,1.443095e-002
1.473372e+003,1.406494e-002
1.475301e+003,1.375354e-002
1.477229e+003,1.353844e-002
1.479158e+003,1.339158e-002
1.481086e+003,1.330950e-002
1.483015e+003,1.319288e-002
1.484943e+003,1.317768e-002
1.486872e+003,1.323885e-002
1.488800e+003,1.332525e-002
1.490729e+003,1.345452e-002
1.492657e+003,1.360684e-002
1.494586e+003,1.374139e-002
1.496514e+003,1.387366e-002
1.498443e+003,1.401217e-002
1.500371e+003,1.418080e-002
1.502300e+003,1.431060e-002
1.504228e+003,1.444856e-002
1.506157e+003,1.461031e-002
1.508085e+003,1.476858e-002
1.510014e+003,1.492726e-002
1.511942e+003,1.510023e-002
1.513871e+003,1.525433e-002
1.515799e+003,1.532023e-002
1.517728e+003,1.530725e-002
1.519656e+003,1.524273e-002
1.521585e+003,1.514312e-002
1.523513e+003,1.516412e-002
1.525442e+003,1.520347e-002
1.527370e+003,1.524030e-002
1.529299e+003,1.524990e-002
1.531227e+003,1.526147e-002
1.533156e+003,1.528347e-002
1.535084e+003,1.531638e-002
1.537013e+003,1.533701e-002
1.538941e+003,1.537735e-002
1.540870e+003,1.542771e-002
1.542798e+003,1.545195e-002
1.544727e+003,1.541353e-002
1.546655e+003,1.540934e-002
1.548584e+003,1.537347e-002
1.550512e+003,1.535521e-002
1.552441e+003,1.533348e-002
1.554369e+003,1.528508e-002
1.556298e+003,1.525879e-002
1.558226e+003,1.525474e-002
1.560155e+003,1.523851e-002
1.562083e+003,1.523299e-002
1.564012e+003,1.526751e-002
1.565940e+003,1.532373e-002
1.567869e+003,1.538140e-002
1.569797e+003,1.544450e-002
1.571726e+003,1.552928e-002
1.573654e+003,1.564485e-002
1.575583e+003,1.574557e-002
1.577511e+003,1.587745e-002
1.579440e+003,1.602323e-002
1.581368e+003,1.622811e-002
1.583297e+003,1.649393e-002
1.585225e+003,1.670637e-002
1.587154e+003,1.693421e-002
1.589082e+003,1.719098e-002
1.591010e+003,1.746878e-002
1.592939e+003,1.778244e-002
1.594868e+003,1.808061e-002
1.596796e+003,1.830122e-002
1.598724e+003,1.855857e-002
1.600653e+003,1.886281e-002
1.602582e+003,1.916837e-002
1.604510e+003,1.945007e-002
1.606438e+003,1.974173e-002
1.608367e+003,2.004926e-002
1.610296e+003,2.034931e-002
1.612224e+003,2.066871e-002
1.614152e+003,2.100059e-002
1.616081e+003,2.127738e-002
1.618010e+003,2.156247e-002
1.619938e+003,2.187761e-002
1.621866e+003,2.215967e-002
1.623795e+003,2.232655e-002
1.625724e+003,2.241485e-002
1.627652e+003,2.242873e-002
1.629580e+003,2.237706e-002
1.631509e+003,2.228616e-002
1.633438e+003,2.221303e-002
1.635366e+003,2.216714e-002
1.637294e+003,2.217753e-002
1.639223e+003,2.212442e-002
1.641151e+003,2.211372e-002
1.643080e+003,2.211557e-002
1.645008e+003,2.199784e-002
1.646937e+003,2.187116e-002
1.648865e+003,2.176479e-002
1.650794e+003,2.159587e-002
1.652722e+003,2.134963e-002
1.654651e+003,2.108635e-002
1.656579e+003,2.080943e-002
1.658508e+003,2.050622e-002
1.660436e+003,2.010735e-002
1.662365e+003,1.964080e-002
1.664293e+003,1.918458e-002
1.666222e+003,1.875724e-002
1.668150e+003,1.834923e-002
1.670079e+003,1.789702e-002
1.672007e+003,1.742797e-002
1.673936e+003,1.696460e-002
1.675864e+003,1.652828e-002
1.677793e+003,1.612673e-002
1.679721e+003,1.575069e-002
1.681650e+003,1.536066e-002
1.683578e+003,1.497720e-002
1.685507e+003,1.459520e-002
1.687435e+003,1.431187e-002
1.689364e+003,1.405826e-002
1.691292e+003,1.372023e-002
1.693221e+003,1.349048e-002
1.695149e+003,1.326475e-002
1.697078e+003,1.301821e-002
1.699006e+003,1.277102e-002
1.700935e+003,1.252227e-002
1.702863e+003,1.234622e-002
1.704792e+003,1.224479e-002
1.706720e+003,1.216487e-002
1.708649e+003,1.211407e-002
1.710577e+003,1.212824e-002
1.712506e+003,1.215114e-002
1.714434e+003,1.221019e-002
1.716363e+003,1.217428e-002
1.718291e+003,1.221551e-002
1.720220e+003,1.225961e-002
1.722148e+003,1.232281e-002
1.724077e+003,1.239617e-002
1.726005e+003,1.246610e-002
1.727934e+003,1.249174e-002
1.729862e+003,1.251637e-002
1.731791e+003,1.250620e-002
1.733719e+003,1.245959e-002
1.735648e+003,1.231289e-002
1.737576e+003,1.216249e-002
1.739505e+003,1.189798e-002
1.741433e+003,1.160749e-002
1.743362e+003,1.133447e-002
1.745290e+003,1.108144e-002
1.747219e+003,1.084683e-002
1.749147e+003,1.062352e-002
1.751076e+003,1.041554e-002
1.753004e+003,1.026447e-002
1.754933e+003,1.017115e-002
1.756861e+003,1.003698e-002
1.758790e+003,9.854355e-003
1.760718e+003,9.767865e-003
1.762647e+003,9.706905e-003
1.764575e+003,9.673464e-003
1.766504e+003,9.594563e-003
1.768432e+003,9.535186e-003
1.770361e+003,9.528582e-003
1.772289e+003,9.487094e-003
1.774218e+003,9.433826e-003
1.776146e+003,9.450724e-003
1.778075e+003,9.448997e-003
1.780003e+003,9.408296e-003
1.781932e+003,9.355410e-003
1.783860e+003,9.372507e-003
1.785789e+003,9.428171e-003
1.787717e+003,9.451943e-003
1.789646e+003,9.451841e-003
1.791574e+003,9.475986e-003
1.793503e+003,9.439481e-003
1.795431e+003,9.386897e-003
1.797360e+003,9.418353e-003
1.799288e+003,9.412494e-003
1.801217e+003,9.458343e-003
1.803145e+003,9.402811e-003
1.805074e+003,9.356189e-003
1.807002e+003,9.314244e-003
1.808931e+003,9.316207e-003
1.810859e+003,9.379008e-003
1.812788e+003,9.397089e-003
1.814716e+003,9.361606e-003
1.816645e+003,9.419673e-003
1.818573e+003,9.470297e-003
1.820502e+003,9.347082e-003
1.822430e+003,9.341360e-003
1.824359e+003,9.323723e-003
1.826287e+003,9.338517e-003
1.828216e+003,9.387134e-003
1.830144e+003,9.355004e-003
1.832073e+003,9.333540e-003
1.834001e+003,9.343087e-003
1.835930e+003,9.300669e-003
1.837858e+003,9.284827e-003
1.839787e+003,9.335876e-003
1.841715e+003,9.319931e-003
1.843644e+003,9.180107e-003
1.845572e+003,9.108673e-003
1.847501e+003,9.194389e-003
1.849429e+003,9.245597e-003
1.851358e+003,9.304698e-003
1.853286e+003,9.404740e-003
1.855215e+003,9.476223e-003
1.857143e+003,9.412799e-003
1.859072e+003,9.280358e-003
1.861000e+003,9.228877e-003
1.862929e+003,9.240283e-003
1.864857e+003,9.340412e-003
1.866786e+003,9.526143e-003
1.868714e+003,9.453027e-003
1.870643e+003,9.285064e-003
1.872571e+003,9.243160e-003
1.874500e+003,9.461256e-003
1.876428e+003,9.614821e-003
1.878357e+003,9.628135e-003
1.880285e+003,9.578101e-003
1.882214e+003,9.314447e-003
1.884142e+003,9.366650e-003
1.886071e+003,9.444019e-003
1.887999e+003,9.460511e-003
1.889928e+003,9.435418e-003
1.891856e+003,9.265939e-003
1.893785e+003,9.297250e-003
1.895713e+003,9.353650e-003
1.897642e+003,9.390553e-003
1.899570e+003,9.257104e-003
1.901499e+003,9.086545e-003
1.903427e+003,9.121193e-003
1.905356e+003,9.310283e-003
1.907284e+003,9.394481e-003
1.909213e+003,9.329512e-003
1.911141e+003,9.241569e-003
1.913070e+003,9.048009e-003
1.914998e+003,9.139567e-003
1.916927e+003,9.177197e-003
1.918855e+003,9.099876e-003
1.920784e+003,9.036439e-003
1.922712e+003,8.911892e-003
1.924641e+003,8.704991e-003
1.926569e+003,8.390044e-003
1.928498e+003,8.295232e-003
1.930426e+003,8.309991e-003
1.932355e+003,8.636102e-003
1.934283e+003,8.695898e-003
1.936212e+003,8.493593e-003
1.938140e+003,8.565805e-003
1.940069e+003,8.567528e-003
1.941997e+003,8.035427e-003
1.943926e+003,7.615779e-003
1.945854e+003,7.736109e-003
1.947783e+003,8.328432e-003
1.949711e+003,8.300096e-003
1.951640e+003,7.994993e-003
1.953568e+003,7.536105e-003
1.955497e+003,6.899343e-003
1.957425e+003,6.969809e-003
1.959354e+003,7.296229e-003
1.961282e+003,7.331880e-003
1.963211e+003,6.828755e-003
1.965139e+003,7.035707e-003
1.967068e+003,6.977217e-003
1.968996e+003,6.600942e-003
1.970925e+003,6.075611e-003
1.972853e+003,6.761980e-003
1.974782e+003,6.006063e-003
1.976710e+003,5.074956e-003
1.978639e+003,5.383415e-003
1.980567e+003,5.920134e-003
1.982496e+003,6.264859e-003
1.984424e+003,6.346014e-003
1.986353e+003,5.817701e-003
1.988281e+003,6.207515e-003
1.990210e+003,6.931629e-003
1.992138e+003,7.192493e-003
1.994067e+003,6.827846e-003
1.995995e+003,7.020048e-003
1.997924e+003,6.467439e-003
1.999852e+003,6.187181e-003
2.001781e+003,5.940087e-003
2.003709e+003,5.604884e-003
2.005638e+003,5.874489e-003
2.007566e+003,5.529270e-003
2.009495e+003,4.841360e-003
2.011423e+003,4.271036e-003
2.013352e+003,4.503254e-003
2.015280e+003,4.816031e-003
2.017208e+003,4.605110e-003
2.019137e+003,4.183409e-003
2.021066e+003,3.765660e-003
2.022994e+003,3.893086e-003
2.024922e+003,3.675729e-003
2.026851e+003,3.596474e-003
2.028780e+003,3.871690e-003
2.030708e+003,4.832515e-003
2.032636e+003,4.617468e-003
2.034565e+003,3.625041e-003
2.036494e+003,2.771374e-003
2.038422e+003,3.528458e-003
2.040350e+003,4.902278e-003
2.042279e+003,4.564024e-003
2.044208e+003,4.826350e-003
2.046136e+003,4.994775e-003
2.048064e+003,5.755043e-003
2.049993e+003,6.081424e-003
2.051921e+003,6.016478e-003
2.053850e+003,6.128905e-003
2.055778e+003,5.858403e-003
2.057707e+003,5.942706e-003
2.059635e+003,6.413128e-003
2.061564e+003,6.537162e-003
2.063492e+003,6.149338e-003
2.065421e+003,6.172594e-003
2.067349e+003,6.637983e-003
2.069278e+003,6.648615e-003
2.071206e+003,6.441846e-003
2.073135e+003,6.516812e-003
2.075063e+003,6.660256e-003
2.076992e+003,7.020519e-003
2.078920e+003,7.151935e-003
2.080849e+003,6.896650e-003
2.082777e+003,6.923078e-003
2.084706e+003,6.930316e-003
2.086634e+003,7.258828e-003
2.088563e+003,7.638068e-003
2.090491e+003,7.375959e-003
2.092420e+003,7.277730e-003
2.094348e+003,7.426953e-003
2.096277e+003,7.220050e-003
2.098205e+003,7.034023e-003
2.100134e+003,6.970786e-003
2.102062e+003,7.144760e-003
2.103991e+003,7.501313e-003
2.105919e+003,7.432784e-003
2.107848e+003,7.083797e-003
2.109776e+003,7.174369e-003
2.111705e+003,7.364871e-003
2.113633e+003,7.309741e-003
2.115562e+003,7.525215e-003
2.117490e+003,7.508090e-003
2.119419e+003,7.184677e-003
2.121347e+003,6.887056e-003
2.123276e+003,6.816873e-003
2.125204e+003,6.818287e-003
2.127133e+003,6.942099e-003
2.129061e+003,6.737716e-003
2.130990e+003,6.352066e-003
2.132918e+003,5.904482e-003
2.134847e+003,5.282818e-003
2.136775e+003,4.986798e-003
2.138704e+003,4.727557e-003
2.140632e+003,4.422978e-003
2.142561e+003,4.239818e-003
2.144489e+003,3.805535e-003
2.146418e+003,2.535881e-003
2.148346e+003,2.034849e-003
2.150275e+003,2.646511e-003
2.152203e+003,2.244058e-003
2.154132e+003,9.678627e-004
2.156060e+003,-9.408484e-004
2.157989e+003,-3.084864e-003
2.159917e+003,-2.218084e-003
2.161846e+003,-1.980964e-004
2.163774e+003,1.668951e-004
2.165703e+003,1.354044e-003
2.167631e+003,2.220812e-003
2.169560e+003,2.117981e-003
2.171488e+003,1.951833e-003
2.173417e+003,2.528682e-003
2.175345e+003,3.118513e-003
2.177274e+003,2.697185e-003
2.179202e+003,2.913018e-003
2.181131e+003,3.014002e-003
2.183059e+003,3.173215e-003
2.184988e+003,4.199401e-003
2.186916e+003,4.773249e-003
2.188845e+003,4.380837e-003
2.190773e+003,4.342850e-003
2.192702e+003,4.326050e-003
2.194630e+003,4.729165e-003
2.196559e+003,5.323437e-003
2.198487e+003,5.398008e-003
2.200416e+003,5.607804e-003
2.202344e+003,6.197297e-003
2.204273e+003,5.796209e-003
2.206201e+003,5.224094e-003
2.208130e+003,5.516350e-003
2.210058e+003,6.125276e-003
2.211987e+003,5.882080e-003
2.213915e+003,5.686419e-003
2.215844e+003,6.093622e-003
2.217772e+003,6.639328e-003
2.219701e+003,6.384580e-003
2.221629e+003,6.336903e-003
2.223558e+003,7.097539e-003
2.225486e+003,7.552220e-003
2.227415e+003,7.113873e-003
2.229343e+003,6.839021e-003
2.231272e+003,7.149416e-003
2.233200e+003,7.142803e-003
2.235129e+003,7.049063e-003
2.237057e+003,7.066848e-003
2.238986e+003,7.282148e-003
2.240914e+003,7.761222e-003
2.242843e+003,7.920139e-003
2.244771e+003,7.770301e-003
2.246700e+003,7.795020e-003
2.248628e+003,7.866761e-003
2.250557e+003,8.073772e-003
2.252485e+003,8.530189e-003
2.254414e+003,8.533505e-003
2.256342e+003,8.285017e-003
2.258271e+003,8.390795e-003
2.260199e+003,8.655385e-003
2.262128e+003,8.995885e-003
2.264056e+003,9.046550e-003
2.265985e+003,8.981774e-003
2.267913e+003,8.668305e-003
2.269842e+003,8.686408e-003
2.271770e+003,9.047240e-003
2.273699e+003,9.088279e-003
2.275627e+003,9.008899e-003
2.277556e+003,9.080488e-003
2.279484e+003,9.140803e-003
2.281413e+003,9.228214e-003
2.283341e+003,9.579649e-003
2.285270e+003,9.717749e-003
2.287198e+003,9.646337e-003
2.289127e+003,9.563521e-003
2.291055e+003,9.508207e-003
2.292984e+003,9.397600e-003
2.294912e+003,9.390437e-003
2.296841e+003,9.509742e-003
2.298769e+003,9.622638e-003
2.300698e+003,9.692686e-003
2.302626e+003,9.657905e-003
2.304555e+003,9.563117e-003
2.306483e+003,9.608891e-003
2.308412e+003,9.757355e-003
2.310340e+003,9.819412e-003
2.312269e+003,9.801328e-003
2.314197e+003,9.800028e-003
2.316125e+003,9.813288e-003
2.318054e+003,9.816836e-003
2.319983e+003,9.889926e-003
2.321911e+003,9.923005e-003
2.323840e+003,1.003961e-002
2.325768e+003,1.013956e-002
2.327697e+003,9.918941e-003
2.329625e+003,9.901518e-003
2.331553e+003,1.011345e-002
2.333482e+003,1.021626e-002
2.335411e+003,1.023076e-002
2.337339e+003,9.708882e-003
2.339268e+003,9.632995e-003
2.341196e+003,9.623777e-003
2.343125e+003,9.716637e-003
2.345053e+003,9.772683e-003
2.346981e+003,9.859207e-003
2.348910e+003,9.836336e-003
2.350839e+003,1.002822e-002
2.352767e+003,9.833349e-003
2.354696e+003,9.756817e-003
2.356624e+003,9.950632e-003
2.358552e+003,9.992243e-003
2.360481e+003,9.901628e-003
2.362409e+003,9.929854e-003
2.364338e+003,1.011896e-002
2.366267e+003,9.985007e-003
2.368195e+003,1.016907e-002
2.370124e+003,1.004241e-002
2.372052e+003,1.012993e-002
2.373980e+003,1.024730e-002
2.375909e+003,9.856171e-003
2.377838e+003,9.877465e-003
2.379766e+003,9.955053e-003
2.381695e+003,9.784185e-003
2.383623e+003,9.779735e-003
2.385552e+003,9.937762e-003
2.387480e+003,9.986675e-003
2.389408e+003,1.008395e-002
2.391337e+003,1.020719e-002
2.393266e+003,1.021271e-002
2.395194e+003,1.023129e-002
2.397123e+003,1.024310e-002
2.399051e+003,1.014967e-002
2.400979e+003,1.019842e-002
2.402908e+003,1.032544e-002
2.404836e+003,1.032150e-002
2.406765e+003,1.021653e-002
2.408694e+003,1.025880e-002
2.410622e+003,1.027112e-002
2.412551e+003,1.030854e-002
2.414479e+003,1.026745e-002
2.416407e+003,1.021674e-002
2.418336e+003,1.035940e-002
2.420264e+003,1.031858e-002
2.422193e+003,1.019899e-002
2.424122e+003,1.020249e-002
2.426050e+003,1.023112e-002
2.427979e+003,1.016121e-002
2.429907e+003,1.017199e-002
2.431835e+003,1.024452e-002
2.433764e+003,1.024812e-002
2.435692e+003,1.023573e-002
2.437621e+003,1.034858e-002
2.439550e+003,1.023848e-002
2.441478e+003,1.013414e-002
2.443406e+003,1.006089e-002
2.445335e+003,1.017437e-002
2.447263e+003,1.028866e-002
2.449192e+003,1.022688e-002
2.451121e+003,1.041574e-002
2.453049e+003,1.023628e-002
2.454978e+003,1.012953e-002
2.456906e+003,1.021935e-002
2.458834e+003,1.024089e-002
2.460763e+003,1.028201e-002
2.462691e+003,1.036436e-002
2.464620e+003,1.036073e-002
2.466549e+003,1.034458e-002
2.468477e+003,1.032680e-002
2.470406e+003,1.028133e-002
2.472334e+003,1.032300e-002
2.474262e+003,1.027254e-002
2.476191e+003,1.018370e-002
2.478119e+003,1.022756e-002
2.480048e+003,1.032391e-002
2.481977e+003,1.036602e-002
2.483905e+003,1.037064e-002
2.485833e+003,1.040624e-002
2.487762e+003,1.042195e-002
2.489690e+003,1.036073e-002
2.491619e+003,1.047788e-002
2.493547e+003,1.059124e-002
2.495476e+003,1.057816e-002
2.497405e+003,1.061330e-002
2.499333e+003,1.066196e-002
2.501261e+003,1.061001e-002
2.503190e+003,1.051746e-002
2.505118e+003,1.054873e-002
2.507047e+003,1.057877e-002
2.508975e+003,1.059259e-002
2.510904e+003,1.076908e-002
2.512833e+003,1.071657e-002
2.514761e+003,1.061174e-002
2.516689e+003,1.048287e-002
2.518618e+003,1.050534e-002
2.520546e+003,1.062359e-002
2.522475e+003,1.058706e-002
2.524403e+003,1.056302e-002
2.526332e+003,1.066172e-002
2.528260e+003,1.069939e-002
2.530189e+003,1.071341e-002
2.532117e+003,1.072099e-002
2.534046e+003,1.077815e-002
2.535974e+003,1.089514e-002
2.537903e+003,1.083168e-002
2.539831e+003,1.086892e-002
2.541760e+003,1.102210e-002
2.543688e+003,1.102583e-002
2.545617e+003,1.100687e-002
2.547545e+003,1.101075e-002
2.549474e+003,1.109385e-002
2.551402e+003,1.096327e-002
2.553331e+003,1.091434e-002
2.555259e+003,1.101863e-002
2.557188e+003,1.104154e-002
2.559116e+003,1.099032e-002
2.561045e+003,1.096184e-002
2.562973e+003,1.098468e-002
2.564902e+003,1.096205e-002
2.566830e+003,1.089052e-002
2.568759e+003,1.091682e-002
2.570687e+003,1.099688e-002
2.572616e+003,1.110992e-002
2.574544e+003,1.104293e-002
2.576473e+003,1.105374e-002
2.578401e+003,1.103943e-002
2.580330e+003,1.095063e-002
2.582258e+003,1.107019e-002
2.584187e+003,1.117955e-002
2.586115e+003,1.121229e-002
2.588044e+003,1.122245e-002
2.589972e+003,1.123687e-002
2.591901e+003,1.120651e-002
2.593829e+003,1.112475e-002
2.595758e+003,1.115687e-002
2.597686e+003,1.125714e-002
2.599615e+003,1.125554e-002
2.601543e+003,1.124619e-002
2.603472e+003,1.120715e-002
2.605400e+003,1.111540e-002
2.607329e+003,1.114953e-002
2.609257e+003,1.124347e-002
2.611186e+003,1.131318e-002
2.613114e+003,1.134318e-002
2.615043e+003,1.130825e-002
2.616971e+003,1.135348e-002
2.618900e+003,1.140596e-002
2.620828e+003,1.143927e-002
2.622757e+003,1.149431e-002
2.624685e+003,1.145849e-002
2.626614e+003,1.136413e-002
2.628542e+003,1.133780e-002
2.630471e+003,1.138940e-002
2.632399e+003,1.139267e-002
2.634328e+003,1.140610e-002
2.636256e+003,1.146019e-002
2.638185e+003,1.150010e-002
2.640113e+003,1.156131e-002
2.642042e+003,1.157900e-002
2.643970e+003,1.155671e-002
2.645899e+003,1.164360e-002
2.647827e+003,1.159939e-002
2.649756e+003,1.155491e-002
2.651684e+003,1.162386e-002
2.653613e+003,1.165047e-002
2.655541e+003,1.169727e-002
2.657470e+003,1.172440e-002
2.659398e+003,1.170377e-002
2.661327e+003,1.173826e-002
2.663255e+003,1.177659e-002
2.665184e+003,1.175153e-002
2.667112e+003,1.181945e-002
2.669041e+003,1.184697e-002
2.670969e+003,1.182555e-002
2.672898e+003,1.185674e-002
2.674826e+003,1.189351e-002
2.676755e+003,1.188088e-002
2.678683e+003,1.184778e-002
2.680612e+003,1.188190e-002
2.682540e+003,1.189763e-002
2.684469e+003,1.188732e-002
2.686397e+003,1.187506e-002
2.688326e+003,1.191211e-002
2.690254e+003,1.193751e-002
2.692183e+003,1.191616e-002
2.694111e+003,1.194395e-002
2.696040e+003,1.193993e-002
2.697968e+003,1.193319e-002
2.699897e+003,1.194851e-002
2.701825e+003,1.199569e-002
2.703754e+003,1.201078e-002
2.705682e+003,1.201068e-002
2.707611e+003,1.203350e-002
2.709539e+003,1.202900e-002
2.711468e+003,1.200860e-002
2.713396e+003,1.196776e-002
2.715325e+003,1.196582e-002
2.717253e+003,1.196020e-002
2.719182e+003,1.194095e-002
2.721110e+003,1.197893e-002
2.723039e+003,1.203258e-002
2.724967e+003,1.205966e-002
2.726896e+003,1.207026e-002
2.728824e+003,1.208290e-002
2.730753e+003,1.205976e-002
2.732681e+003,1.207591e-002
2.734610e+003,1.213049e-002
2.736538e+003,1.213274e-002
2.738467e+003,1.208842e-002
2.740395e+003,1.208838e-002
2.742324e+003,1.213380e-002
2.744252e+003,1.214698e-002
2.746181e+003,1.215526e-002
2.748109e+003,1.214944e-002
2.750038e+003,1.215012e-002
2.751966e+003,1.220256e-002
2.753895e+003,1.222505e-002
2.755823e+003,1.222001e-002
2.757752e+003,1.225201e-002
2.759680e+003,1.222775e-002
2.761609e+003,1.227761e-002
2.763537e+003,1.227512e-002
2.765466e+003,1.229656e-002
2.767394e+003,1.234432e-002
2.769323e+003,1.237275e-002
2.771251e+003,1.235219e-002
2.773180e+003,1.233501e-002
2.775108e+003,1.239324e-002
2.777037e+003,1.240500e-002
2.778965e+003,1.239937e-002
2.780894e+003,1.240909e-002
2.782822e+003,1.244322e-002
2.784750e+003,1.249969e-002
2.786679e+003,1.253761e-002
2.788608e+003,1.246562e-002
2.790536e+003,1.246204e-002
2.792465e+003,1.250971e-002
2.794393e+003,1.248936e-002
2.796322e+003,1.249028e-002
2.798250e+003,1.258843e-002
2.800178e+003,1.264267e-002
2.802107e+003,1.262489e-002
2.804036e+003,1.260583e-002
2.805964e+003,1.264195e-002
2.807893e+003,1.265952e-002
2.809821e+003,1.268654e-002
2.811750e+003,1.273601e-002
2.813678e+003,1.281541e-002
2.815606e+003,1.288483e-002
2.817535e+003,1.292764e-002
2.819464e+003,1.295720e-002
2.821392e+003,1.295938e-002
2.823321e+003,1.301578e-002
2.825249e+003,1.305061e-002
2.827177e+003,1.310784e-002
2.829106e+003,1.318147e-002
2.831034e+003,1.319325e-002
2.832963e+003,1.323165e-002
2.834892e+003,1.332245e-002
2.836820e+003,1.342137e-002
2.838749e+003,1.350979e-002
2.840677e+003,1.358424e-002
2.842605e+003,1.373298e-002
2.844534e+003,1.397470e-002
2.846462e+003,1.429310e-002
2.848391e+003,1.449220e-002
2.850320e+003,1.454582e-002
2.852248e+003,1.452126e-002
2.854177e+003,1.442790e-002
2.856105e+003,1.440413e-002
2.858033e+003,1.433481e-002
2.859962e+003,1.423486e-002
2.861890e+003,1.420521e-002
2.863819e+003,1.423582e-002
2.865748e+003,1.427790e-002
2.867676e+003,1.427934e-002
2.869604e+003,1.433026e-002
2.871533e+003,1.437283e-002
2.873461e+003,1.439396e-002
2.875390e+003,1.440636e-002
2.877319e+003,1.445627e-002
2.879247e+003,1.451475e-002
2.881176e+003,1.447579e-002
2.883104e+003,1.445425e-002
2.885032e+003,1.452804e-002
2.886961e+003,1.453030e-002
2.888889e+003,1.453414e-002
2.890818e+003,1.461774e-002
2.892747e+003,1.467179e-002
2.894675e+003,1.469989e-002
2.896604e+003,1.471744e-002
2.898532e+003,1.476084e-002
2.900460e+003,1.481212e-002
2.902389e+003,1.484517e-002
2.904317e+003,1.493220e-002
2.906246e+003,1.501808e-002
2.908175e+003,1.505416e-002
2.910103e+003,1.517187e-002
2.912031e+003,1.529040e-002
2.913960e+003,1.544604e-002
2.915888e+003,1.560500e-002
2.917817e+003,1.561115e-002
2.919745e+003,1.558519e-002
2.921674e+003,1.549452e-002
2.923603e+003,1.534927e-002
2.925531e+003,1.522523e-002
2.927459e+003,1.509015e-002
2.929388e+003,1.498210e-002
2.931316e+003,1.484133e-002
2.933245e+003,1.471072e-002
2.935173e+003,1.458858e-002
2.937102e+003,1.448569e-002
2.939031e+003,1.434752e-002
2.940959e+003,1.423130e-002
2.942887e+003,1.420312e-002
2.944816e+003,1.413158e-002
2.946744e+003,1.397709e-002
2.948673e+003,1.392344e-002
2.950601e+003,1.388372e-002
2.952530e+003,1.374960e-002
2.954458e+003,1.363560e-002
2.956387e+003,1.357255e-002
2.958315e+003,1.356414e-002
2.960244e+003,1.353023e-002
2.962172e+003,1.345087e-002
2.964101e+003,1.343193e-002
2.966029e+003,1.335013e-002
2.967958e+003,1.328036e-002
2.969886e+003,1.320900e-002
2.971815e+003,1.319623e-002
2.973743e+003,1.314032e-002
2.975672e+003,1.307301e-002
2.977600e+003,1.304569e-002
2.979529e+003,1.303992e-002
2.981457e+003,1.303606e-002
2.983386e+003,1.300865e-002
2.985314e+003,1.297177e-002
2.987243e+003,1.287903e-002
2.989171e+003,1.281572e-002
2.991100e+003,1.283739e-002
2.993028e+003,1.287862e-002
2.994957e+003,1.280811e-002
2.996885e+003,1.277965e-002
2.998814e+003,1.276645e-002
3.000742e+003,1.272519e-002
3.002671e+003,1.278033e-002
3.004599e+003,1.288296e-002
3.006528e+003,1.290180e-002
3.008456e+003,1.282504e-002
3.010385e+003,1.287889e-002
3.012313e+003,1.287650e-002
3.014242e+003,1.285074e-002
3.016170e+003,1.291784e-002
3.018099e+003,1.293863e-002
3.020027e+003,1.293183e-002
3.021956e+003,1.300759e-002
3.023884e+003,1.304648e-002
3.025813e+003,1.300660e-002
3.027741e+003,1.302674e-002
3.029670e+003,1.310497e-002
3.031598e+003,1.312201e-002
3.033527e+003,1.304258e-002
3.035455e+003,1.299045e-002
3.037384e+003,1.310808e-002
3.039312e+003,1.313267e-002
3.041241e+003,1.314800e-002
3.043169e+003,1.325583e-002
3.045098e+003,1.328839e-002
3.047026e+003,1.329105e-002
3.048955e+003,1.330069e-002
3.050883e+003,1.331627e-002
3.052812e+003,1.342213e-002
3.054740e+003,1.339062e-002
3.056669e+003,1.340097e-002
3.058597e+003,1.348289e-002
3.060526e+003,1.348928e-002
3.062454e+003,1.347312e-002
3.064383e+003,1.354230e-002
3.066311e+003,1.358739e-002
3.068240e+003,1.358421e-002
3.070168e+003,1.365331e-002
3.072097e+003,1.365119e-002
3.074025e+003,1.361286e-002
3.075954e+003,1.367194e-002
3.077882e+003,1.368449e-002
3.079811e+003,1.369181e-002
3.081739e+003,1.378565e-002
3.083668e+003,1.382020e-002
3.085596e+003,1.389700e-002
3.087525e+003,1.392108e-002
3.089453e+003,1.389224e-002
3.091382e+003,1.387832e-002
3.093310e+003,1.395328e-002
3.095239e+003,1.397767e-002
3.097167e+003,1.394985e-002
3.099096e+003,1.399841e-002
3.101024e+003,1.394879e-002
3.102953e+003,1.397121e-002
3.104881e+003,1.412001e-002
3.106810e+003,1.414328e-002
3.108738e+003,1.404030e-002
3.110667e+003,1.405145e-002
3.112595e+003,1.414462e-002
3.114524e+003,1.418912e-002
3.116452e+003,1.408653e-002
3.118381e+003,1.412295e-002
3.120309e+003,1.424606e-002
3.122238e+003,1.426112e-002
3.124166e+003,1.430218e-002
3.126095e+003,1.436358e-002
3.128023e+003,1.443260e-002
3.129952e+003,1.443373e-002
3.131880e+003,1.441424e-002
3.133809e+003,1.450854e-002
3.135737e+003,1.456206e-002
3.137666e+003,1.461147e-002
3.139594e+003,1.465527e-002
3.141523e+003,1.466548e-002
3.143451e+003,1.474157e-002
3.145380e+003,1.482584e-002
3.147308e+003,1.482913e-002
3.149237e+003,1.491114e-002
3.151165e+003,1.490772e-002
3.153094e+003,1.492466e-002
3.155022e+003,1.497829e-002
3.156951e+003,1.500539e-002
3.158879e+003,1.503362e-002
3.160808e+003,1.510850e-002
3.162736e+003,1.510912e-002
3.164665e+003,1.514010e-002
3.166593e+003,1.517750e-002
3.168522e+003,1.521991e-002
3.170450e+003,1.521157e-002
3.172379e+003,1.524527e-002
3.174307e+003,1.536822e-002
3.176236e+003,1.541617e-002
3.178164e+003,1.541693e-002
3.180093e+003,1.549600e-002
3.182021e+003,1.557327e-002
3.183950e+003,1.564560e-002
3.185878e+003,1.566587e-002
3.187807e+003,1.573224e-002
3.189735e+003,1.575849e-002
3.191664e+003,1.575601e-002
3.193592e+003,1.588642e-002
3.195521e+003,1.600082e-002
3.197449e+003,1.602921e-002
3.199378e+003,1.600883e-002
3.201306e+003,1.604448e-002
3.203235e+003,1.613918e-002
3.205163e+003,1.618460e-002
3.207092e+003,1.622756e-002
3.209020e+003,1.621669e-002
3.210948e+003,1.626196e-002
3.212877e+003,1.639101e-002
3.214806e+003,1.655486e-002
3.216734e+003,1.657520e-002
3.218663e+003,1.659072e-002
3.220591e+003,1.663558e-002
3.222520e+003,1.665138e-002
3.224448e+003,1.660126e-002
3.226376e+003,1.666275e-002
3.228305e+003,1.674280e-002
3.230234e+003,1.679542e-002
3.232162e+003,1.688381e-002
3.234091e+003,1.695188e-002
3.236019e+003,1.701011e-002
3.237948e+003,1.704209e-002
3.239876e+003,1.711394e-002
3.241804e+003,1.716913e-002
3.243733e+003,1.723342e-002
3.245662e+003,1.733120e-002
3.247590e+003,1.735369e-002
3.249519e+003,1.739714e-002
3.251447e+003,1.754564e-002
3.253375e+003,1.759018e-002
3.255304e+003,1.765612e-002
3.257232e+003,1.766312e-002
3.259161e+003,1.764007e-002
3.261090e+003,1.770074e-002
3.263018e+003,1.783498e-002
3.264947e+003,1.787324e-002
3.266875e+003,1.787655e-002
3.268803e+003,1.784738e-002
3.270732e+003,1.791774e-002
3.272660e+003,1.801157e-002
3.274589e+003,1.803847e-002
3.276518e+003,1.801468e-002
3.278446e+003,1.806362e-002
3.280375e+003,1.825671e-002
3.282303e+003,1.828405e-002
3.284231e+003,1.815343e-002
3.286160e+003,1.816636e-002
3.288088e+003,1.821566e-002
3.290017e+003,1.818156e-002
3.291946e+003,1.823563e-002
3.293874e+003,1.832749e-002
3.295802e+003,1.831201e-002
3.297731e+003,1.828992e-002
3.299659e+003,1.825253e-002
3.301588e+003,1.813678e-002
3.303516e+003,1.815164e-002
3.305445e+003,1.820377e-002
3.307374e+003,1.828699e-002
3.309302e+003,1.835518e-002
3.311230e+003,1.831809e-002
3.313159e+003,1.829853e-002
3.315087e+003,1.830032e-002
3.317016e+003,1.831761e-002
3.318944e+003,1.836803e-002
3.320873e+003,1.838649e-002
3.322802e+003,1.843105e-002
3.324730e+003,1.847202e-002
3.326658e+003,1.842435e-002
3.328587e+003,1.837152e-002
3.330515e+003,1.832849e-002
3.332444e+003,1.828930e-002
3.334372e+003,1.827264e-002
3.336301e+003,1.832092e-002
3.338229e+003,1.831698e-002
3.340158e+003,1.826038e-002
3.342086e+003,1.825312e-002
3.344015e+003,1.830454e-002
3.345943e+003,1.826138e-002
3.347872e+003,1.818646e-002
3.349800e+003,1.815800e-002
3.351729e+003,1.813198e-002
3.353657e+003,1.806110e-002
3.355586e+003,1.805609e-002
3.357514e+003,1.807726e-002
3.359443e+003,1.805091e-002
3.361371e+003,1.801215e-002
3.363300e+003,1.794119e-002
3.365229e+003,1.789526e-002
3.367157e+003,1.785770e-002
3.369085e+003,1.775510e-002
3.371014e+003,1.766540e-002
3.372942e+003,1.768828e-002
3.374871e+003,1.763038e-002
3.376799e+003,1.762234e-002
3.378728e+003,1.767579e-002
3.380656e+003,1.756872e-002
3.382585e+003,1.746274e-002
3.384513e+003,1.735989e-002
3.386442e+003,1.739573e-002
3.388370e+003,1.742001e-002
3.390299e+003,1.746543e-002
3.392227e+003,1.738241e-002
3.394156e+003,1.733862e-002
3.396084e+003,1.726965e-002
3.398013e+003,1.717392e-002
3.399941e+003,1.709099e-002
3.401870e+003,1.705515e-002
3.403798e+003,1.709561e-002
3.405727e+003,1.704230e-002
3.407655e+003,1.696222e-002
3.409584e+003,1.691657e-002
3.411512e+003,1.689704e-002
3.413441e+003,1.678988e-002
3.415369e+003,1.672221e-002
3.417298e+003,1.673833e-002
3.419226e+003,1.662728e-002
3.421155e+003,1.646131e-002
3.423083e+003,1.637738e-002
3.425012e+003,1.630864e-002
3.426940e+003,1.628198e-002
3.428869e+003,1.627943e-002
3.430797e+003,1.619200e-002
3.432726e+003,1.602430e-002
3.434654e+003,1.600711e-002
3.436583e+003,1.595692e-002
3.438511e+003,1.576237e-002
3.440440e+003,1.571994e-002
3.442368e+003,1.564962e-002
3.444297e+003,1.555812e-002
3.446225e+003,1.542404e-002
3.448154e+003,1.529661e-002
3.450082e+003,1.519558e-002
3.452011e+003,1.520269e-002
3.453939e+003,1.520680e-002
3.455868e+003,1.508984e-002
3.457796e+003,1.492225e-002
3.459725e+003,1.478648e-002
3.461653e+003,1.462984e-002
3.463582e+003,1.473595e-002
3.465510e+003,1.463056e-002
3.467439e+003,1.438256e-002
3.469367e+003,1.428458e-002
3.471296e+003,1.422887e-002
3.473224e+003,1.427009e-002
3.475153e+003,1.430636e-002
3.477081e+003,1.417700e-002
3.479010e+003,1.401925e-002
3.480938e+003,1.391766e-002
3.482867e+003,1.382252e-002
3.484795e+003,1.387007e-002
3.486724e+003,1.372406e-002
3.488652e+003,1.359935e-002
3.490581e+003,1.355037e-002
3.492509e+003,1.355837e-002
3.494438e+003,1.345979e-002
3.496366e+003,1.333755e-002
3.498295e+003,1.326489e-002
3.500223e+003,1.326044e-002
3.502152e+003,1.318714e-002
3.504080e+003,1.310517e-002
3.506009e+003,1.298980e-002
3.507937e+003,1.280756e-002
3.509866e+003,1.277655e-002
3.511794e+003,1.279685e-002
3.513723e+003,1.267084e-002
3.515651e+003,1.261916e-002
3.517580e+003,1.258812e-002
3.519508e+003,1.246750e-002
3.521437e+003,1.241403e-002
3.523365e+003,1.230559e-002
3.525294e+003,1.229063e-002
3.527222e+003,1.222148e-002
3.529151e+003,1.217128e-002
3.531079e+003,1.204385e-002
3.533008e+003,1.194238e-002
3.534936e+003,1.188143e-002
3.536865e+003,1.192754e-002
3.538793e+003,1.179763e-002
3.540722e+003,1.161181e-002
3.542650e+003,1.153545e-002
3.544579e+003,1.145185e-002
3.546507e+003,1.139426e-002
3.548436e+003,1.147237e-002
3.550364e+003,1.150261e-002
3.552293e+003,1.142199e-002
3.554221e+003,1.132461e-002
3.556150e+003,1.127604e-002
3.558078e+003,1.115799e-002
3.560007e+003,1.101832e-002
3.561935e+003,1.088957e-002
3.563864e+003,1.083967e-002
3.565792e+003,1.087717e-002
3.567721e+003,1.082849e-002
3.569649e+003,1.062166e-002
3.571578e+003,1.055735e-002
3.573506e+003,1.057602e-002
3.575435e+003,1.058373e-002
3.577363e+003,1.051033e-002
3.579292e+003,1.037766e-002
3.581220e+003,1.032927e-002
3.583149e+003,1.018044e-002
3.585077e+003,1.018088e-002
3.587006e+003,1.016623e-002
3.588934e+003,1.012448e-002
3.590863e+003,9.975070e-003
3.592791e+003,9.858558e-003
3.594720e+003,9.837815e-003
3.596648e+003,9.622850e-003
3.598577e+003,9.525161e-003
3.600505e+003,9.515814e-003
3.602434e+003,9.567398e-003
3.604362e+003,9.596969e-003
3.606291e+003,9.475817e-003
3.608219e+003,9.494342e-003
3.610148e+003,9.635689e-003
3.612076e+003,9.679562e-003
3.614005e+003,9.656490e-003
3.615933e+003,9.492411e-003
3.617862e+003,9.345186e-003
3.619790e+003,9.287873e-003
3.621719e+003,9.044253e-003
3.623647e+003,8.993645e-003
3.625576e+003,9.074263e-003
3.627504e+003,9.052712e-003
3.629433e+003,9.046317e-003
3.631361e+003,9.040397e-003
3.633290e+003,9.033123e-003
3.635218e+003,9.060121e-003
3.637146e+003,9.189144e-003
3.639075e+003,9.305747e-003
3.641004e+003,9.338652e-003
3.642932e+003,9.334928e-003
3.644861e+003,9.339938e-003
3.646789e+003,9.415169e-003
3.648718e+003,9.395158e-003
3.650646e+003,9.340345e-003
3.652574e+003,9.185624e-003
3.654503e+003,9.156995e-003
3.656432e+003,9.144135e-003
3.658360e+003,9.109993e-003
3.660289e+003,9.073282e-003
3.662217e+003,9.039348e-003
3.664146e+003,9.114392e-003
3.666074e+003,9.085090e-003
3.668002e+003,9.070710e-003
3.669931e+003,9.039686e-003
3.671860e+003,9.097372e-003
3.673788e+003,9.021385e-003
3.675717e+003,8.950043e-003
3.677645e+003,8.991074e-003
3.679573e+003,8.946526e-003
3.681502e+003,8.831507e-003
3.683430e+003,8.848077e-003
3.685359e+003,8.767737e-003
3.687288e+003,8.617648e-003
3.689216e+003,8.639212e-003
3.691145e+003,8.535797e-003
3.693073e+003,8.390381e-003
3.695001e+003,8.422913e-003
3.696930e+003,8.414062e-003
3.698858e+003,8.424940e-003
3.700787e+003,8.413082e-003
3.702716e+003,8.454029e-003
3.704644e+003,8.405211e-003
3.706573e+003,8.437608e-003
3.708501e+003,8.489335e-003
3.710429e+003,8.540899e-003
3.712358e+003,8.701813e-003
3.714286e+003,8.837188e-003
3.716215e+003,8.740656e-003
3.718144e+003,8.649284e-003
3.720072e+003,8.573205e-003
3.722000e+003,8.316509e-003
3.723929e+003,8.156380e-003
3.725857e+003,8.149358e-003
3.727786e+003,8.219756e-003
3.729714e+003,8.178765e-003
3.731643e+003,8.143044e-003
3.733572e+003,8.229988e-003
3.735500e+003,8.284155e-003
3.737428e+003,8.450346e-003
3.739357e+003,8.692990e-003
3.741285e+003,8.841245e-003
3.743214e+003,8.823764e-003
3.745142e+003,8.866946e-003
3.747071e+003,8.976190e-003
3.749000e+003,9.033699e-003
3.750928e+003,8.988841e-003
3.752856e+003,9.042156e-003
3.754785e+003,9.106542e-003
3.756713e+003,9.156520e-003
3.758642e+003,9.126641e-003
3.760570e+003,9.104410e-003
3.762499e+003,9.087019e-003
3.764427e+003,9.137063e-003
3.766356e+003,9.122614e-003
3.768284e+003,9.097948e-003
3.770213e+003,9.130262e-003
3.772141e+003,9.209991e-003
3.774070e+003,9.191208e-003
3.775998e+003,9.289465e-003
3.777927e+003,9.232160e-003
3.779855e+003,9.191005e-003
3.781784e+003,9.209348e-003
3.783712e+003,9.244479e-003
3.785641e+003,9.211852e-003
3.787569e+003,9.131039e-003
3.789498e+003,9.080996e-003
3.791426e+003,9.081436e-003
3.793355e+003,9.091248e-003
3.795283e+003,9.135608e-003
3.797212e+003,9.107354e-003
3.799140e+003,9.091755e-003
3.801069e+003,9.121532e-003
3.802997e+003,9.255717e-003
3.804926e+003,9.233649e-003
3.806854e+003,9.177333e-003
3.808783e+003,9.165387e-003
3.810711e+003,9.111279e-003
3.812640e+003,9.127250e-003
3.814568e+003,9.144947e-003
3.816497e+003,9.202410e-003
3.818425e+003,9.243972e-003
3.820354e+003,9.292274e-003
3.822282e+003,9.284996e-003
3.824211e+003,9.219704e-003
3.826139e+003,9.236458e-003
3.828068e+003,9.315090e-003
3.829996e+003,9.291394e-003
3.831925e+003,9.259711e-003
3.833853e+003,9.289532e-003
3.835782e+003,9.253415e-003
3.837710e+003,9.227286e-003
3.839639e+003,9.309369e-003
3.841567e+003,9.363231e-003
3.843496e+003,9.293154e-003
3.845424e+003,9.284353e-003
3.847353e+003,9.321555e-003
3.849281e+003,9.361199e-003
3.851210e+003,9.363197e-003
3.853138e+003,9.335368e-003
3.855067e+003,9.331678e-003
3.856995e+003,9.316410e-003
3.858924e+003,9.224443e-003
3.860852e+003,9.239471e-003
3.862781e+003,9.220652e-003
3.864709e+003,9.239910e-003
3.866638e+003,9.292511e-003
3.868566e+003,9.293188e-003
3.870495e+003,9.299687e-003
3.872423e+003,9.319998e-003
3.874352e+003,9.345592e-003
3.876280e+003,9.368851e-003
3.878209e+003,9.347725e-003
3.880137e+003,9.385847e-003
3.882066e+003,9.288144e-003
3.883994e+003,9.262994e-003
3.885923e+003,9.359405e-003
3.887851e+003,9.326464e-003
3.889780e+003,9.322572e-003
3.891708e+003,9.318577e-003
3.893637e+003,9.397935e-003
3.895565e+003,9.404842e-003
3.897494e+003,9.282661e-003
3.899422e+003,9.243396e-003
3.901351e+003,9.286046e-003
3.903279e+003,9.397698e-003
3.905208e+003,9.349722e-003
3.907136e+003,9.323181e-003
3.909065e+003,9.369629e-003
3.910993e+003,9.358592e-003
3.912922e+003,9.333032e-003
3.914850e+003,9.280561e-003
3.916779e+003,9.309877e-003
3.918707e+003,9.331610e-003
3.920636e+003,9.330527e-003
3.922564e+003,9.368987e-003
3.924493e+003,9.422923e-003
3.926421e+003,9.389098e-003
3.928350e+003,9.405113e-003
3.930278e+003,9.378399e-003
3.932207e+003,9.375216e-003
3.934135e+003,9.402302e-003
3.936064e+003,9.372575e-003
3.937992e+003,9.374877e-003
3.939921e+003,9.477477e-003
3.941849e+003,9.444053e-003
3.943778e+003,9.298807e-003
3.945706e+003,9.311535e-003
3.947635e+003,9.354292e-003
3.949563e+003,9.343594e-003
3.951492e+003,9.383003e-003
3.953420e+003,9.447270e-003
3.955349e+003,9.313093e-003
3.957277e+003,9.328631e-003
3.959206e+003,9.412325e-003
3.961134e+003,9.451943e-003
3.963063e+003,9.490108e-003
3.964991e+003,9.474835e-003
3.966920e+003,9.408872e-003
3.968848e+003,9.423160e-003
3.970777e+003,9.481134e-003
3.972705e+003,9.438635e-003
3.974634e+003,9.439684e-003
3.976562e+003,9.462001e-003
3.978491e+003,9.454347e-003
3.980419e+003,9.416862e-003
3.982348e+003,9.370442e-003
3.984276e+003,9.364551e-003
3.986205e+003,9.455972e-003
3.988133e+003,9.463965e-003
3.990062e+003,9.409549e-003
3.991990e+003,9.400677e-003
3.993919e+003,9.369799e-003
3.995847e+003,9.358389e-003
3.997776e+003,9.397799e-003
3.999704e+003,9.397799e-003
4.001633e+003,0.000000e+000
