3.991989e+002,5.053182e-002
4.011274e+002,5.283825e-002
4.030559e+002,5.322812e-002
4.049844e+002,5.277950e-002
4.069129e+002,5.173947e-002
4.088414e+002,5.208782e-002
4.107699e+002,5.459470e-002
4.126984e+002,5.603490e-002
4.146269e+002,5.748365e-002
4.165554e+002,5.742128e-002
4.184839e+002,5.719391e-002
4.204124e+002,5.765510e-002
4.223409e+002,5.827862e-002
4.242694e+002,5.820000e-002
4.261979e+002,5.813405e-002
4.281264e+002,5.827339e-002
4.300549e+002,5.956595e-002
4.319834e+002,6.048818e-002
4.339119e+002,6.089569e-002
4.358404e+002,6.179870e-002
4.377689e+002,6.261111e-002
4.396974e+002,6.227731e-002
4.416259e+002,6.208220e-002
4.435544e+002,6.289894e-002
4.454829e+002,6.321283e-002
4.474114e+002,6.318757e-002
4.493399e+002,6.337110e-002
4.512684e+002,6.387026e-002
4.531969e+002,6.358313e-002
4.551254e+002,6.349009e-002
4.570539e+002,6.390592e-002
4.589824e+002,6.445254e-002
4.609109e+002,6.406909e-002
4.628394e+002,6.338482e-002
4.647679e+002,6.291553e-002
4.666964e+002,6.258666e-002
4.686249e+002,6.178159e-002
4.705533e+002,6.116724e-002
4.724819e+002,6.030681e-002
4.744103e+002,5.892562e-002
4.763389e+002,5.694198e-002
4.782673e+002,5.521749e-002
4.801959e+002,5.417296e-002
4.821243e+002,5.291969e-002
4.840529e+002,5.142231e-002
4.859813e+002,4.999603e-002
4.879099e+002,4.834289e-002
4.898383e+002,4.749638e-002
4.917668e+002,4.665045e-002
4.936953e+002,4.561242e-002
4.956238e+002,4.441998e-002
4.975523e+002,4.350152e-002
4.994808e+002,4.294218e-002
5.014093e+002,4.289357e-002
5.033378e+002,4.283908e-002
5.052663e+002,4.210277e-002
5.071948e+002,4.138545e-002
5.091233e+002,4.134506e-002
5.110518e+002,4.155368e-002
5.129803e+002,4.163966e-002
5.149088e+002,4.176561e-002
5.168373e+002,4.177684e-002
5.187658e+002,4.136686e-002
5.206943e+002,4.141646e-002
5.226228e+002,4.163522e-002
5.245513e+002,4.153129e-002
5.264798e+002,4.125961e-002
5.284083e+002,4.121032e-002
5.303368e+002,4.127878e-002
5.322653e+002,4.107980e-002
5.341938e+002,4.115145e-002
5.361223e+002,4.124558e-002
5.380508e+002,4.104764e-002
5.399792e+002,4.068404e-002
5.419078e+002,4.054918e-002
5.438363e+002,4.082372e-002
5.457648e+002,4.099112e-002
5.476932e+002,4.111976e-002
5.496218e+002,4.120445e-002
5.515503e+002,4.131281e-002
5.534788e+002,4.156035e-002
5.554072e+002,4.165593e-002
5.573358e+002,4.178472e-002
5.592643e+002,4.182540e-002
5.611927e+002,4.147679e-002
5.631212e+002,4.113309e-002
5.650497e+002,4.066007e-002
5.669783e+002,4.048563e-002
5.689067e+002,4.022518e-002
5.708352e+002,4.009409e-002
5.727637e+002,3.979915e-002
5.746923e+002,3.967708e-002
5.766207e+002,3.947634e-002
5.785492e+002,3.920394e-002
5.804777e+002,3.894741e-002
5.824063e+002,3.889360e-002
5.843347e+002,3.874214e-002
5.862632e+002,3.852271e-002
5.881917e+002,3.841294e-002
5.901202e+002,3.831504e-002
5.920487e+002,3.814733e-002
5.939772e+002,3.815713e-002
5.959057e+002,3.811784e-002
5.978342e+002,3.759610e-002
5.997627e+002,3.713557e-002
6.016912e+002,3.704214e-002
6.036197e+002,3.700022e-002
6.055482e+002,3.687262e-002
6.074767e+002,3.668095e-002
6.094052e+002,3.645794e-002
6.113337e+002,3.628526e-002
6.132622e+002,3.606187e-002
6.151907e+002,3.593782e-002
6.171192e+002,3.576369e-002
6.190477e+002,3.536441e-002
6.209762e+002,3.516381e-002
6.229047e+002,3.474634e-002
6.248332e+002,3.420268e-002
6.267617e+002,3.375512e-002
6.286902e+002,3.351352e-002
6.306187e+002,3.337843e-002
6.325472e+002,3.321412e-002
6.344756e+002,3.287324e-002
6.364042e+002,3.263268e-002
6.383326e+002,3.250575e-002
6.402612e+002,3.242948e-002
6.421896e+002,3.204135e-002
6.441182e+002,3.177511e-002
6.460466e+002,3.170585e-002
6.479752e+002,3.175789e-002
6.499036e+002,3.168938e-002
6.518322e+002,3.162958e-002
6.537606e+002,3.155984e-002
6.556891e+002,3.149051e-002
6.576177e+002,3.147886e-002
6.595461e+002,3.147035e-002
6.614746e+002,3.134632e-002
6.634031e+002,3.126203e-002
6.653317e+002,3.122557e-002
6.672601e+002,3.181982e-002
6.691886e+002,3.199266e-002
6.711171e+002,3.087117e-002
6.730457e+002,3.022117e-002
6.749741e+002,2.981424e-002
6.769026e+002,2.931818e-002
6.788311e+002,2.879787e-002
6.807596e+002,2.837604e-002
6.826881e+002,2.805908e-002
6.846166e+002,2.781721e-002
6.865451e+002,2.765443e-002
6.884736e+002,2.716442e-002
6.904021e+002,2.690059e-002
6.923306e+002,2.688773e-002
6.942591e+002,2.674030e-002
6.961876e+002,2.650895e-002
6.981161e+002,2.646176e-002
7.000446e+002,2.641644e-002
7.019731e+002,2.619259e-002
7.039016e+002,2.595470e-002
7.058301e+002,2.584420e-002
7.077585e+002,2.567322e-002
7.096871e+002,2.539385e-002
7.116156e+002,2.524866e-002
7.135441e+002,2.518264e-002
7.154725e+002,2.514865e-002
7.174011e+002,2.508493e-002
7.193296e+002,2.503003e-002
7.212581e+002,2.489327e-002
7.231865e+002,2.470380e-002
7.251151e+002,2.449197e-002
7.270436e+002,2.419746e-002
7.289720e+002,2.401011e-002
7.309005e+002,2.383334e-002
7.328290e+002,2.374647e-002
7.347576e+002,2.360074e-002
7.366860e+002,2.345880e-002
7.386145e+002,2.349590e-002
7.405430e+002,2.350153e-002
7.424716e+002,2.332606e-002
7.444000e+002,2.315495e-002
7.463285e+002,2.293368e-002
7.482570e+002,2.283344e-002
7.501855e+002,2.271458e-002
7.521140e+002,2.274401e-002
7.540425e+002,2.258629e-002
7.559710e+002,2.242964e-002
7.578995e+002,2.247901e-002
7.598280e+002,2.242228e-002
7.617565e+002,2.230116e-002
7.636850e+002,2.231710e-002
7.656135e+002,2.226900e-002
7.675420e+002,2.235313e-002
7.694705e+002,2.245117e-002
7.713990e+002,2.265642e-002
7.733275e+002,2.285544e-002
7.752560e+002,2.313741e-002
7.771844e+002,2.335186e-002
7.791130e+002,2.353753e-002
7.810415e+002,2.355974e-002
7.829700e+002,2.354652e-002
7.848984e+002,2.345533e-002
7.868270e+002,2.340616e-002
7.887555e+002,2.328606e-002
7.906840e+002,2.306752e-002
7.926124e+002,2.295443e-002
7.945410e+002,2.294894e-002
7.964695e+002,2.291726e-002
7.983979e+002,2.279052e-002
8.003264e+002,2.253478e-002
8.022549e+002,2.238683e-002
8.041835e+002,2.227709e-002
8.061119e+002,2.213963e-002
8.080404e+002,2.201241e-002
8.099689e+002,2.188325e-002
8.118975e+002,2.170770e-002
8.138259e+002,2.152452e-002
8.157545e+002,2.132489e-002
8.176830e+002,2.110806e-002
8.196115e+002,2.084656e-002
8.215399e+002,2.059665e-002
8.234684e+002,2.038827e-002
8.253970e+002,2.022106e-002
8.273254e+002,2.004531e-002
8.292539e+002,1.981639e-002
8.311824e+002,1.968098e-002
8.331110e+002,1.957809e-002
8.350394e+002,1.947097e-002
8.369679e+002,1.940250e-002
8.388964e+002,1.935091e-002
8.408250e+002,1.922022e-002
8.427534e+002,1.916179e-002
8.446819e+002,1.915892e-002
8.466104e+002,1.903289e-002
8.485389e+002,1.901441e-002
8.504674e+002,1.894234e-002
8.523959e+002,1.898661e-002
8.543244e+002,1.904573e-002
8.562529e+002,1.901776e-002
8.581814e+002,1.903469e-002
8.601099e+002,1.911294e-002
8.620384e+002,1.928253e-002
8.639669e+002,1.945166e-002
8.658954e+002,1.952094e-002
8.678239e+002,1.961030e-002
8.697524e+002,1.973635e-002
8.716809e+002,1.995944e-002
8.736094e+002,2.022814e-002
8.755378e+002,2.043398e-002
8.774664e+002,2.060916e-002
8.793949e+002,2.089255e-002
8.813234e+002,2.113178e-002
8.832518e+002,2.144880e-002
8.851804e+002,2.188336e-002
8.871089e+002,2.228191e-002
8.890374e+002,2.277544e-002
8.909658e+002,2.330994e-002
8.928943e+002,2.370077e-002
8.948229e+002,2.400790e-002
8.967513e+002,2.415798e-002
8.986798e+002,2.418590e-002
9.006083e+002,2.418292e-002
9.025369e+002,2.405578e-002
9.044653e+002,2.379796e-002
9.063938e+002,2.360529e-002
9.083223e+002,2.358101e-002
9.102509e+002,2.369832e-002
9.121793e+002,2.373115e-002
9.141078e+002,2.386982e-002
9.160364e+002,2.399267e-002
9.179648e+002,2.406348e-002
9.198933e+002,2.441524e-002
9.218218e+002,2.471520e-002
9.237504e+002,2.482710e-002
9.256788e+002,2.509961e-002
9.276073e+002,2.546644e-002
9.295358e+002,2.574933e-002
9.314644e+002,2.599213e-002
9.333928e+002,2.632029e-002
9.353213e+002,2.672895e-002
9.372498e+002,2.701965e-002
9.391783e+002,2.734417e-002
9.411068e+002,2.784378e-002
9.430353e+002,2.836263e-002
9.449637e+002,2.896501e-002
9.468923e+002,2.949570e-002
9.488208e+002,3.005531e-002
9.507493e+002,3.061325e-002
9.526777e+002,3.119830e-002
9.546063e+002,3.175618e-002
9.565348e+002,3.234769e-002
9.584633e+002,3.295885e-002
9.603917e+002,3.350150e-002
9.623203e+002,3.400172e-002
9.642488e+002,3.457488e-002
9.661772e+002,3.505008e-002
9.681057e+002,3.553270e-002
9.700343e+002,3.597695e-002
9.719628e+002,3.642378e-002
9.738912e+002,3.686393e-002
9.758197e+002,3.735496e-002
9.777483e+002,3.793854e-002
9.796768e+002,3.868835e-002
9.816052e+002,3.952540e-002
9.835337e+002,4.036842e-002
9.854623e+002,4.119145e-002
9.873907e+002,4.197928e-002
9.893192e+002,4.255868e-002
9.912477e+002,4.295293e-002
9.931763e+002,4.322132e-002
9.951047e+002,4.346849e-002
9.970332e+002,4.385227e-002
9.989617e+002,4.445481e-002
1.000890e+003,4.518002e-002
1.002819e+003,4.604084e-002
1.004747e+003,4.683170e-002
1.006676e+003,4.752873e-002
1.008604e+003,4.823717e-002
1.010533e+003,4.898100e-002
1.012461e+003,4.979261e-002
1.014390e+003,5.070930e-002
1.016318e+003,5.164322e-002
1.018247e+003,5.260582e-002
1.020175e+003,5.354087e-002
1.022104e+003,5.445758e-002
1.024032e+003,5.542814e-002
1.025961e+003,5.631048e-002
1.027889e+003,5.715838e-002
1.029818e+003,5.800944e-002
1.031746e+003,5.867455e-002
1.033675e+003,5.908208e-002
1.035603e+003,5.921368e-002
1.037532e+003,5.911556e-002
1.039460e+003,5.892479e-002
1.041389e+003,5.861865e-002
1.043317e+003,5.839364e-002
1.045246e+003,5.817500e-002
1.047174e+003,5.810719e-002
1.049103e+003,5.806841e-002
1.051031e+003,5.794458e-002
1.052960e+003,5.773036e-002
1.054888e+003,5.741663e-002
1.056817e+003,5.696480e-002
1.058745e+003,5.654163e-002
1.060674e+003,5.604015e-002
1.062602e+003,5.548484e-002
1.064531e+003,5.499127e-002
1.066459e+003,5.447929e-002
1.068388e+003,5.387312e-002
1.070316e+003,5.335609e-002
1.072245e+003,5.286025e-002
1.074173e+003,5.235732e-002
1.076102e+003,5.178333e-002
1.078030e+003,5.123243e-002
1.079959e+003,5.064957e-002
1.081887e+003,5.005611e-002
1.083816e+003,4.946124e-002
1.085744e+003,4.900704e-002
1.087673e+003,4.863004e-002
1.089601e+003,4.827560e-002
1.091530e+003,4.787864e-002
1.093458e+003,4.750928e-002
1.095387e+003,4.708857e-002
1.097315e+003,4.666823e-002
1.099244e+003,4.625692e-002
1.101172e+003,4.581865e-002
1.103101e+003,4.535311e-002
1.105029e+003,4.474558e-002
1.106958e+003,4.396782e-002
1.108886e+003,4.302236e-002
1.110815e+003,4.198446e-002
1.112743e+003,4.090294e-002
1.114672e+003,3.976578e-002
1.116600e+003,3.865988e-002
1.118529e+003,3.768257e-002
1.120457e+003,3.682277e-002
1.122386e+003,3.599030e-002
1.124314e+003,3.512605e-002
1.126243e+003,3.423050e-002
1.128171e+003,3.338552e-002
1.130100e+003,3.260221e-002
1.132028e+003,3.184998e-002
1.133957e+003,3.113717e-002
1.135885e+003,3.052957e-002
1.137814e+003,3.003965e-002
1.139742e+003,2.962509e-002
1.141671e+003,2.942011e-002
1.143599e+003,2.929709e-002
1.145528e+003,2.930297e-002
1.147456e+003,2.932616e-002
1.149385e+003,2.942567e-002
1.151313e+003,2.957174e-002
1.153242e+003,2.971070e-002
1.155170e+003,2.982517e-002
1.157099e+003,2.985229e-002
1.159027e+003,2.983681e-002
1.160956e+003,2.973937e-002
1.162884e+003,2.951730e-002
1.164813e+003,2.912808e-002
1.166741e+003,2.850771e-002
1.168670e+003,2.778835e-002
1.170598e+003,2.698764e-002
1.172526e+003,2.614670e-002
1.174455e+003,2.531405e-002
1.176384e+003,2.459719e-002
1.178312e+003,2.394761e-002
1.180240e+003,2.336193e-002
1.182169e+003,2.286040e-002
1.184098e+003,2.243732e-002
1.186026e+003,2.207994e-002
1.187954e+003,2.179562e-002
1.189883e+003,2.159308e-002
1.191812e+003,2.148633e-002
1.193740e+003,2.146620e-002
1.195668e+003,2.143101e-002
1.197597e+003,2.141945e-002
1.199526e+003,2.137984e-002
1.201454e+003,2.128901e-002
1.203382e+003,2.114256e-002
1.205311e+003,2.091181e-002
1.207240e+003,2.069286e-002
1.209168e+003,2.053203e-002
1.211096e+003,2.040213e-002
1.213025e+003,2.028206e-002
1.214953e+003,2.018944e-002
1.216882e+003,2.013352e-002
1.218810e+003,2.011076e-002
1.220739e+003,2.014758e-002
1.222667e+003,2.015567e-002
1.224596e+003,2.015497e-002
1.226524e+003,2.019256e-002
1.228453e+003,2.018187e-002
1.230381e+003,2.013206e-002
1.232310e+003,2.005659e-002
1.234238e+003,1.990452e-002
1.236167e+003,1.973653e-002
1.238095e+003,1.956152e-002
1.240024e+003,1.937603e-002
1.241952e+003,1.912204e-002
1.243881e+003,1.881118e-002
1.245809e+003,1.854532e-002
1.247738e+003,1.824327e-002
1.249666e+003,1.789695e-002
1.251595e+003,1.752576e-002
1.253523e+003,1.712232e-002
1.255452e+003,1.672693e-002
1.257380e+003,1.636062e-002
1.259309e+003,1.600587e-002
1.261237e+003,1.571468e-002
1.263166e+003,1.538294e-002
1.265094e+003,1.507114e-002
1.267023e+003,1.480513e-002
1.268951e+003,1.454455e-002
1.270880e+003,1.428971e-002
1.272808e+003,1.403834e-002
1.274737e+003,1.382297e-002
1.276665e+003,1.362725e-002
1.278594e+003,1.349420e-002
1.280522e+003,1.339708e-002
1.282451e+003,1.327571e-002
1.284379e+003,1.317741e-002
1.286308e+003,1.309623e-002
1.288236e+003,1.303480e-002
1.290165e+003,1.303374e-002
1.292093e+003,1.309165e-002
1.294022e+003,1.314045e-002
1.295950e+003,1.325682e-002
1.297879e+003,1.343997e-002
1.299807e+003,1.361939e-002
1.301736e+003,1.377053e-002
1.303664e+003,1.393203e-002
1.305593e+003,1.416026e-002
1.307521e+003,1.448288e-002
1.309450e+003,1.479327e-002
1.311378e+003,1.509183e-002
1.313307e+003,1.532874e-002
1.315235e+003,1.554377e-002
1.317164e+003,1.568586e-002
1.319092e+003,1.578972e-002
1.321021e+003,1.577694e-002
1.322949e+003,1.565199e-002
1.324878e+003,1.555143e-002
1.326806e+003,1.542256e-002
1.328735e+003,1.521555e-002
1.330663e+003,1.500237e-002
1.332592e+003,1.481737e-002
1.334520e+003,1.461980e-002
1.336449e+003,1.438160e-002
1.338377e+003,1.418560e-002
1.340306e+003,1.404433e-002
1.342234e+003,1.389361e-002
1.344163e+003,1.378572e-002
1.346091e+003,1.379482e-002
1.348020e+003,1.385697e-002
1.349948e+003,1.390497e-002
1.351877e+003,1.396693e-002
1.353805e+003,1.409194e-002
1.355734e+003,1.422866e-002
1.357662e+003,1.439718e-002
1.359591e+003,1.452050e-002
1.361519e+003,1.466517e-002
1.363448e+003,1.479772e-002
1.365376e+003,1.488261e-002
1.367305e+003,1.493542e-002
1.369233e+003,1.496886e-002
1.371162e+003,1.492904e-002
1.373090e+003,1.479827e-002
1.375019e+003,1.467936e-002
1.376947e+003,1.450416e-002
1.378876e+003,1.431725e-002
1.380804e+003,1.409591e-002
1.382733e+003,1.386556e-002
1.384661e+003,1.362120e-002
1.386590e+003,1.342062e-002
1.388518e+003,1.322232e-002
1.390447e+003,1.307232e-002
1.392375e+003,1.295491e-002
1.394304e+003,1.284852e-002
1.396232e+003,1.282381e-002
1.398161e+003,1.280303e-002
1.400089e+003,1.282207e-002
1.402018e+003,1.285227e-002
1.403946e+003,1.283859e-002
1.405875e+003,1.285804e-002
1.407803e+003,1.292221e-002
1.409732e+003,1.301182e-002
1.411660e+003,1.310582e-002
1.413589e+003,1.320056e-002
1.415517e+003,1.329252e-002
1.417446e+003,1.336093e-002
1.419374e+003,1.340627e-002
1.421303e+003,1.349041e-002
1.423231e+003,1.357683e-002
1.425160e+003,1.356595e-002
1.427088e+003,1.354107e-002
1.429017e+003,1.353926e-002
1.430945e+003,1.351748e-002
1.432874e+003,1.344844e-002
1.434802e+003,1.334346e-002
1.436731e+003,1.321945e-002
1.438659e+003,1.310108e-002
1.440588e+003,1.303016e-002
1.442516e+003,1.294365e-002
1.444445e+003,1.289340e-002
1.446373e+003,1.286896e-002
1.448302e+003,1.284429e-002
1.450230e+003,1.280971e-002
1.452159e+003,1.276638e-002
1.454087e+003,1.271619e-002
1.456016e+003,1.260078e-002
1.457944e+003,1.247548e-002
1.459873e+003,1.238103e-002
1.461801e+003,1.237582e-002
1.463730e+003,1.228115e-002
1.465658e+003,1.207908e-002
1.467587e+003,1.182626e-002
1.469515e+003,1.149234e-002
1.471444e+003,1.113250e-002
1.473372e+003,1.079554e-002
1.475301e+003,1.054143e-002
1.477229e+003,1.037189e-002
1.479158e+003,1.020334e-002
1.481086e+003,1.011885e-002
1.483015e+003,1.012736e-002
1.484943e+003,1.019163e-002
1.486872e+003,1.031044e-002
1.488800e+003,1.037145e-002
1.490729e+003,1.046519e-002
1.492657e+003,1.067558e-002
1.494586e+003,1.087163e-002
1.496514e+003,1.100279e-002
1.498443e+003,1.108895e-002
1.500371e+003,1.118424e-002
1.502300e+003,1.129250e-002
1.504228e+003,1.136926e-002
1.506157e+003,1.148465e-002
1.508085e+003,1.165571e-002
1.510014e+003,1.183978e-002
1.511942e+003,1.201214e-002
1.513871e+003,1.213942e-002
1.515799e+003,1.213049e-002
1.517728e+003,1.207595e-002
1.519656e+003,1.197907e-002
1.521585e+003,1.189324e-002
1.523513e+003,1.185997e-002
1.525442e+003,1.182442e-002
1.527370e+003,1.184193e-002
1.529299e+003,1.188691e-002
1.531227e+003,1.187833e-002
1.533156e+003,1.185057e-002
1.535084e+003,1.185616e-002
1.537013e+003,1.185847e-002
1.538941e+003,1.182987e-002
1.540870e+003,1.181026e-002
1.542798e+003,1.182463e-002
1.544727e+003,1.179937e-002
1.546655e+003,1.175364e-002
1.548584e+003,1.172103e-002
1.550512e+003,1.169724e-002
1.552441e+003,1.165251e-002
1.554369e+003,1.159108e-002
1.556298e+003,1.156597e-002
1.558226e+003,1.151197e-002
1.560155e+003,1.148417e-002
1.562083e+003,1.156444e-002
1.564012e+003,1.161579e-002
1.565940e+003,1.162661e-002
1.567869e+003,1.166208e-002
1.569797e+003,1.173363e-002
1.571726e+003,1.181309e-002
1.573654e+003,1.188551e-002
1.575583e+003,1.198799e-002
1.577511e+003,1.213840e-002
1.579440e+003,1.229254e-002
1.581368e+003,1.242314e-002
1.583297e+003,1.262414e-002
1.585225e+003,1.283964e-002
1.587154e+003,1.302801e-002
1.589082e+003,1.323612e-002
1.591010e+003,1.348258e-002
1.592939e+003,1.370224e-002
1.594868e+003,1.385420e-002
1.596796e+003,1.404803e-002
1.598724e+003,1.425534e-002
1.600653e+003,1.447065e-002
1.602582e+003,1.469725e-002
1.604510e+003,1.489781e-002
1.606438e+003,1.509711e-002
1.608367e+003,1.532177e-002
1.610296e+003,1.556279e-002
1.612224e+003,1.582989e-002
1.614152e+003,1.607659e-002
1.616081e+003,1.633840e-002
1.618010e+003,1.655833e-002
1.619938e+003,1.683614e-002
1.621866e+003,1.705546e-002
1.623795e+003,1.714193e-002
1.625724e+003,1.717430e-002
1.627652e+003,1.711694e-002
1.629580e+003,1.698189e-002
1.631509e+003,1.687303e-002
1.633438e+003,1.678506e-002
1.635366e+003,1.669353e-002
1.637294e+003,1.660016e-002
1.639223e+003,1.652839e-002
1.641151e+003,1.648722e-002
1.643080e+003,1.645911e-002
1.645008e+003,1.638306e-002
1.646937e+003,1.624985e-002
1.648865e+003,1.617835e-002
1.650794e+003,1.610489e-002
1.652722e+003,1.590193e-002
1.654651e+003,1.571303e-002
1.656579e+003,1.553484e-002
1.658508e+003,1.524531e-002
1.660436e+003,1.488224e-002
1.662365e+003,1.453815e-002
1.664293e+003,1.421237e-002
1.666222e+003,1.387958e-002
1.668150e+003,1.350439e-002
1.670079e+003,1.313707e-002
1.672007e+003,1.282197e-002
1.673936e+003,1.251282e-002
1.675864e+003,1.217476e-002
1.677793e+003,1.184169e-002
1.679721e+003,1.157914e-002
1.681650e+003,1.130781e-002
1.683578e+003,1.100524e-002
1.685507e+003,1.076347e-002
1.687435e+003,1.061113e-002
1.689364e+003,1.043502e-002
1.691292e+003,1.026345e-002
1.693221e+003,1.009049e-002
1.695149e+003,9.930353e-003
1.697078e+003,9.755055e-003
1.699006e+003,9.570107e-003
1.700935e+003,9.457327e-003
1.702863e+003,9.422009e-003
1.704792e+003,9.339024e-003
1.706720e+003,9.315327e-003
1.708649e+003,9.350942e-003
1.710577e+003,9.412833e-003
1.712506e+003,9.475106e-003
1.714434e+003,9.536305e-003
1.716363e+003,9.661810e-003
1.718291e+003,9.776133e-003
1.720220e+003,9.870421e-003
1.722148e+003,9.951473e-003
1.724077e+003,1.008297e-002
1.726005e+003,1.025097e-002
1.727934e+003,1.033046e-002
1.729862e+003,1.037345e-002
1.731791e+003,1.037803e-002
1.733719e+003,1.028924e-002
1.735648e+003,1.012312e-002
1.737576e+003,9.925980e-003
1.739505e+003,9.501217e-003
1.741433e+003,9.145015e-003
1.743362e+003,8.894847e-003
1.745290e+003,8.574151e-003
1.747219e+003,8.259097e-003
1.749147e+003,8.015210e-003
1.751076e+003,7.838422e-003
1.753004e+003,7.667407e-003
1.754933e+003,7.530542e-003
1.756861e+003,7.380475e-003
1.758790e+003,7.236659e-003
1.760718e+003,7.107508e-003
1.762647e+003,7.062176e-003
1.764575e+003,6.982435e-003
1.766504e+003,6.950820e-003
1.768432e+003,6.828048e-003
1.770361e+003,6.770225e-003
1.772289e+003,6.755956e-003
1.774218e+003,6.757336e-003
1.776146e+003,6.722135e-003
1.778075e+003,6.696191e-003
1.780003e+003,6.729875e-003
1.781932e+003,6.709786e-003
1.783860e+003,6.689731e-003
1.785789e+003,6.692355e-003
1.787717e+003,6.715203e-003
1.789646e+003,6.700566e-003
1.791574e+003,6.685525e-003
1.793503e+003,6.711670e-003
1.795431e+003,6.783620e-003
1.797360e+003,6.787793e-003
1.799288e+003,6.785370e-003
1.801217e+003,6.791529e-003
1.803145e+003,6.792236e-003
1.805074e+003,6.772581e-003
1.807002e+003,6.729640e-003
1.808931e+003,6.654738e-003
1.810859e+003,6.674387e-003
1.812788e+003,6.713924e-003
1.814716e+003,6.696427e-003
1.816645e+003,6.701138e-003
1.818573e+003,6.658708e-003
1.820502e+003,6.664125e-003
1.822430e+003,6.715843e-003
1.824359e+003,6.688890e-003
1.826287e+003,6.689664e-003
1.828216e+003,6.683338e-003
1.830144e+003,6.579143e-003
1.832073e+003,6.589874e-003
1.834001e+003,6.704031e-003
1.835930e+003,6.768139e-003
1.837858e+003,6.733510e-003
1.839787e+003,6.647504e-003
1.841715e+003,6.644981e-003
1.843644e+003,6.588999e-003
1.845572e+003,6.646966e-003
1.847501e+003,6.713790e-003
1.849429e+003,6.726375e-003
1.851358e+003,6.736875e-003
1.853286e+003,6.619714e-003
1.855215e+003,6.602725e-003
1.857143e+003,6.682967e-003
1.859072e+003,6.683842e-003
1.861000e+003,6.658405e-003
1.862929e+003,6.699522e-003
1.864857e+003,6.759658e-003
1.866786e+003,6.800852e-003
1.868714e+003,6.670148e-003
1.870643e+003,6.576687e-003
1.872571e+003,6.742225e-003
1.874500e+003,6.825793e-003
1.876428e+003,6.762215e-003
1.878357e+003,6.803444e-003
1.880285e+003,6.845147e-003
1.882214e+003,6.837068e-003
1.884142e+003,6.890086e-003
1.886071e+003,6.890120e-003
1.887999e+003,6.685558e-003
1.889928e+003,6.518024e-003
1.891856e+003,6.636435e-003
1.893785e+003,6.833837e-003
1.895713e+003,6.708439e-003
1.897642e+003,6.532419e-003
1.899570e+003,6.656925e-003
1.901499e+003,6.650330e-003
1.903427e+003,6.748956e-003
1.905356e+003,6.804756e-003
1.907284e+003,6.729404e-003
1.909213e+003,6.638185e-003
1.911141e+003,6.650061e-003
1.913070e+003,6.508303e-003
1.914998e+003,6.295719e-003
1.916927e+003,6.204456e-003
1.918855e+003,6.377653e-003
1.920784e+003,6.543250e-003
1.922712e+003,6.556302e-003
1.924641e+003,6.649456e-003
1.926569e+003,6.492428e-003
1.928498e+003,6.413128e-003
1.930426e+003,6.566797e-003
1.932355e+003,6.494849e-003
1.934283e+003,6.493807e-003
1.936212e+003,6.382798e-003
1.938140e+003,5.842954e-003
1.940069e+003,5.751585e-003
1.941997e+003,5.801716e-003
1.943926e+003,5.730063e-003
1.945854e+003,6.149237e-003
1.947783e+003,5.752391e-003
1.949711e+003,5.432229e-003
1.951640e+003,5.451857e-003
1.953568e+003,5.494101e-003
1.955497e+003,5.079046e-003
1.957425e+003,5.145764e-003
1.959354e+003,5.002216e-003
1.961282e+003,4.482062e-003
1.963211e+003,4.215895e-003
1.965139e+003,4.506200e-003
1.967068e+003,4.632604e-003
1.968996e+003,3.801056e-003
1.970925e+003,2.555278e-003
1.972853e+003,2.104497e-003
1.974782e+003,2.406021e-003
1.976710e+003,1.571870e-003
1.978639e+003,2.118281e-003
1.980567e+003,3.615986e-003
1.982496e+003,3.532500e-003
1.984424e+003,3.286277e-003
1.986353e+003,3.554314e-003
1.988281e+003,4.053691e-003
1.990210e+003,3.699823e-003
1.992138e+003,3.518904e-003
1.994067e+003,3.304773e-003
1.995995e+003,3.554815e-003
1.997924e+003,3.843241e-003
1.999852e+003,3.463625e-003
2.001781e+003,2.989313e-003
2.003709e+003,2.758536e-003
2.005638e+003,2.348984e-003
2.007566e+003,1.480032e-003
2.009495e+003,1.273683e-003
2.011423e+003,1.407360e-003
2.013352e+003,1.369101e-003
2.015280e+003,7.592671e-004
2.017208e+003,7.929252e-004
2.019137e+003,5.168340e-004
2.021066e+003,5.977516e-004
2.022994e+003,2.443660e-004
2.024922e+003,9.043221e-005
2.026851e+003,3.958339e-004
2.028780e+003,-1.143109e-005
2.030708e+003,-9.991003e-004
2.032636e+003,-1.999107e-003
2.034565e+003,-1.681804e-003
2.036494e+003,-7.521537e-004
2.038422e+003,3.796169e-004
2.040350e+003,9.513255e-004
2.042279e+003,5.216441e-004
2.044208e+003,9.570702e-004
2.046136e+003,9.602249e-004
2.048064e+003,5.079436e-004
2.049993e+003,1.260623e-003
2.051921e+003,2.361477e-003
2.053850e+003,2.501021e-003
2.055778e+003,3.033187e-003
2.057707e+003,3.278098e-003
2.059635e+003,3.684417e-003
2.061564e+003,3.658821e-003
2.063492e+003,3.356627e-003
2.065421e+003,3.692872e-003
2.067349e+003,4.062052e-003
2.069278e+003,4.022388e-003
2.071206e+003,3.888439e-003
2.073135e+003,3.987309e-003
2.075063e+003,3.967446e-003
2.076992e+003,3.844344e-003
2.078920e+003,3.997006e-003
2.080849e+003,4.297003e-003
2.082777e+003,4.495018e-003
2.084706e+003,4.448485e-003
2.086634e+003,4.673765e-003
2.088563e+003,5.049211e-003
2.090491e+003,4.737606e-003
2.092420e+003,4.500643e-003
2.094348e+003,4.567137e-003
2.096277e+003,4.774556e-003
2.098205e+003,4.624567e-003
2.100134e+003,4.817103e-003
2.102062e+003,5.079549e-003
2.103991e+003,5.079750e-003
2.105919e+003,4.905930e-003
2.107848e+003,4.961729e-003
2.109776e+003,5.314615e-003
2.111705e+003,5.258435e-003
2.113633e+003,5.313776e-003
2.115562e+003,5.610254e-003
2.117490e+003,5.412031e-003
2.119419e+003,4.829566e-003
2.121347e+003,4.867663e-003
2.123276e+003,5.223759e-003
2.125204e+003,5.136946e-003
2.127133e+003,4.890381e-003
2.129061e+003,4.929053e-003
2.130990e+003,4.466629e-003
2.132918e+003,3.631055e-003
2.134847e+003,3.037859e-003
2.136775e+003,3.206159e-003
2.138704e+003,2.778777e-003
2.140632e+003,2.914653e-003
2.142561e+003,2.760604e-003
2.144489e+003,2.438374e-003
2.146418e+003,1.942147e-003
2.148346e+003,1.305187e-003
2.150275e+003,1.147954e-003
2.152203e+003,1.062881e-003
2.154132e+003,2.228173e-004
2.156060e+003,-2.059261e-003
2.157989e+003,-3.837019e-003
2.159917e+003,-3.778916e-003
2.161846e+003,-3.566114e-003
2.163774e+003,-3.539231e-003
2.165703e+003,-1.728835e-003
2.167631e+003,7.982724e-005
2.169560e+003,-2.204511e-004
2.171488e+003,-6.209848e-004
2.173417e+003,-4.050404e-004
2.175345e+003,-8.792819e-004
2.177274e+003,-9.177160e-005
2.179202e+003,1.005788e-003
2.181131e+003,2.468556e-005
2.183059e+003,-1.434798e-004
2.184988e+003,1.082944e-003
2.186916e+003,1.385188e-003
2.188845e+003,1.769944e-003
2.190773e+003,1.935291e-003
2.192702e+003,1.718380e-003
2.194630e+003,1.543007e-003
2.196559e+003,1.502242e-003
2.198487e+003,1.919649e-003
2.200416e+003,2.335692e-003
2.202344e+003,2.295918e-003
2.204273e+003,2.183013e-003
2.206201e+003,2.368939e-003
2.208130e+003,2.663079e-003
2.210058e+003,3.261439e-003
2.211987e+003,3.354289e-003
2.213915e+003,2.943141e-003
2.215844e+003,2.707855e-003
2.217772e+003,2.534981e-003
2.219701e+003,3.484734e-003
2.221629e+003,3.867611e-003
2.223558e+003,3.355024e-003
2.225486e+003,3.472008e-003
2.227415e+003,4.051216e-003
2.229343e+003,4.534391e-003
2.231272e+003,4.730371e-003
2.233200e+003,4.662980e-003
2.235129e+003,4.745478e-003
2.237057e+003,4.809833e-003
2.238986e+003,4.543431e-003
2.240914e+003,4.418861e-003
2.242843e+003,4.737640e-003
2.244771e+003,4.851043e-003
2.246700e+003,4.889242e-003
2.248628e+003,5.116259e-003
2.250557e+003,5.466553e-003
2.252485e+003,5.598809e-003
2.254414e+003,5.411193e-003
2.256342e+003,5.279934e-003
2.258271e+003,5.639356e-003
2.260199e+003,5.924232e-003
2.262128e+003,5.949022e-003
2.264056e+003,6.044498e-003
2.265985e+003,5.924199e-003
2.267913e+003,6.096512e-003
2.269842e+003,6.094428e-003
2.271770e+003,6.206775e-003
2.273699e+003,6.357345e-003
2.275627e+003,6.365549e-003
2.277556e+003,6.317840e-003
2.279484e+003,6.451734e-003
2.281413e+003,6.438988e-003
2.283341e+003,6.654401e-003
2.285270e+003,6.783451e-003
2.287198e+003,6.803645e-003
2.289127e+003,7.125326e-003
2.291055e+003,7.220488e-003
2.292984e+003,7.397327e-003
2.294912e+003,7.625018e-003
2.296841e+003,7.652502e-003
2.298769e+003,7.774360e-003
2.300698e+003,7.902124e-003
2.302626e+003,8.012475e-003
2.304555e+003,8.224822e-003
2.306483e+003,8.419805e-003
2.308412e+003,8.586352e-003
2.310340e+003,8.973924e-003
2.312269e+003,9.147790e-003
2.314197e+003,9.147824e-003
2.316125e+003,9.271524e-003
2.318054e+003,9.827918e-003
2.319983e+003,1.037885e-002
2.321911e+003,1.058295e-002
2.323840e+003,1.091488e-002
2.325768e+003,1.139777e-002
2.327697e+003,1.153637e-002
2.329625e+003,1.161358e-002
2.331553e+003,1.184952e-002
2.333482e+003,1.186362e-002
2.335411e+003,1.197842e-002
2.337339e+003,1.222301e-002
2.339268e+003,1.220301e-002
2.341196e+003,1.233978e-002
2.343125e+003,1.237510e-002
2.345053e+003,1.199398e-002
2.346981e+003,1.114507e-002
2.348910e+003,1.100374e-002
2.350839e+003,1.183147e-002
2.352767e+003,1.258788e-002
2.354696e+003,1.304774e-002
2.356624e+003,1.354777e-002
2.358552e+003,1.350760e-002
2.360481e+003,1.297348e-002
2.362409e+003,1.272959e-002
2.364338e+003,1.226067e-002
2.366267e+003,1.199381e-002
2.368195e+003,1.176815e-002
2.370124e+003,1.123711e-002
2.372052e+003,1.059843e-002
2.373980e+003,9.969577e-003
2.375909e+003,9.389402e-003
2.377838e+003,9.033867e-003
2.379766e+003,8.686365e-003
2.381695e+003,8.173397e-003
2.383623e+003,7.754256e-003
2.385552e+003,7.512978e-003
2.387480e+003,7.311965e-003
2.389408e+003,7.167262e-003
2.391337e+003,7.064163e-003
2.393266e+003,7.039748e-003
2.395194e+003,7.047223e-003
2.397123e+003,7.020216e-003
2.399051e+003,7.059448e-003
2.400979e+003,7.025873e-003
2.402908e+003,7.023179e-003
2.404836e+003,7.056181e-003
2.406765e+003,7.105959e-003
2.408694e+003,7.049008e-003
2.410622e+003,7.067295e-003
2.412551e+003,7.183768e-003
2.414479e+003,7.292926e-003
2.416407e+003,7.264489e-003
2.418336e+003,7.258559e-003
2.420264e+003,7.244206e-003
2.422193e+003,7.228203e-003
2.424122e+003,7.170091e-003
2.426050e+003,7.213110e-003
2.427979e+003,7.250506e-003
2.429907e+003,7.182959e-003
2.431835e+003,7.201555e-003
2.433764e+003,7.182825e-003
2.435692e+003,7.206945e-003
2.437621e+003,7.134453e-003
2.439550e+003,7.083090e-003
2.441478e+003,7.215064e-003
2.443406e+003,7.193537e-003
2.445335e+003,7.126167e-003
2.447263e+003,7.110203e-003
2.449192e+003,7.219679e-003
2.451121e+003,7.180298e-003
2.453049e+003,7.143211e-003
2.454978e+003,7.137889e-003
2.456906e+003,7.071067e-003
2.458834e+003,7.044428e-003
2.460763e+003,7.091779e-003
2.462691e+003,7.205193e-003
2.464620e+003,7.185991e-003
2.466549e+003,7.066554e-003
2.468477e+003,7.058067e-003
2.470406e+003,7.295892e-003
2.472334e+003,7.301350e-003
2.474262e+003,7.145771e-003
2.476191e+003,7.126875e-003
2.478119e+003,7.174774e-003
2.480048e+003,7.130108e-003
2.481977e+003,7.101378e-003
2.483905e+003,6.999507e-003
2.485833e+003,7.099694e-003
2.487762e+003,7.177435e-003
2.489690e+003,7.095451e-003
2.491619e+003,7.108586e-003
2.493547e+003,7.125932e-003
2.495476e+003,7.139034e-003
2.497405e+003,7.143750e-003
2.499333e+003,7.100031e-003
2.501261e+003,7.057596e-003
2.503190e+003,7.040724e-003
2.505118e+003,7.058236e-003
2.507047e+003,7.088142e-003
2.508975e+003,7.244173e-003
2.510904e+003,7.201757e-003
2.512833e+003,7.261524e-003
2.514761e+003,7.344079e-003
2.516689e+003,7.456952e-003
2.518618e+003,7.395338e-003
2.520546e+003,7.377240e-003
2.522475e+003,7.413505e-003
2.524403e+003,7.284638e-003
2.526332e+003,7.238209e-003
2.528260e+003,7.178378e-003
2.530189e+003,7.213043e-003
2.532117e+003,7.291814e-003
2.534046e+003,7.283054e-003
2.535974e+003,7.270924e-003
2.537903e+003,7.226653e-003
2.539831e+003,7.149981e-003
2.541760e+003,7.135632e-003
2.543688e+003,7.258626e-003
2.545617e+003,7.268801e-003
2.547545e+003,7.192089e-003
2.549474e+003,7.194009e-003
2.551402e+003,7.219882e-003
2.553331e+003,7.222644e-003
2.555259e+003,7.240231e-003
2.557188e+003,7.291680e-003
2.559116e+003,7.261659e-003
2.561045e+003,7.210246e-003
2.562973e+003,7.208259e-003
2.564902e+003,7.180399e-003
2.566830e+003,7.178075e-003
2.568759e+003,7.200645e-003
2.570687e+003,7.370938e-003
2.572616e+003,7.387115e-003
2.574544e+003,7.267184e-003
2.576473e+003,7.198927e-003
2.578401e+003,7.206069e-003
2.580330e+003,7.211931e-003
2.582258e+003,7.165207e-003
2.584187e+003,7.167565e-003
2.586115e+003,7.179422e-003
2.588044e+003,7.190607e-003
2.589972e+003,7.119903e-003
2.591901e+003,7.053892e-003
2.593829e+003,7.074199e-003
2.595758e+003,7.190640e-003
2.597686e+003,7.230797e-003
2.599615e+003,7.290703e-003
2.601543e+003,7.286996e-003
2.603472e+003,7.228304e-003
2.605400e+003,7.143144e-003
2.607329e+003,7.198321e-003
2.609257e+003,7.254785e-003
2.611186e+003,7.250237e-003
2.613114e+003,7.301519e-003
2.615043e+003,7.359951e-003
2.616971e+003,7.337979e-003
2.618900e+003,7.371645e-003
2.620828e+003,7.372185e-003
2.622757e+003,7.429986e-003
2.624685e+003,7.528149e-003
2.626614e+003,7.570292e-003
2.628542e+003,7.520563e-003
2.630471e+003,7.540791e-003
2.632399e+003,7.629469e-003
2.634328e+003,7.683123e-003
2.636256e+003,7.637495e-003
2.638185e+003,7.748927e-003
2.640113e+003,7.815853e-003
2.642042e+003,7.757056e-003
2.643970e+003,7.831169e-003
2.645899e+003,7.935631e-003
2.647827e+003,7.951424e-003
2.649756e+003,7.942786e-003
2.651684e+003,7.953010e-003
2.653613e+003,7.986016e-003
2.655541e+003,8.062328e-003
2.657470e+003,8.099832e-003
2.659398e+003,8.160397e-003
2.661327e+003,8.151856e-003
2.663255e+003,8.175219e-003
2.665184e+003,8.233331e-003
2.667112e+003,8.211720e-003
2.669041e+003,8.176638e-003
2.670969e+003,8.233803e-003
2.672898e+003,8.317827e-003
2.674826e+003,8.308877e-003
2.676755e+003,8.254402e-003
2.678683e+003,8.254909e-003
2.680612e+003,8.308201e-003
2.682540e+003,8.306074e-003
2.684469e+003,8.304249e-003
2.686397e+003,8.265648e-003
2.688326e+003,8.326069e-003
2.690254e+003,8.404502e-003
2.692183e+003,8.380957e-003
2.694111e+003,8.398353e-003
2.696040e+003,8.398759e-003
2.697968e+003,8.367411e-003
2.699897e+003,8.383017e-003
2.701825e+003,8.395448e-003
2.703754e+003,8.389571e-003
2.705682e+003,8.435142e-003
2.707611e+003,8.434569e-003
2.709539e+003,8.407745e-003
2.711468e+003,8.435177e-003
2.713396e+003,8.487139e-003
2.715325e+003,8.490045e-003
2.717253e+003,8.503729e-003
2.719182e+003,8.484740e-003
2.721110e+003,8.457812e-003
2.723039e+003,8.422643e-003
2.724967e+003,8.481969e-003
2.726896e+003,8.534444e-003
2.728824e+003,8.531167e-003
2.730753e+003,8.533938e-003
2.732681e+003,8.546982e-003
2.734610e+003,8.545563e-003
2.736538e+003,8.548300e-003
2.738467e+003,8.537453e-003
2.740395e+003,8.537385e-003
2.742324e+003,8.522956e-003
2.744252e+003,8.580032e-003
2.746181e+003,8.605109e-003
2.748109e+003,8.617580e-003
2.750038e+003,8.637453e-003
2.751966e+003,8.604162e-003
2.753895e+003,8.590137e-003
2.755823e+003,8.678082e-003
2.757752e+003,8.706275e-003
2.759680e+003,8.707763e-003
2.761609e+003,8.705228e-003
2.763537e+003,8.658207e-003
2.765466e+003,8.636609e-003
2.767394e+003,8.676630e-003
2.769323e+003,8.735112e-003
2.771251e+003,8.801176e-003
2.773180e+003,8.810948e-003
2.775108e+003,8.789883e-003
2.777037e+003,8.805944e-003
2.778965e+003,8.836985e-003
2.780894e+003,8.861637e-003
2.782822e+003,8.880169e-003
2.784750e+003,8.892952e-003
2.786679e+003,8.901678e-003
2.788608e+003,8.959955e-003
2.790536e+003,8.938983e-003
2.792465e+003,8.997129e-003
2.794393e+003,9.006060e-003
2.796322e+003,8.982584e-003
2.798250e+003,9.009578e-003
2.800178e+003,9.064959e-003
2.802107e+003,9.097406e-003
2.804036e+003,9.102312e-003
2.805964e+003,9.145522e-003
2.807893e+003,9.166909e-003
2.809821e+003,9.179397e-003
2.811750e+003,9.220348e-003
2.813678e+003,9.211481e-003
2.815606e+003,9.239809e-003
2.817535e+003,9.330764e-003
2.819464e+003,9.405926e-003
2.821392e+003,9.386287e-003
2.823321e+003,9.403082e-003
2.825249e+003,9.436908e-003
2.827177e+003,9.544264e-003
2.829106e+003,9.580574e-003
2.831034e+003,9.590770e-003
2.832963e+003,9.633657e-003
2.834892e+003,9.738858e-003
2.836820e+003,9.821885e-003
2.838749e+003,9.910488e-003
2.840677e+003,1.003580e-002
2.842605e+003,1.021843e-002
2.844534e+003,1.042894e-002
2.846462e+003,1.070414e-002
2.848391e+003,1.093660e-002
2.850320e+003,1.098070e-002
2.852248e+003,1.090255e-002
2.854177e+003,1.078426e-002
2.856105e+003,1.069198e-002
2.858033e+003,1.064675e-002
2.859962e+003,1.058251e-002
2.861890e+003,1.050843e-002
2.863819e+003,1.055039e-002
2.865748e+003,1.058784e-002
2.867676e+003,1.053325e-002
2.869604e+003,1.052721e-002
2.871533e+003,1.056187e-002
2.873461e+003,1.055036e-002
2.875390e+003,1.054849e-002
2.877319e+003,1.057908e-002
2.879247e+003,1.062315e-002
2.881176e+003,1.064950e-002
2.883104e+003,1.066431e-002
2.885032e+003,1.069436e-002
2.886961e+003,1.076979e-002
2.888889e+003,1.077543e-002
2.890818e+003,1.082543e-002
2.892747e+003,1.088685e-002
2.894675e+003,1.087941e-002
2.896604e+003,1.090303e-002
2.898532e+003,1.093694e-002
2.900460e+003,1.094343e-002
2.902389e+003,1.095984e-002
2.904317e+003,1.097136e-002
2.906246e+003,1.103848e-002
2.908175e+003,1.110387e-002
2.910103e+003,1.119049e-002
2.912031e+003,1.134801e-002
2.913960e+003,1.154957e-002
2.915888e+003,1.177128e-002
2.917817e+003,1.184693e-002
2.919745e+003,1.169087e-002
2.921674e+003,1.151394e-002
2.923603e+003,1.142906e-002
2.925531e+003,1.131039e-002
2.927459e+003,1.116901e-002
2.929388e+003,1.098859e-002
2.931316e+003,1.092199e-002
2.933245e+003,1.084812e-002
2.935173e+003,1.072730e-002
2.937102e+003,1.063140e-002
2.939031e+003,1.052924e-002
2.940959e+003,1.043814e-002
2.942887e+003,1.032985e-002
2.944816e+003,1.019526e-002
2.946744e+003,1.008456e-002
2.948673e+003,1.003458e-002
2.950601e+003,9.913030e-003
2.952530e+003,9.866218e-003
2.954458e+003,9.844594e-003
2.956387e+003,9.805075e-003
2.958315e+003,9.712258e-003
2.960244e+003,9.601203e-003
2.962172e+003,9.544975e-003
2.964101e+003,9.556186e-003
2.966029e+003,9.529700e-003
2.967958e+003,9.424041e-003
2.969886e+003,9.370984e-003
2.971815e+003,9.302666e-003
2.973743e+003,9.257816e-003
2.975672e+003,9.224714e-003
2.977600e+003,9.208772e-003
2.979529e+003,9.252569e-003
2.981457e+003,9.214188e-003
2.983386e+003,9.119095e-003
2.985314e+003,9.098895e-003
2.987243e+003,9.109553e-003
2.989171e+003,9.072673e-003
2.991100e+003,9.089489e-003
2.993028e+003,9.042021e-003
2.994957e+003,8.994727e-003
2.996885e+003,9.000884e-003
2.998814e+003,9.028928e-003
3.000742e+003,9.031229e-003
3.002671e+003,9.015802e-003
3.004599e+003,9.038096e-003
3.006528e+003,9.076327e-003
3.008456e+003,9.168026e-003
3.010385e+003,9.150598e-003
3.012313e+003,9.110636e-003
3.014242e+003,9.136183e-003
3.016170e+003,9.172459e-003
3.018099e+003,9.128773e-003
3.020027e+003,9.094834e-003
3.021956e+003,9.107895e-003
3.023884e+003,9.197266e-003
3.025813e+003,9.232092e-003
3.027741e+003,9.209145e-003
3.029670e+003,9.190700e-003
3.031598e+003,9.206945e-003
3.033527e+003,9.190362e-003
3.035455e+003,9.245359e-003
3.037384e+003,9.328631e-003
3.039312e+003,9.321759e-003
3.041241e+003,9.289904e-003
3.043169e+003,9.257071e-003
3.045098e+003,9.317629e-003
3.047026e+003,9.387202e-003
3.048955e+003,9.391028e-003
3.050883e+003,9.470771e-003
3.052812e+003,9.506737e-003
3.054740e+003,9.536846e-003
3.056669e+003,9.541757e-003
3.058597e+003,9.519675e-003
3.060526e+003,9.578406e-003
3.062454e+003,9.521605e-003
3.064383e+003,9.559980e-003
3.066311e+003,9.661200e-003
3.068240e+003,9.644599e-003
3.070168e+003,9.639687e-003
3.072097e+003,9.687288e-003
3.074025e+003,9.758885e-003
3.075954e+003,9.771084e-003
3.077882e+003,9.769017e-003
3.079811e+003,9.799009e-003
3.081739e+003,9.833781e-003
3.083668e+003,9.874387e-003
3.085596e+003,9.845000e-003
3.087525e+003,9.846017e-003
3.089453e+003,9.928862e-003
3.091382e+003,9.912691e-003
3.093310e+003,9.892556e-003
3.095239e+003,9.952897e-003
3.097167e+003,1.007069e-002
3.099096e+003,1.006818e-002
3.101024e+003,1.004393e-002
3.102953e+003,1.013777e-002
3.104881e+003,1.018841e-002
3.106810e+003,1.017701e-002
3.108738e+003,1.018614e-002
3.110667e+003,1.017332e-002
3.112595e+003,1.021619e-002
3.114524e+003,1.020106e-002
3.116452e+003,1.025538e-002
3.118381e+003,1.024106e-002
3.120309e+003,1.026715e-002
3.122238e+003,1.031092e-002
3.124166e+003,1.033195e-002
3.126095e+003,1.036572e-002
3.128023e+003,1.046634e-002
3.129952e+003,1.044693e-002
3.131880e+003,1.045555e-002
3.133809e+003,1.051614e-002
3.135737e+003,1.054754e-002
3.137666e+003,1.054007e-002
3.139594e+003,1.056798e-002
3.141523e+003,1.069922e-002
3.143451e+003,1.074116e-002
3.145380e+003,1.077105e-002
3.147308e+003,1.087275e-002
3.149237e+003,1.090775e-002
3.151165e+003,1.090513e-002
3.153094e+003,1.088519e-002
3.155022e+003,1.088950e-002
3.156951e+003,1.093296e-002
3.158879e+003,1.099423e-002
3.160808e+003,1.102155e-002
3.162736e+003,1.101832e-002
3.164665e+003,1.108640e-002
3.166593e+003,1.117921e-002
3.168522e+003,1.118675e-002
3.170450e+003,1.117785e-002
3.172379e+003,1.119471e-002
3.174307e+003,1.133634e-002
3.176236e+003,1.139304e-002
3.178164e+003,1.136760e-002
3.180093e+003,1.139464e-002
3.182021e+003,1.140270e-002
3.183950e+003,1.148438e-002
3.185878e+003,1.151673e-002
3.187807e+003,1.150673e-002
3.189735e+003,1.150585e-002
3.191664e+003,1.162661e-002
3.193592e+003,1.168672e-002
3.195521e+003,1.167532e-002
3.197449e+003,1.172130e-002
3.199378e+003,1.176369e-002
3.201306e+003,1.185776e-002
3.203235e+003,1.188670e-002
3.205163e+003,1.182555e-002
3.207092e+003,1.191231e-002
3.209020e+003,1.202164e-002
3.210948e+003,1.207366e-002
3.212877e+003,1.206818e-002
3.214806e+003,1.212511e-002
3.216734e+003,1.216538e-002
3.218663e+003,1.220529e-002
3.220591e+003,1.228398e-002
3.222520e+003,1.228695e-002
3.224448e+003,1.229036e-002
3.226376e+003,1.235431e-002
3.228305e+003,1.243156e-002
3.230234e+003,1.246671e-002
3.232162e+003,1.245543e-002
3.234091e+003,1.241417e-002
3.236019e+003,1.256196e-002
3.237948e+003,1.263656e-002
3.239876e+003,1.265710e-002
3.241804e+003,1.274362e-002
3.243733e+003,1.277218e-002
3.245662e+003,1.284060e-002
3.247590e+003,1.287377e-002
3.249519e+003,1.288152e-002
3.251447e+003,1.289610e-002
3.253375e+003,1.294757e-002
3.255304e+003,1.305030e-002
3.257232e+003,1.307700e-002
3.259161e+003,1.309264e-002
3.261090e+003,1.315633e-002
3.263018e+003,1.315985e-002
3.264947e+003,1.320425e-002
3.266875e+003,1.324302e-002
3.268803e+003,1.327530e-002
3.270732e+003,1.330561e-002
3.272660e+003,1.335597e-002
3.274589e+003,1.340911e-002
3.276518e+003,1.341884e-002
3.278446e+003,1.349496e-002
3.280375e+003,1.357809e-002
3.282303e+003,1.350443e-002
3.284231e+003,1.337900e-002
3.286160e+003,1.337514e-002
3.288088e+003,1.340131e-002
3.290017e+003,1.340893e-002
3.291946e+003,1.340538e-002
3.293874e+003,1.341239e-002
3.295802e+003,1.346245e-002
3.297731e+003,1.347947e-002
3.299659e+003,1.344960e-002
3.301588e+003,1.332283e-002
3.303516e+003,1.334018e-002
3.305445e+003,1.335857e-002
3.307374e+003,1.334227e-002
3.309302e+003,1.333482e-002
3.311230e+003,1.339738e-002
3.313159e+003,1.342172e-002
3.315087e+003,1.345948e-002
3.317016e+003,1.341146e-002
3.318944e+003,1.340606e-002
3.320873e+003,1.340685e-002
3.322802e+003,1.347066e-002
3.324730e+003,1.343699e-002
3.326658e+003,1.343211e-002
3.328587e+003,1.339188e-002
3.330515e+003,1.337176e-002
3.332444e+003,1.342021e-002
3.334372e+003,1.337774e-002
3.336301e+003,1.339182e-002
3.338229e+003,1.341016e-002
3.340158e+003,1.339506e-002
3.342086e+003,1.334329e-002
3.344015e+003,1.334763e-002
3.345943e+003,1.327599e-002
3.347872e+003,1.322936e-002
3.349800e+003,1.328743e-002
3.351729e+003,1.317918e-002
3.353657e+003,1.312751e-002
3.355586e+003,1.319513e-002
3.357514e+003,1.317758e-002
3.359443e+003,1.314923e-002
3.361371e+003,1.311617e-002
3.363300e+003,1.303702e-002
3.365229e+003,1.299502e-002
3.367157e+003,1.298362e-002
3.369085e+003,1.300462e-002
3.371014e+003,1.309582e-002
3.372942e+003,1.301414e-002
3.374871e+003,1.288773e-002
3.376799e+003,1.281255e-002
3.378728e+003,1.283296e-002
3.380656e+003,1.278477e-002
3.382585e+003,1.278600e-002
3.384513e+003,1.275519e-002
3.386442e+003,1.273301e-002
3.388370e+003,1.270633e-002
3.390299e+003,1.268449e-002
3.392227e+003,1.257448e-002
3.394156e+003,1.253526e-002
3.396084e+003,1.256964e-002
3.398013e+003,1.256268e-002
3.399941e+003,1.262670e-002
3.401870e+003,1.258570e-002
3.403798e+003,1.247343e-002
3.405727e+003,1.245379e-002
3.407655e+003,1.241717e-002
3.409584e+003,1.228944e-002
3.411512e+003,1.227127e-002
3.413441e+003,1.228698e-002
3.415369e+003,1.223330e-002
3.417298e+003,1.214859e-002
3.419226e+003,1.212991e-002
3.421155e+003,1.205152e-002
3.423083e+003,1.196217e-002
3.425012e+003,1.184438e-002
3.426940e+003,1.180502e-002
3.428869e+003,1.177873e-002
3.430797e+003,1.174591e-002
3.432726e+003,1.166977e-002
3.434654e+003,1.153732e-002
3.436583e+003,1.149231e-002
3.438511e+003,1.143519e-002
3.440440e+003,1.137028e-002
3.442368e+003,1.135358e-002
3.444297e+003,1.140205e-002
3.446225e+003,1.135406e-002
3.448154e+003,1.118652e-002
3.450082e+003,1.105112e-002
3.452011e+003,1.095675e-002
3.453939e+003,1.090292e-002
3.455868e+003,1.084734e-002
3.457796e+003,1.079547e-002
3.459725e+003,1.071548e-002
3.461653e+003,1.063466e-002
3.463582e+003,1.061317e-002
3.465510e+003,1.055195e-002
3.467439e+003,1.056499e-002
3.469367e+003,1.044072e-002
3.471296e+003,1.037301e-002
3.473224e+003,1.037081e-002
3.475153e+003,1.029188e-002
3.477081e+003,1.021199e-002
3.479010e+003,1.014537e-002
3.480938e+003,1.012237e-002
3.482867e+003,1.015788e-002
3.484795e+003,1.011685e-002
3.486724e+003,9.997685e-003
3.488652e+003,9.843204e-003
3.490581e+003,9.742789e-003
3.492509e+003,9.784876e-003
3.494438e+003,9.791011e-003
3.496366e+003,9.685762e-003
3.498295e+003,9.668043e-003
3.500223e+003,9.567363e-003
3.502152e+003,9.551207e-003
3.504080e+003,9.515576e-003
3.506009e+003,9.469281e-003
3.507937e+003,9.302903e-003
3.509866e+003,9.228098e-003
3.511794e+003,9.184744e-003
3.513723e+003,9.150565e-003
3.515651e+003,9.107659e-003
3.517580e+003,9.105121e-003
3.519508e+003,9.002914e-003
3.521437e+003,8.943820e-003
3.523365e+003,8.819436e-003
3.525294e+003,8.867251e-003
3.527222e+003,8.907530e-003
3.529151e+003,8.808210e-003
3.531079e+003,8.627348e-003
3.533008e+003,8.469096e-003
3.534936e+003,8.404367e-003
3.536865e+003,8.388591e-003
3.538793e+003,8.427440e-003
3.540722e+003,8.437778e-003
3.542650e+003,8.349036e-003
3.544579e+003,8.276252e-003
3.546507e+003,8.254842e-003
3.548436e+003,8.193115e-003
3.550364e+003,8.151350e-003
3.552293e+003,8.118028e-003
3.554221e+003,8.077586e-003
3.556150e+003,8.012982e-003
3.558078e+003,7.860150e-003
3.560007e+003,7.869496e-003
3.561935e+003,7.858058e-003
3.563864e+003,7.799694e-003
3.565792e+003,7.726867e-003
3.567721e+003,7.671589e-003
3.569649e+003,7.677693e-003
3.571578e+003,7.575687e-003
3.573506e+003,7.496358e-003
3.575435e+003,7.566651e-003
3.577363e+003,7.534285e-003
3.579292e+003,7.373162e-003
3.581220e+003,7.302294e-003
3.583149e+003,7.391192e-003
3.585077e+003,7.503741e-003
3.587006e+003,7.547298e-003
3.588934e+003,7.517900e-003
3.590863e+003,7.357794e-003
3.592791e+003,7.282245e-003
3.594720e+003,7.329656e-003
3.596648e+003,7.347449e-003
3.598577e+003,7.268026e-003
3.600505e+003,7.140685e-003
3.602434e+003,7.069147e-003
3.604362e+003,7.071909e-003
3.606291e+003,7.016041e-003
3.608219e+003,6.926175e-003
3.610148e+003,6.830235e-003
3.612076e+003,6.722405e-003
3.614005e+003,6.685424e-003
3.615933e+003,6.695787e-003
3.617862e+003,6.801693e-003
3.619790e+003,6.812430e-003
3.621719e+003,6.819296e-003
3.623647e+003,6.864906e-003
3.625576e+003,6.868104e-003
3.627504e+003,6.822326e-003
3.629433e+003,6.721496e-003
3.631361e+003,6.666985e-003
3.633290e+003,6.543688e-003
3.635218e+003,6.516241e-003
3.637146e+003,6.500265e-003
3.639075e+003,6.516476e-003
3.641004e+003,6.489636e-003
3.642932e+003,6.318176e-003
3.644861e+003,6.142381e-003
3.646789e+003,6.185533e-003
3.648718e+003,6.306645e-003
3.650646e+003,6.180862e-003
3.652574e+003,6.150044e-003
3.654503e+003,6.222841e-003
3.656432e+003,6.194036e-003
3.658360e+003,6.254270e-003
3.660289e+003,6.228253e-003
3.662217e+003,6.162915e-003
3.664146e+003,6.024003e-003
3.666074e+003,6.103501e-003
3.668002e+003,6.100510e-003
3.669931e+003,6.006500e-003
3.671860e+003,5.903777e-003
3.673788e+003,5.973342e-003
3.675717e+003,6.137273e-003
3.677645e+003,6.077627e-003
3.679573e+003,5.985738e-003
3.681502e+003,6.075208e-003
3.683430e+003,6.151925e-003
3.685359e+003,6.150010e-003
3.687288e+003,6.123461e-003
3.689216e+003,6.071310e-003
3.691145e+003,6.041239e-003
3.693073e+003,6.107029e-003
3.695001e+003,6.133879e-003
3.696930e+003,6.169972e-003
3.698858e+003,6.283482e-003
3.700787e+003,6.281095e-003
3.702716e+003,6.214875e-003
3.704644e+003,6.149271e-003
3.706573e+003,6.159487e-003
3.708501e+003,6.271111e-003
3.710429e+003,6.130686e-003
3.712358e+003,6.016175e-003
3.714286e+003,6.032403e-003
3.716215e+003,6.093957e-003
3.718144e+003,6.118185e-003
3.720072e+003,6.088548e-003
3.722000e+003,6.245059e-003
3.723929e+003,6.253598e-003
3.725857e+003,6.229328e-003
3.727786e+003,6.251816e-003
3.729714e+003,6.284927e-003
3.731643e+003,6.247749e-003
3.733572e+003,6.220825e-003
3.735500e+003,6.125074e-003
3.737428e+003,6.035729e-003
3.739357e+003,5.975761e-003
3.741285e+003,5.919832e-003
3.743214e+003,5.972167e-003
3.745142e+003,6.025549e-003
3.747071e+003,5.967128e-003
3.749000e+003,5.781334e-003
3.750928e+003,5.675274e-003
3.752856e+003,5.794832e-003
3.754785e+003,5.905456e-003
3.756713e+003,5.886211e-003
3.758642e+003,5.885371e-003
3.760570e+003,5.908311e-003
3.762499e+003,5.957050e-003
3.764427e+003,5.901392e-003
3.766356e+003,5.920974e-003
3.768284e+003,5.972032e-003
3.770213e+003,5.908345e-003
3.772141e+003,5.914458e-003
3.774070e+003,5.944386e-003
3.775998e+003,5.967598e-003
3.777927e+003,5.947309e-003
3.779855e+003,6.059550e-003
3.781784e+003,6.041810e-003
3.783712e+003,5.889267e-003
3.785641e+003,5.846615e-003
3.787569e+003,5.947409e-003
3.789498e+003,6.048832e-003
3.791426e+003,6.026590e-003
3.793355e+003,5.974887e-003
3.795283e+003,5.897832e-003
3.797212e+003,5.944756e-003
3.799140e+003,5.965381e-003
3.801069e+003,5.928263e-003
3.802997e+003,5.956177e-003
3.804926e+003,6.016478e-003
3.806854e+003,5.989803e-003
3.808783e+003,6.006466e-003
3.810711e+003,6.034116e-003
3.812640e+003,6.016209e-003
3.814568e+003,6.033041e-003
3.816497e+003,6.076821e-003
3.818425e+003,6.053435e-003
3.820354e+003,6.011405e-003
3.822282e+003,5.995111e-003
3.824211e+003,5.999747e-003
3.826139e+003,6.000318e-003
3.828068e+003,6.042348e-003
3.829996e+003,6.048261e-003
3.831925e+003,6.047186e-003
3.833853e+003,6.075342e-003
3.835782e+003,6.068689e-003
3.837710e+003,6.089791e-003
3.839639e+003,6.083339e-003
3.841567e+003,6.085255e-003
3.843496e+003,6.096344e-003
3.845424e+003,6.016108e-003
3.847353e+003,5.906565e-003
3.849281e+003,6.009893e-003
3.851210e+003,6.049101e-003
3.853138e+003,5.949156e-003
3.855067e+003,5.996320e-003
3.856995e+003,6.061499e-003
3.858924e+003,6.129745e-003
3.860852e+003,6.188962e-003
3.862781e+003,6.120740e-003
3.864709e+003,6.057501e-003
3.866638e+003,6.099670e-003
3.868566e+003,6.103938e-003
3.870495e+003,6.120975e-003
3.872423e+003,6.182845e-003
3.874352e+003,6.209968e-003
3.876280e+003,6.154748e-003
3.878209e+003,6.093554e-003
3.880137e+003,6.112977e-003
3.882066e+003,6.160092e-003
3.883994e+003,6.170880e-003
3.885923e+003,6.167687e-003
3.887851e+003,6.113246e-003
3.889780e+003,6.067749e-003
3.891708e+003,6.082802e-003
3.893637e+003,6.090262e-003
3.895565e+003,6.148834e-003
3.897494e+003,6.168931e-003
3.899422e+003,6.192322e-003
3.901351e+003,6.187617e-003
3.903279e+003,6.195347e-003
3.905208e+003,6.206405e-003
3.907136e+003,6.239547e-003
3.909065e+003,6.330481e-003
3.910993e+003,6.318781e-003
3.912922e+003,6.246673e-003
3.914850e+003,6.213430e-003
3.916779e+003,6.179518e-003
3.918707e+003,6.194541e-003
3.920636e+003,6.186676e-003
3.922564e+003,6.183685e-003
3.924493e+003,6.218371e-003
3.926421e+003,6.239547e-003
3.928350e+003,6.286676e-003
3.930278e+003,6.256152e-003
3.932207e+003,6.165234e-003
3.934135e+003,6.225732e-003
3.936064e+003,6.284894e-003
3.937992e+003,6.325640e-003
3.939921e+003,6.301299e-003
3.941849e+003,6.307115e-003
3.943778e+003,6.322379e-003
3.945706e+003,6.294273e-003
3.947635e+003,6.312158e-003
3.949563e+003,6.285936e-003
3.951492e+003,6.229463e-003
3.953420e+003,6.256219e-003
3.955349e+003,6.254404e-003
3.957277e+003,6.318311e-003
3.959206e+003,6.338718e-003
3.961134e+003,6.336835e-003
3.963063e+003,6.274070e-003
3.964991e+003,6.288625e-003
3.966920e+003,6.369147e-003
3.968848e+003,6.389758e-003
3.970777e+003,6.365986e-003
3.972705e+003,6.367600e-003
3.974634e+003,6.242976e-003
3.976562e+003,6.242639e-003
3.978491e+003,6.307889e-003
3.980419e+003,6.315789e-003
3.982348e+003,6.315924e-003
3.984276e+003,6.300392e-003
3.986205e+003,6.318479e-003
3.988133e+003,6.384109e-003
3.990062e+003,6.367566e-003
3.991990e+003,6.289667e-003
3.993919e+003,6.350923e-003
3.995847e+003,6.337407e-003
3.997776e+003,6.348200e-003
3.999704e+003,6.368138e-003
4.001633e+003,0.000000e+000
