3.991989e+002,7.866258e-002
4.011274e+002,7.521509e-002
4.030559e+002,7.196184e-002
4.049844e+002,7.119776e-002
4.069129e+002,7.436233e-002
4.088414e+002,7.526705e-002
4.107699e+002,7.373038e-002
4.126984e+002,6.862578e-002
4.146269e+002,6.861302e-002
4.165554e+002,6.915017e-002
4.184839e+002,6.985215e-002
4.204124e+002,7.033318e-002
4.223409e+002,6.994136e-002
4.242694e+002,6.985437e-002
4.261979e+002,7.062458e-002
4.281264e+002,7.076351e-002
4.300549e+002,7.105433e-002
4.319834e+002,7.100048e-002
4.339119e+002,7.229045e-002
4.358404e+002,7.174486e-002
4.377689e+002,7.207859e-002
4.396974e+002,7.228861e-002
4.416259e+002,7.330687e-002
4.435544e+002,7.343536e-002
4.454829e+002,7.394630e-002
4.474114e+002,7.363780e-002
4.493399e+002,7.423294e-002
4.512684e+002,7.477517e-002
4.531969e+002,7.488248e-002
4.551254e+002,7.420751e-002
4.570539e+002,7.431015e-002
4.589824e+002,7.412949e-002
4.609109e+002,7.434881e-002
4.628394e+002,7.341394e-002
4.647679e+002,7.301027e-002
4.666964e+002,7.275096e-002
4.686249e+002,7.208288e-002
4.705533e+002,7.040452e-002
4.724819e+002,6.932147e-002
4.744103e+002,6.791570e-002
4.763389e+002,6.734838e-002
4.782673e+002,6.532401e-002
4.801959e+002,6.319102e-002
4.821243e+002,6.123213e-002
4.840529e+002,5.979770e-002
4.859813e+002,5.789331e-002
4.879099e+002,5.687289e-002
4.898383e+002,5.508007e-002
4.917668e+002,5.362199e-002
4.936953e+002,5.247160e-002
4.956238e+002,5.168460e-002
4.975523e+002,5.055746e-002
4.994808e+002,4.953774e-002
5.014093e+002,4.854426e-002
5.033378e+002,4.846138e-002
5.052663e+002,4.760177e-002
5.071948e+002,4.733119e-002
5.091233e+002,4.731523e-002
5.110518e+002,4.741729e-002
5.129803e+002,4.734331e-002
5.149088e+002,4.774943e-002
5.168373e+002,4.782962e-002
5.187658e+002,4.794412e-002
5.206943e+002,4.748326e-002
5.226228e+002,4.723033e-002
5.245513e+002,4.710955e-002
5.264798e+002,4.715187e-002
5.284083e+002,4.666805e-002
5.303368e+002,4.626437e-002
5.322653e+002,4.581264e-002
5.341938e+002,4.564007e-002
5.361223e+002,4.547090e-002
5.380508e+002,4.499269e-002
5.399792e+002,4.469618e-002
5.419078e+002,4.444920e-002
5.438363e+002,4.391261e-002
5.457648e+002,4.426233e-002
5.476932e+002,4.427918e-002
5.496218e+002,4.439044e-002
5.515503e+002,4.468487e-002
5.534788e+002,4.511373e-002
5.554072e+002,4.493375e-002
5.573358e+002,4.479994e-002
5.592643e+002,4.486478e-002
5.611927e+002,4.491299e-002
5.631212e+002,4.446542e-002
5.650497e+002,4.404985e-002
5.669783e+002,4.345959e-002
5.689067e+002,4.329178e-002
5.708352e+002,4.303136e-002
5.727637e+002,4.275608e-002
5.746923e+002,4.221347e-002
5.766207e+002,4.203717e-002
5.785492e+002,4.191020e-002
5.804777e+002,4.178322e-002
5.824063e+002,4.147140e-002
5.843347e+002,4.131103e-002
5.862632e+002,4.095216e-002
5.881917e+002,4.083788e-002
5.901202e+002,4.094550e-002
5.920487e+002,4.099659e-002
5.939772e+002,4.066858e-002
5.959057e+002,4.042344e-002
5.978342e+002,3.996002e-002
5.997627e+002,3.987331e-002
6.016912e+002,3.945202e-002
6.036197e+002,3.924917e-002
6.055482e+002,3.911282e-002
6.074767e+002,3.900167e-002
6.094052e+002,3.877743e-002
6.113337e+002,3.869237e-002
6.132622e+002,3.829502e-002
6.151907e+002,3.758978e-002
6.171192e+002,3.584591e-002
6.190477e+002,3.644414e-002
6.209762e+002,3.683063e-002
6.229047e+002,3.624830e-002
6.248332e+002,3.552331e-002
6.267617e+002,3.507630e-002
6.286902e+002,3.441682e-002
6.306187e+002,3.397714e-002
6.325472e+002,3.333385e-002
6.344756e+002,3.253307e-002
6.364042e+002,3.175101e-002
6.383326e+002,3.114390e-002
6.402612e+002,3.018998e-002
6.421896e+002,2.936196e-002
6.441182e+002,2.836673e-002
6.460466e+002,2.725551e-002
6.479752e+002,2.558634e-002
6.499036e+002,2.495114e-002
6.518322e+002,2.517786e-002
6.537606e+002,2.502280e-002
6.556891e+002,2.483222e-002
6.576177e+002,2.505453e-002
6.595461e+002,2.548882e-002
6.614746e+002,2.620976e-002
6.634031e+002,2.738977e-002
6.653317e+002,2.747522e-002
6.672601e+002,1.816159e-002
6.691886e+002,1.124571e-002
6.711171e+002,2.160436e-002
6.730457e+002,2.348072e-002
6.749741e+002,2.231783e-002
6.769026e+002,2.125525e-002
6.788311e+002,2.057827e-002
6.807596e+002,2.009021e-002
6.826881e+002,2.000142e-002
6.846166e+002,2.012856e-002
6.865451e+002,2.041029e-002
6.884736e+002,2.060182e-002
6.904021e+002,2.121590e-002
6.923306e+002,2.203549e-002
6.942591e+002,2.269094e-002
6.961876e+002,2.313213e-002
6.981161e+002,2.361060e-002
7.000446e+002,2.400850e-002
7.019731e+002,2.438864e-002
7.039016e+002,2.462412e-002
7.058301e+002,2.472021e-002
7.077585e+002,2.488194e-002
7.096871e+002,2.504204e-002
7.116156e+002,2.508915e-002
7.135441e+002,2.500076e-002
7.154725e+002,2.494096e-002
7.174011e+002,2.463643e-002
7.193296e+002,2.304732e-002
7.212581e+002,2.312385e-002
7.231865e+002,2.433873e-002
7.251151e+002,2.419732e-002
7.270436e+002,2.404790e-002
7.289720e+002,2.380247e-002
7.309005e+002,2.359434e-002
7.328290e+002,2.324705e-002
7.347576e+002,2.320004e-002
7.366860e+002,2.311095e-002
7.386145e+002,2.312553e-002
7.405430e+002,2.285939e-002
7.424716e+002,2.282719e-002
7.444000e+002,2.284388e-002
7.463285e+002,2.277477e-002
7.482570e+002,2.254692e-002
7.501855e+002,2.249573e-002
7.521140e+002,2.229401e-002
7.540425e+002,2.225951e-002
7.559710e+002,2.218377e-002
7.578995e+002,2.209029e-002
7.598280e+002,2.200210e-002
7.617565e+002,2.206854e-002
7.636850e+002,2.206714e-002
7.656135e+002,2.209590e-002
7.675420e+002,2.203577e-002
7.694705e+002,2.214789e-002
7.713990e+002,2.221055e-002
7.733275e+002,2.248854e-002
7.752560e+002,2.278678e-002
7.771844e+002,2.298943e-002
7.791130e+002,2.318365e-002
7.810415e+002,2.335990e-002
7.829700e+002,2.322811e-002
7.848984e+002,2.317452e-002
7.868270e+002,2.298856e-002
7.887555e+002,2.287262e-002
7.906840e+002,2.276615e-002
7.926124e+002,2.269803e-002
7.945410e+002,2.244492e-002
7.964695e+002,2.224033e-002
7.983979e+002,2.197595e-002
8.003264e+002,2.182834e-002
8.022549e+002,2.165148e-002
8.041835e+002,2.154357e-002
8.061119e+002,2.129715e-002
8.080404e+002,2.106802e-002
8.099689e+002,2.088073e-002
8.118975e+002,2.061572e-002
8.138259e+002,2.029490e-002
8.157545e+002,1.995260e-002
8.176830e+002,1.973403e-002
8.196115e+002,1.967190e-002
8.215399e+002,1.937415e-002
8.234684e+002,1.904798e-002
8.253970e+002,1.881942e-002
8.273254e+002,1.858080e-002
8.292539e+002,1.839368e-002
8.311824e+002,1.824828e-002
8.331110e+002,1.793169e-002
8.350394e+002,1.783823e-002
8.369679e+002,1.777215e-002
8.388964e+002,1.767085e-002
8.408250e+002,1.738655e-002
8.427534e+002,1.722908e-002
8.446819e+002,1.707359e-002
8.466104e+002,1.702944e-002
8.485389e+002,1.692783e-002
8.504674e+002,1.688446e-002
8.523959e+002,1.691478e-002
8.543244e+002,1.698155e-002
8.562529e+002,1.692608e-002
8.581814e+002,1.695271e-002
8.601099e+002,1.703341e-002
8.620384e+002,1.711198e-002
8.639669e+002,1.720505e-002
8.658954e+002,1.730041e-002
8.678239e+002,1.735989e-002
8.697524e+002,1.754684e-002
8.716809e+002,1.771531e-002
8.736094e+002,1.792807e-002
8.755378e+002,1.803961e-002
8.774664e+002,1.825246e-002
8.793949e+002,1.844765e-002
8.813234e+002,1.864797e-002
8.832518e+002,1.896072e-002
8.851804e+002,1.926341e-002
8.871089e+002,1.960014e-002
8.890374e+002,2.003292e-002
8.909658e+002,2.042529e-002
8.928943e+002,2.080947e-002
8.948229e+002,2.108145e-002
8.967513e+002,2.128734e-002
8.986798e+002,2.119673e-002
9.006083e+002,2.104256e-002
9.025369e+002,2.089394e-002
9.044653e+002,2.079779e-002
9.063938e+002,2.065891e-002
9.083223e+002,2.059078e-002
9.102509e+002,2.053488e-002
9.121793e+002,2.058497e-002
9.141078e+002,2.061499e-002
9.160364e+002,2.066030e-002
9.179648e+002,2.074238e-002
9.198933e+002,2.098901e-002
9.218218e+002,2.115571e-002
9.237504e+002,2.136937e-002
9.256788e+002,2.166339e-002
9.276073e+002,2.198659e-002
9.295358e+002,2.211466e-002
9.314644e+002,2.231400e-002
9.333928e+002,2.259537e-002
9.353213e+002,2.294119e-002
9.372498e+002,2.324149e-002
9.391783e+002,2.360487e-002
9.411068e+002,2.403539e-002
9.430353e+002,2.451167e-002
9.449637e+002,2.497556e-002
9.468923e+002,2.551799e-002
9.488208e+002,2.603906e-002
9.507493e+002,2.653554e-002
9.526777e+002,2.703577e-002
9.546063e+002,2.765167e-002
9.565348e+002,2.822566e-002
9.584633e+002,2.875276e-002
9.603917e+002,2.930939e-002
9.623203e+002,2.987830e-002
9.642488e+002,3.039050e-002
9.661772e+002,3.090543e-002
9.681057e+002,3.132267e-002
9.700343e+002,3.175411e-002
9.719628e+002,3.219077e-002
9.738912e+002,3.272470e-002
9.758197e+002,3.335324e-002
9.777483e+002,3.410184e-002
9.796768e+002,3.486872e-002
9.816052e+002,3.578589e-002
9.835337e+002,3.675717e-002
9.854623e+002,3.785935e-002
9.873907e+002,3.879576e-002
9.893192e+002,3.956539e-002
9.912477e+002,4.020290e-002
9.931763e+002,4.069354e-002
9.951047e+002,4.105959e-002
9.970332e+002,4.160801e-002
9.989617e+002,4.231262e-002
1.000890e+003,4.316254e-002
1.002819e+003,4.405524e-002
1.004747e+003,4.505948e-002
1.006676e+003,4.598735e-002
1.008604e+003,4.700431e-002
1.010533e+003,4.797099e-002
1.012461e+003,4.900488e-002
1.014390e+003,5.006533e-002
1.016318e+003,5.128470e-002
1.018247e+003,5.250585e-002
1.020175e+003,5.370983e-002
1.022104e+003,5.487692e-002
1.024032e+003,5.609198e-002
1.025961e+003,5.724104e-002
1.027889e+003,5.847427e-002
1.029818e+003,5.961400e-002
1.031746e+003,6.067487e-002
1.033675e+003,6.143590e-002
1.035603e+003,6.193949e-002
1.037532e+003,6.204073e-002
1.039460e+003,6.184714e-002
1.041389e+003,6.163867e-002
1.043317e+003,6.162328e-002
1.045246e+003,6.165161e-002
1.047174e+003,6.179064e-002
1.049103e+003,6.197618e-002
1.051031e+003,6.217598e-002
1.052960e+003,6.227146e-002
1.054888e+003,6.217831e-002
1.056817e+003,6.189402e-002
1.058745e+003,6.154035e-002
1.060674e+003,6.101514e-002
1.062602e+003,6.032771e-002
1.064531e+003,5.956736e-002
1.066459e+003,5.883794e-002
1.068388e+003,5.806716e-002
1.070316e+003,5.737299e-002
1.072245e+003,5.663867e-002
1.074173e+003,5.602473e-002
1.076102e+003,5.527635e-002
1.078030e+003,5.450976e-002
1.079959e+003,5.370398e-002
1.081887e+003,5.299249e-002
1.083816e+003,5.231389e-002
1.085744e+003,5.180790e-002
1.087673e+003,5.134463e-002
1.089601e+003,5.099519e-002
1.091530e+003,5.066681e-002
1.093458e+003,5.037172e-002
1.095387e+003,5.003358e-002
1.097315e+003,4.971763e-002
1.099244e+003,4.936171e-002
1.101172e+003,4.904843e-002
1.103101e+003,4.861670e-002
1.105029e+003,4.803109e-002
1.106958e+003,4.727665e-002
1.108886e+003,4.631690e-002
1.110815e+003,4.517156e-002
1.112743e+003,4.386679e-002
1.114672e+003,4.254436e-002
1.116600e+003,4.125575e-002
1.118529e+003,4.006204e-002
1.120457e+003,3.895912e-002
1.122386e+003,3.787624e-002
1.124314e+003,3.688791e-002
1.126243e+003,3.584138e-002
1.128171e+003,3.476260e-002
1.130100e+003,3.378373e-002
1.132028e+003,3.288758e-002
1.133957e+003,3.205105e-002
1.135885e+003,3.135330e-002
1.137814e+003,3.072715e-002
1.139742e+003,3.028916e-002
1.141671e+003,3.001281e-002
1.143599e+003,2.994713e-002
1.145528e+003,2.993737e-002
1.147456e+003,2.996765e-002
1.149385e+003,3.002367e-002
1.151313e+003,3.015613e-002
1.153242e+003,3.026557e-002
1.155170e+003,3.043293e-002
1.157099e+003,3.044181e-002
1.159027e+003,3.040667e-002
1.160956e+003,3.019882e-002
1.162884e+003,2.984043e-002
1.164813e+003,2.929794e-002
1.166741e+003,2.856584e-002
1.168670e+003,2.762282e-002
1.170598e+003,2.668618e-002
1.172526e+003,2.566422e-002
1.174455e+003,2.467136e-002
1.176384e+003,2.377692e-002
1.178312e+003,2.299610e-002
1.180240e+003,2.232641e-002
1.182169e+003,2.175678e-002
1.184098e+003,2.129572e-002
1.186026e+003,2.091533e-002
1.187954e+003,2.056872e-002
1.189883e+003,2.035969e-002
1.191812e+003,2.024060e-002
1.193740e+003,2.018520e-002
1.195668e+003,2.011291e-002
1.197597e+003,2.011929e-002
1.199526e+003,2.018163e-002
1.201454e+003,2.015025e-002
1.203382e+003,1.992707e-002
1.205311e+003,1.970386e-002
1.207240e+003,1.945336e-002
1.209168e+003,1.922725e-002
1.211096e+003,1.904432e-002
1.213025e+003,1.894570e-002
1.214953e+003,1.887181e-002
1.216882e+003,1.885039e-002
1.218810e+003,1.881852e-002
1.220739e+003,1.882904e-002
1.222667e+003,1.883374e-002
1.224596e+003,1.885118e-002
1.226524e+003,1.886762e-002
1.228453e+003,1.887714e-002
1.230381e+003,1.883966e-002
1.232310e+003,1.876762e-002
1.234238e+003,1.864516e-002
1.236167e+003,1.849097e-002
1.238095e+003,1.826065e-002
1.240024e+003,1.803284e-002
1.241952e+003,1.776963e-002
1.243881e+003,1.749634e-002
1.245809e+003,1.716675e-002
1.247738e+003,1.682122e-002
1.249666e+003,1.644610e-002
1.251595e+003,1.606965e-002
1.253523e+003,1.571898e-002
1.255452e+003,1.540378e-002
1.257380e+003,1.503808e-002
1.259309e+003,1.472358e-002
1.261237e+003,1.443979e-002
1.263166e+003,1.409858e-002
1.265094e+003,1.373968e-002
1.267023e+003,1.345863e-002
1.268951e+003,1.321409e-002
1.270880e+003,1.298581e-002
1.272808e+003,1.275474e-002
1.274737e+003,1.254372e-002
1.276665e+003,1.239375e-002
1.278594e+003,1.227498e-002
1.280522e+003,1.213605e-002
1.282451e+003,1.201476e-002
1.284379e+003,1.196902e-002
1.286308e+003,1.190918e-002
1.288236e+003,1.183638e-002
1.290165e+003,1.181778e-002
1.292093e+003,1.182545e-002
1.294022e+003,1.191623e-002
1.295950e+003,1.204372e-002
1.297879e+003,1.221456e-002
1.299807e+003,1.240009e-002
1.301736e+003,1.266576e-002
1.303664e+003,1.295826e-002
1.305593e+003,1.330380e-002
1.307521e+003,1.367680e-002
1.309450e+003,1.407928e-002
1.311378e+003,1.450659e-002
1.313307e+003,1.493052e-002
1.315235e+003,1.530952e-002
1.317164e+003,1.554514e-002
1.319092e+003,1.565357e-002
1.321021e+003,1.570070e-002
1.322949e+003,1.565189e-002
1.324878e+003,1.555115e-002
1.326806e+003,1.541181e-002
1.328735e+003,1.517784e-002
1.330663e+003,1.486527e-002
1.332592e+003,1.450337e-002
1.334520e+003,1.409701e-002
1.336449e+003,1.374109e-002
1.338377e+003,1.339814e-002
1.340306e+003,1.304402e-002
1.342234e+003,1.276696e-002
1.344163e+003,1.260531e-002
1.346091e+003,1.249488e-002
1.348020e+003,1.245628e-002
1.349948e+003,1.248216e-002
1.351877e+003,1.253707e-002
1.353805e+003,1.260491e-002
1.355734e+003,1.270223e-002
1.357662e+003,1.279780e-002
1.359591e+003,1.294016e-002
1.361519e+003,1.311812e-002
1.363448e+003,1.326085e-002
1.365376e+003,1.333028e-002
1.367305e+003,1.342035e-002
1.369233e+003,1.344188e-002
1.371162e+003,1.339373e-002
1.373090e+003,1.326099e-002
1.375019e+003,1.309811e-002
1.376947e+003,1.292931e-002
1.378876e+003,1.273550e-002
1.380804e+003,1.246044e-002
1.382733e+003,1.222601e-002
1.384661e+003,1.199817e-002
1.386590e+003,1.178588e-002
1.388518e+003,1.156672e-002
1.390447e+003,1.140304e-002
1.392375e+003,1.129539e-002
1.394304e+003,1.130838e-002
1.396232e+003,1.127070e-002
1.398161e+003,1.120868e-002
1.400089e+003,1.113906e-002
1.402018e+003,1.114011e-002
1.403946e+003,1.118614e-002
1.405875e+003,1.122167e-002
1.407803e+003,1.127196e-002
1.409732e+003,1.131223e-002
1.411660e+003,1.136528e-002
1.413589e+003,1.147740e-002
1.415517e+003,1.155917e-002
1.417446e+003,1.168890e-002
1.419374e+003,1.178469e-002
1.421303e+003,1.175882e-002
1.423231e+003,1.175031e-002
1.425160e+003,1.177628e-002
1.427088e+003,1.170319e-002
1.429017e+003,1.169530e-002
1.430945e+003,1.164312e-002
1.432874e+003,1.151425e-002
1.434802e+003,1.144376e-002
1.436731e+003,1.137902e-002
1.438659e+003,1.120083e-002
1.440588e+003,1.106642e-002
1.442516e+003,1.094298e-002
1.444445e+003,1.088264e-002
1.446373e+003,1.089368e-002
1.448302e+003,1.092171e-002
1.450230e+003,1.086735e-002
1.452159e+003,1.081300e-002
1.454087e+003,1.078610e-002
1.456016e+003,1.080709e-002
1.457944e+003,1.069090e-002
1.459873e+003,1.054354e-002
1.461801e+003,1.046661e-002
1.463730e+003,1.040227e-002
1.465658e+003,1.021921e-002
1.467587e+003,9.966967e-003
1.469515e+003,9.749362e-003
1.471444e+003,9.558523e-003
1.473372e+003,9.249049e-003
1.475301e+003,8.894373e-003
1.477229e+003,8.638130e-003
1.479158e+003,8.469266e-003
1.481086e+003,8.407103e-003
1.483015e+003,8.384537e-003
1.484943e+003,8.374673e-003
1.486872e+003,8.413387e-003
1.488800e+003,8.487646e-003
1.490729e+003,8.601594e-003
1.492657e+003,8.689542e-003
1.494586e+003,8.842159e-003
1.496514e+003,9.021926e-003
1.498443e+003,9.085022e-003
1.500371e+003,9.137435e-003
1.502300e+003,9.260252e-003
1.504228e+003,9.460544e-003
1.506157e+003,9.650019e-003
1.508085e+003,9.639584e-003
1.510014e+003,9.668483e-003
1.511942e+003,9.792875e-003
1.513871e+003,9.880217e-003
1.515799e+003,9.957474e-003
1.517728e+003,9.910793e-003
1.519656e+003,9.843916e-003
1.521585e+003,9.846254e-003
1.523513e+003,9.774371e-003
1.525442e+003,9.743772e-003
1.527370e+003,9.720391e-003
1.529299e+003,9.763832e-003
1.531227e+003,9.799992e-003
1.533156e+003,9.855541e-003
1.535084e+003,9.842593e-003
1.537013e+003,9.872997e-003
1.538941e+003,1.001860e-002
1.540870e+003,1.006170e-002
1.542798e+003,1.001667e-002
1.544727e+003,1.001772e-002
1.546655e+003,9.974155e-003
1.548584e+003,9.937235e-003
1.550512e+003,9.929980e-003
1.552441e+003,9.911776e-003
1.554369e+003,9.941676e-003
1.556298e+003,9.989106e-003
1.558226e+003,1.013041e-002
1.560155e+003,1.013214e-002
1.562083e+003,1.000677e-002
1.564012e+003,9.956287e-003
1.565940e+003,9.975002e-003
1.567869e+003,1.008202e-002
1.569797e+003,1.019625e-002
1.571726e+003,1.024367e-002
1.573654e+003,1.034203e-002
1.575583e+003,1.057494e-002
1.577511e+003,1.070261e-002
1.579440e+003,1.081178e-002
1.581368e+003,1.099192e-002
1.583297e+003,1.122092e-002
1.585225e+003,1.144332e-002
1.587154e+003,1.167154e-002
1.589082e+003,1.190233e-002
1.591010e+003,1.216211e-002
1.592939e+003,1.243599e-002
1.594868e+003,1.269135e-002
1.596796e+003,1.290828e-002
1.598724e+003,1.320114e-002
1.600653e+003,1.350231e-002
1.602582e+003,1.376068e-002
1.604510e+003,1.400618e-002
1.606438e+003,1.425962e-002
1.608367e+003,1.448861e-002
1.610296e+003,1.468372e-002
1.612224e+003,1.496406e-002
1.614152e+003,1.526535e-002
1.616081e+003,1.554572e-002
1.618010e+003,1.573571e-002
1.619938e+003,1.590467e-002
1.621866e+003,1.615331e-002
1.623795e+003,1.630964e-002
1.625724e+003,1.632013e-002
1.627652e+003,1.630950e-002
1.629580e+003,1.630121e-002
1.631509e+003,1.622818e-002
1.633438e+003,1.622099e-002
1.635366e+003,1.624228e-002
1.637294e+003,1.614605e-002
1.639223e+003,1.605710e-002
1.641151e+003,1.608192e-002
1.643080e+003,1.604585e-002
1.645008e+003,1.607274e-002
1.646937e+003,1.603602e-002
1.648865e+003,1.584058e-002
1.650794e+003,1.575069e-002
1.652722e+003,1.574045e-002
1.654651e+003,1.539321e-002
1.656579e+003,1.499558e-002
1.658508e+003,1.469725e-002
1.660436e+003,1.438519e-002
1.662365e+003,1.405662e-002
1.664293e+003,1.367563e-002
1.666222e+003,1.324231e-002
1.668150e+003,1.287691e-002
1.670079e+003,1.247899e-002
1.672007e+003,1.206562e-002
1.673936e+003,1.171221e-002
1.675864e+003,1.132651e-002
1.677793e+003,1.087619e-002
1.679721e+003,1.054167e-002
1.681650e+003,1.020999e-002
1.683578e+003,9.938862e-003
1.685507e+003,9.595682e-003
1.687435e+003,9.243193e-003
1.689364e+003,8.939965e-003
1.691292e+003,8.685282e-003
1.693221e+003,8.497242e-003
1.695149e+003,8.453589e-003
1.697078e+003,8.208579e-003
1.699006e+003,8.033401e-003
1.700935e+003,7.871925e-003
1.702863e+003,7.585094e-003
1.704792e+003,7.447345e-003
1.706720e+003,7.381924e-003
1.708649e+003,7.386677e-003
1.710577e+003,7.368444e-003
1.712506e+003,7.368006e-003
1.714434e+003,7.437536e-003
1.716363e+003,7.494369e-003
1.718291e+003,7.504920e-003
1.720220e+003,7.470132e-003
1.722148e+003,7.497976e-003
1.724077e+003,7.521844e-003
1.726005e+003,7.554648e-003
1.727934e+003,7.612305e-003
1.729862e+003,7.697558e-003
1.731791e+003,7.732635e-003
1.733719e+003,7.754492e-003
1.735648e+003,7.500437e-003
1.737576e+003,7.259131e-003
1.739505e+003,7.172281e-003
1.741433e+003,7.008195e-003
1.743362e+003,6.783687e-003
1.745290e+003,6.579984e-003
1.747219e+003,6.437071e-003
1.749147e+003,6.282406e-003
1.751076e+003,6.169704e-003
1.753004e+003,5.951104e-003
1.754933e+003,5.810582e-003
1.756861e+003,5.774014e-003
1.758790e+003,5.695785e-003
1.760718e+003,5.625325e-003
1.762647e+003,5.499370e-003
1.764575e+003,5.408912e-003
1.766504e+003,5.420218e-003
1.768432e+003,5.367010e-003
1.770361e+003,5.284092e-003
1.772289e+003,5.294188e-003
1.774218e+003,5.245691e-003
1.776146e+003,5.216382e-003
1.778075e+003,5.216314e-003
1.780003e+003,5.205818e-003
1.781932e+003,5.183184e-003
1.783860e+003,5.155386e-003
1.785789e+003,5.183552e-003
1.787717e+003,5.149452e-003
1.789646e+003,5.204075e-003
1.791574e+003,5.306297e-003
1.793503e+003,5.305827e-003
1.795431e+003,5.333164e-003
1.797360e+003,5.272924e-003
1.799288e+003,5.276144e-003
1.801217e+003,5.280168e-003
1.803145e+003,5.285971e-003
1.805074e+003,5.250990e-003
1.807002e+003,5.280470e-003
1.808931e+003,5.307873e-003
1.810859e+003,5.293886e-003
1.812788e+003,5.277351e-003
1.814716e+003,5.308980e-003
1.816645e+003,5.455346e-003
1.818573e+003,5.501282e-003
1.820502e+003,5.523498e-003
1.822430e+003,5.561957e-003
1.824359e+003,5.572126e-003
1.826287e+003,5.511752e-003
1.828216e+003,5.614080e-003
1.830144e+003,5.652917e-003
1.832073e+003,5.541150e-003
1.834001e+003,5.567260e-003
1.835930e+003,5.601124e-003
1.837858e+003,5.606898e-003
1.839787e+003,5.529806e-003
1.841715e+003,5.570448e-003
1.843644e+003,5.716668e-003
1.845572e+003,5.707704e-003
1.847501e+003,5.679000e-003
1.849429e+003,5.675341e-003
1.851358e+003,5.774350e-003
1.853286e+003,5.858772e-003
1.855215e+003,5.852458e-003
1.857143e+003,5.741479e-003
1.859072e+003,5.689608e-003
1.861000e+003,5.764310e-003
1.862929e+003,5.802522e-003
1.864857e+003,5.802287e-003
1.866786e+003,5.913148e-003
1.868714e+003,6.058509e-003
1.870643e+003,5.865119e-003
1.872571e+003,5.702433e-003
1.874500e+003,5.799097e-003
1.876428e+003,5.922956e-003
1.878357e+003,5.910965e-003
1.880285e+003,5.877546e-003
1.882214e+003,5.758904e-003
1.884142e+003,5.678329e-003
1.886071e+003,6.003846e-003
1.887999e+003,6.145440e-003
1.889928e+003,6.041172e-003
1.891856e+003,6.132971e-003
1.893785e+003,6.097318e-003
1.895713e+003,5.906431e-003
1.897642e+003,5.839797e-003
1.899570e+003,5.996052e-003
1.901499e+003,6.077392e-003
1.903427e+003,6.053603e-003
1.905356e+003,6.085389e-003
1.907284e+003,5.958394e-003
1.909213e+003,6.028337e-003
1.911141e+003,5.966792e-003
1.913070e+003,6.044867e-003
1.914998e+003,6.224925e-003
1.916927e+003,6.083205e-003
1.918855e+003,6.102594e-003
1.920784e+003,6.172863e-003
1.922712e+003,6.016343e-003
1.924641e+003,6.167284e-003
1.926569e+003,6.277297e-003
1.928498e+003,6.302812e-003
1.930426e+003,6.502821e-003
1.932355e+003,6.524011e-003
1.934283e+003,6.652114e-003
1.936212e+003,6.714328e-003
1.938140e+003,6.806035e-003
1.940069e+003,6.733442e-003
1.941997e+003,6.857063e-003
1.943926e+003,6.749225e-003
1.945854e+003,6.477024e-003
1.947783e+003,6.523203e-003
1.949711e+003,6.766927e-003
1.951640e+003,7.213279e-003
1.953568e+003,6.848244e-003
1.955497e+003,6.779985e-003
1.957425e+003,7.487458e-003
1.959354e+003,7.164432e-003
1.961282e+003,7.002773e-003
1.963211e+003,8.156043e-003
1.965139e+003,8.723787e-003
1.967068e+003,8.436223e-003
1.968996e+003,8.051493e-003
1.970925e+003,8.154388e-003
1.972853e+003,8.178731e-003
1.974782e+003,8.509811e-003
1.976710e+003,8.411596e-003
1.978639e+003,8.079949e-003
1.980567e+003,7.579193e-003
1.982496e+003,6.794289e-003
1.984424e+003,6.136299e-003
1.986353e+003,5.901292e-003
1.988281e+003,6.888907e-003
1.990210e+003,6.982469e-003
1.992138e+003,7.148735e-003
1.994067e+003,6.953109e-003
1.995995e+003,7.232448e-003
1.997924e+003,6.549877e-003
1.999852e+003,5.930278e-003
2.001781e+003,6.334717e-003
2.003709e+003,6.480892e-003
2.005638e+003,6.599731e-003
2.007566e+003,6.379032e-003
2.009495e+003,5.603474e-003
2.011423e+003,5.818507e-003
2.013352e+003,6.150884e-003
2.015280e+003,6.153505e-003
2.017208e+003,6.460982e-003
2.019137e+003,6.429370e-003
2.021066e+003,6.134114e-003
2.022994e+003,5.538800e-003
2.024922e+003,5.881341e-003
2.026851e+003,5.872978e-003
2.028780e+003,4.958746e-003
2.030708e+003,5.244652e-003
2.032636e+003,5.611899e-003
2.034565e+003,5.716600e-003
2.036494e+003,5.559507e-003
2.038422e+003,4.970811e-003
2.040350e+003,4.798710e-003
2.042279e+003,4.509883e-003
2.044208e+003,4.664889e-003
2.046136e+003,4.864815e-003
2.048064e+003,5.284629e-003
2.049993e+003,5.038853e-003
2.051921e+003,4.455582e-003
2.053850e+003,4.249488e-003
2.055778e+003,4.291548e-003
2.057707e+003,4.613081e-003
2.059635e+003,4.454277e-003
2.061564e+003,4.003360e-003
2.063492e+003,3.901778e-003
2.065421e+003,3.936383e-003
2.067349e+003,4.024361e-003
2.069278e+003,4.145072e-003
2.071206e+003,4.010349e-003
2.073135e+003,3.918863e-003
2.075063e+003,3.963634e-003
2.076992e+003,3.996170e-003
2.078920e+003,4.340207e-003
2.080849e+003,4.627347e-003
2.082777e+003,4.385222e-003
2.084706e+003,4.122660e-003
2.086634e+003,4.214523e-003
2.088563e+003,4.349176e-003
2.090491e+003,4.089880e-003
2.092420e+003,4.155476e-003
2.094348e+003,4.430476e-003
2.096277e+003,4.460369e-003
2.098205e+003,4.426258e-003
2.100134e+003,4.374879e-003
2.102062e+003,4.260295e-003
2.103991e+003,4.198364e-003
2.105919e+003,4.055129e-003
2.107848e+003,4.058006e-003
2.109776e+003,4.385255e-003
2.111705e+003,4.426024e-003
2.113633e+003,4.587363e-003
2.115562e+003,4.442795e-003
2.117490e+003,4.530340e-003
2.119419e+003,4.511892e-003
2.121347e+003,4.433355e-003
2.123276e+003,4.334551e-003
2.125204e+003,4.276859e-003
2.127133e+003,4.121924e-003
2.129061e+003,4.394493e-003
2.130990e+003,4.567104e-003
2.132918e+003,4.287533e-003
2.134847e+003,4.405438e-003
2.136775e+003,4.856639e-003
2.138704e+003,4.501781e-003
2.140632e+003,4.044728e-003
2.142561e+003,4.117843e-003
2.144489e+003,4.124265e-003
2.146418e+003,4.384318e-003
2.148346e+003,4.608861e-003
2.150275e+003,4.504258e-003
2.152203e+003,4.294326e-003
2.154132e+003,4.829198e-003
2.156060e+003,5.053401e-003
2.157989e+003,5.480243e-003
2.159917e+003,6.630783e-003
2.161846e+003,5.580483e-003
2.163774e+003,5.166820e-003
2.165703e+003,5.364193e-003
2.167631e+003,5.655132e-003
2.169560e+003,5.403913e-003
2.171488e+003,4.860760e-003
2.173417e+003,5.027523e-003
2.175345e+003,5.426391e-003
2.177274e+003,5.979692e-003
2.179202e+003,5.222686e-003
2.181131e+003,4.848363e-003
2.183059e+003,4.718714e-003
2.184988e+003,4.906902e-003
2.186916e+003,5.047401e-003
2.188845e+003,5.060374e-003
2.190773e+003,5.585215e-003
2.192702e+003,5.409415e-003
2.194630e+003,4.793752e-003
2.196559e+003,4.411497e-003
2.198487e+003,4.653268e-003
2.200416e+003,4.984955e-003
2.202344e+003,4.310589e-003
2.204273e+003,3.725054e-003
2.206201e+003,3.983229e-003
2.208130e+003,4.582038e-003
2.210058e+003,5.215677e-003
2.211987e+003,5.289090e-003
2.213915e+003,4.791272e-003
2.215844e+003,4.896882e-003
2.217772e+003,4.646034e-003
2.219701e+003,4.749933e-003
2.221629e+003,4.786649e-003
2.223558e+003,4.193413e-003
2.225486e+003,4.178157e-003
2.227415e+003,4.634011e-003
2.229343e+003,4.819716e-003
2.231272e+003,4.787721e-003
2.233200e+003,4.583010e-003
2.235129e+003,4.796566e-003
2.237057e+003,4.842566e-003
2.238986e+003,4.625371e-003
2.240914e+003,4.408384e-003
2.242843e+003,4.187725e-003
2.244771e+003,4.483435e-003
2.246700e+003,4.445071e-003
2.248628e+003,4.013559e-003
2.250557e+003,3.832210e-003
2.252485e+003,3.648496e-003
2.254414e+003,3.392357e-003
2.256342e+003,3.379133e-003
2.258271e+003,3.275327e-003
2.260199e+003,3.078701e-003
2.262128e+003,3.123619e-003
2.264056e+003,2.918889e-003
2.265985e+003,2.657012e-003
2.267913e+003,2.751500e-003
2.269842e+003,2.619243e-003
2.271770e+003,2.627176e-003
2.273699e+003,2.819062e-003
2.275627e+003,3.265245e-003
2.277556e+003,3.594904e-003
2.279484e+003,3.793736e-003
2.281413e+003,3.768468e-003
2.283341e+003,3.900173e-003
2.285270e+003,3.742766e-003
2.287198e+003,2.835870e-003
2.289127e+003,1.821215e-003
2.291055e+003,9.281810e-004
2.292984e+003,-1.448379e-004
2.294912e+003,-1.215080e-003
2.296841e+003,-2.213766e-003
2.298769e+003,-3.290602e-003
2.300698e+003,-4.399183e-003
2.302626e+003,-5.378833e-003
2.304555e+003,-6.994136e-003
2.306483e+003,-9.342000e-003
2.308412e+003,-1.175190e-002
2.310340e+003,-1.423362e-002
2.312269e+003,-1.591222e-002
2.314197e+003,-1.686537e-002
2.316125e+003,-1.881367e-002
2.318054e+003,-2.229702e-002
2.319983e+003,-2.698775e-002
2.321911e+003,-3.113418e-002
2.323840e+003,-3.372873e-002
2.325768e+003,-3.591219e-002
2.327697e+003,-3.840707e-002
2.329625e+003,-4.089168e-002
2.331553e+003,-4.227770e-002
2.333482e+003,-4.273194e-002
2.335411e+003,-4.418682e-002
2.337339e+003,-4.572670e-002
2.339268e+003,-4.653882e-002
2.341196e+003,-4.868921e-002
2.343125e+003,-4.810646e-002
2.345053e+003,-4.335379e-002
2.346981e+003,-3.259157e-002
2.348910e+003,-2.868920e-002
2.350839e+003,-3.625057e-002
2.352767e+003,-4.698592e-002
2.354696e+003,-5.649429e-002
2.356624e+003,-6.441628e-002
2.358552e+003,-6.856725e-002
2.360481e+003,-6.963424e-002
2.362409e+003,-6.765443e-002
2.364338e+003,-6.348687e-002
2.366267e+003,-5.753887e-002
2.368195e+003,-4.977222e-002
2.370124e+003,-4.150921e-002
2.372052e+003,-3.335196e-002
2.373980e+003,-2.575807e-002
2.375909e+003,-1.893739e-002
2.377838e+003,-1.328800e-002
2.379766e+003,-8.182482e-003
2.381695e+003,-3.247752e-003
2.383623e+003,7.239191e-004
2.385552e+003,3.187700e-003
2.387480e+003,4.507238e-003
2.389408e+003,5.033054e-003
2.391337e+003,5.167826e-003
2.393266e+003,5.102681e-003
2.395194e+003,5.180434e-003
2.397123e+003,5.286172e-003
2.399051e+003,5.351143e-003
2.400979e+003,5.318305e-003
2.402908e+003,5.277317e-003
2.404836e+003,5.281443e-003
2.406765e+003,5.335680e-003
2.408694e+003,5.248207e-003
2.410622e+003,5.262360e-003
2.412551e+003,5.386770e-003
2.414479e+003,5.440651e-003
2.416407e+003,5.461587e-003
2.418336e+003,5.361442e-003
2.420264e+003,5.293651e-003
2.422193e+003,5.364394e-003
2.424122e+003,5.357651e-003
2.426050e+003,5.425955e-003
2.427979e+003,5.499840e-003
2.429907e+003,5.435718e-003
2.431835e+003,5.464204e-003
2.433764e+003,5.687729e-003
2.435692e+003,5.673663e-003
2.437621e+003,5.580114e-003
2.439550e+003,5.651843e-003
2.441478e+003,5.778984e-003
2.443406e+003,5.834827e-003
2.445335e+003,5.769078e-003
2.447263e+003,5.715660e-003
2.449192e+003,5.704347e-003
2.451121e+003,5.734428e-003
2.453049e+003,5.814679e-003
2.454978e+003,5.819883e-003
2.456906e+003,5.833854e-003
2.458834e+003,5.819044e-003
2.460763e+003,5.834727e-003
2.462691e+003,5.794665e-003
2.464620e+003,5.833585e-003
2.466549e+003,5.872306e-003
2.468477e+003,5.734798e-003
2.470406e+003,5.614483e-003
2.472334e+003,5.739800e-003
2.474262e+003,5.727076e-003
2.476191e+003,5.643786e-003
2.478119e+003,5.654461e-003
2.480048e+003,5.768742e-003
2.481977e+003,5.798090e-003
2.483905e+003,5.824350e-003
2.485833e+003,5.722039e-003
2.487762e+003,5.796814e-003
2.489690e+003,5.863843e-003
2.491619e+003,5.860854e-003
2.493547e+003,5.838152e-003
2.495476e+003,5.835700e-003
2.497405e+003,5.906766e-003
2.499333e+003,5.900385e-003
2.501261e+003,5.820421e-003
2.503190e+003,5.846413e-003
2.505118e+003,5.800507e-003
2.507047e+003,5.810917e-003
2.508975e+003,5.916608e-003
2.510904e+003,5.752559e-003
2.512833e+003,5.764881e-003
2.514761e+003,5.908345e-003
2.516689e+003,5.966120e-003
2.518618e+003,5.978785e-003
2.520546e+003,5.857832e-003
2.522475e+003,5.720763e-003
2.524403e+003,5.709852e-003
2.526332e+003,5.650030e-003
2.528260e+003,5.769683e-003
2.530189e+003,5.988359e-003
2.532117e+003,5.997127e-003
2.534046e+003,5.934376e-003
2.535974e+003,5.957554e-003
2.537903e+003,5.945226e-003
2.539831e+003,5.972267e-003
2.541760e+003,6.063146e-003
2.543688e+003,5.922318e-003
2.545617e+003,5.832376e-003
2.547545e+003,5.897395e-003
2.549474e+003,5.913484e-003
2.551402e+003,5.872743e-003
2.553331e+003,5.910730e-003
2.555259e+003,5.922889e-003
2.557188e+003,5.905188e-003
2.559116e+003,5.886950e-003
2.561045e+003,5.854608e-003
2.562973e+003,5.845741e-003
2.564902e+003,5.854608e-003
2.566830e+003,5.862298e-003
2.568759e+003,5.937064e-003
2.570687e+003,6.022424e-003
2.572616e+003,5.983353e-003
2.574544e+003,5.871971e-003
2.576473e+003,5.823510e-003
2.578401e+003,5.773276e-003
2.580330e+003,5.724725e-003
2.582258e+003,5.780394e-003
2.584187e+003,5.904516e-003
2.586115e+003,5.895985e-003
2.588044e+003,5.865052e-003
2.589972e+003,5.758535e-003
2.591901e+003,5.670709e-003
2.593829e+003,5.680310e-003
2.595758e+003,5.598070e-003
2.597686e+003,5.584813e-003
2.599615e+003,5.651004e-003
2.601543e+003,5.747623e-003
2.603472e+003,5.641806e-003
2.605400e+003,5.611194e-003
2.607329e+003,5.703943e-003
2.609257e+003,5.709013e-003
2.611186e+003,5.578771e-003
2.613114e+003,5.489471e-003
2.615043e+003,5.570313e-003
2.616971e+003,5.611831e-003
2.618900e+003,5.538968e-003
2.620828e+003,5.496115e-003
2.622757e+003,5.540277e-003
2.624685e+003,5.553566e-003
2.626614e+003,5.559843e-003
2.628542e+003,5.604648e-003
2.630471e+003,5.606864e-003
2.632399e+003,5.535075e-003
2.634328e+003,5.529974e-003
2.636256e+003,5.575348e-003
2.638185e+003,5.595922e-003
2.640113e+003,5.594915e-003
2.642042e+003,5.545512e-003
2.643970e+003,5.577596e-003
2.645899e+003,5.649996e-003
2.647827e+003,5.656710e-003
2.649756e+003,5.632038e-003
2.651684e+003,5.650937e-003
2.653613e+003,5.683734e-003
2.655541e+003,5.706629e-003
2.657470e+003,5.704481e-003
2.659398e+003,5.748362e-003
2.661327e+003,5.771361e-003
2.663255e+003,5.790333e-003
2.665184e+003,5.790098e-003
2.667112e+003,5.778010e-003
2.669041e+003,5.832879e-003
2.670969e+003,5.871937e-003
2.672898e+003,5.901157e-003
2.674826e+003,5.868277e-003
2.676755e+003,5.822671e-003
2.678683e+003,5.860820e-003
2.680612e+003,5.915231e-003
2.682540e+003,5.964944e-003
2.684469e+003,5.993364e-003
2.686397e+003,5.995985e-003
2.688326e+003,5.985268e-003
2.690254e+003,6.015974e-003
2.692183e+003,6.011606e-003
2.694111e+003,6.001797e-003
2.696040e+003,6.042953e-003
2.697968e+003,6.097687e-003
2.699897e+003,6.096713e-003
2.701825e+003,6.101283e-003
2.703754e+003,6.134047e-003
2.705682e+003,6.162478e-003
2.707611e+003,6.177434e-003
2.709539e+003,6.157269e-003
2.711468e+003,6.131493e-003
2.713396e+003,6.157571e-003
2.715325e+003,6.165637e-003
2.717253e+003,6.180828e-003
2.719182e+003,6.214102e-003
2.721110e+003,6.224993e-003
2.723039e+003,6.218774e-003
2.724967e+003,6.223312e-003
2.726896e+003,6.249631e-003
2.728824e+003,6.270809e-003
2.730753e+003,6.285970e-003
2.732681e+003,6.332095e-003
2.734610e+003,6.328128e-003
2.736538e+003,6.271346e-003
2.738467e+003,6.263716e-003
2.740395e+003,6.317605e-003
2.742324e+003,6.346854e-003
2.744252e+003,6.351562e-003
2.746181e+003,6.346922e-003
2.748109e+003,6.375670e-003
2.750038e+003,6.372543e-003
2.751966e+003,6.347292e-003
2.753895e+003,6.347258e-003
2.755823e+003,6.374493e-003
2.757752e+003,6.395643e-003
2.759680e+003,6.377956e-003
2.761609e+003,6.372811e-003
2.763537e+003,6.447766e-003
2.765466e+003,6.442721e-003
2.767394e+003,6.365179e-003
2.769323e+003,6.357109e-003
2.771251e+003,6.403175e-003
2.773180e+003,6.464816e-003
2.775108e+003,6.480690e-003
2.777037e+003,6.475410e-003
2.778965e+003,6.440636e-003
2.780894e+003,6.425099e-003
2.782822e+003,6.425806e-003
2.784750e+003,6.412657e-003
2.786679e+003,6.470903e-003
2.788608e+003,6.504065e-003
2.790536e+003,6.492529e-003
2.792465e+003,6.490948e-003
2.794393e+003,6.504469e-003
2.796322e+003,6.500231e-003
2.798250e+003,6.554115e-003
2.800178e+003,6.580152e-003
2.802107e+003,6.543183e-003
2.804036e+003,6.509648e-003
2.805964e+003,6.606930e-003
2.807893e+003,6.638790e-003
2.809821e+003,6.606224e-003
2.811750e+003,6.605652e-003
2.813678e+003,6.640203e-003
2.815606e+003,6.660323e-003
2.817535e+003,6.660861e-003
2.819464e+003,6.723986e-003
2.821392e+003,6.707464e-003
2.823321e+003,6.722976e-003
2.825249e+003,6.769788e-003
2.827177e+003,6.846796e-003
2.829106e+003,6.910150e-003
2.831034e+003,6.931326e-003
2.832963e+003,6.936814e-003
2.834892e+003,6.969540e-003
2.836820e+003,7.076119e-003
2.838749e+003,7.186497e-003
2.840677e+003,7.272811e-003
2.842605e+003,7.393586e-003
2.844534e+003,7.569449e-003
2.846462e+003,7.848983e-003
2.848391e+003,8.059460e-003
2.850320e+003,8.080422e-003
2.852248e+003,7.949062e-003
2.854177e+003,7.840582e-003
2.856105e+003,7.745149e-003
2.858033e+003,7.685281e-003
2.859962e+003,7.668823e-003
2.861890e+003,7.643093e-003
2.863819e+003,7.655031e-003
2.865748e+003,7.679515e-003
2.867676e+003,7.698907e-003
2.869604e+003,7.743901e-003
2.871533e+003,7.773382e-003
2.873461e+003,7.780904e-003
2.875390e+003,7.783839e-003
2.877319e+003,7.806677e-003
2.879247e+003,7.870845e-003
2.881176e+003,7.895308e-003
2.883104e+003,7.868214e-003
2.885032e+003,7.923348e-003
2.886961e+003,7.992394e-003
2.888889e+003,7.988682e-003
2.890818e+003,8.024862e-003
2.892747e+003,8.077485e-003
2.894675e+003,8.076000e-003
2.896604e+003,8.073636e-003
2.898532e+003,8.077249e-003
2.900460e+003,8.139938e-003
2.902389e+003,8.125050e-003
2.904317e+003,8.165834e-003
2.906246e+003,8.204899e-003
2.908175e+003,8.254842e-003
2.910103e+003,8.312896e-003
2.912031e+003,8.428250e-003
2.913960e+003,8.685350e-003
2.915888e+003,8.880575e-003
2.917817e+003,8.853825e-003
2.919745e+003,8.684911e-003
2.921674e+003,8.593922e-003
2.923603e+003,8.538601e-003
2.925531e+003,8.333972e-003
2.927459e+003,8.149222e-003
2.929388e+003,8.065704e-003
2.931316e+003,8.001338e-003
2.933245e+003,7.897602e-003
2.935173e+003,7.766230e-003
2.937102e+003,7.698772e-003
2.939031e+003,7.619589e-003
2.940959e+003,7.522485e-003
2.942887e+003,7.394934e-003
2.944816e+003,7.338889e-003
2.946744e+003,7.307146e-003
2.948673e+003,7.232818e-003
2.950601e+003,7.201420e-003
2.952530e+003,7.169822e-003
2.954458e+003,7.133645e-003
2.956387e+003,7.117040e-003
2.958315e+003,7.076186e-003
2.960244e+003,7.061570e-003
2.962172e+003,7.026951e-003
2.964101e+003,6.949103e-003
2.966029e+003,6.894496e-003
2.967958e+003,6.837270e-003
2.969886e+003,6.805833e-003
2.971815e+003,6.760735e-003
2.973743e+003,6.700296e-003
2.975672e+003,6.668835e-003
2.977600e+003,6.682799e-003
2.979529e+003,6.678089e-003
2.981457e+003,6.605248e-003
2.983386e+003,6.558051e-003
2.985314e+003,6.544259e-003
2.987243e+003,6.534034e-003
2.989171e+003,6.542510e-003
2.991100e+003,6.523304e-003
2.993028e+003,6.603566e-003
2.994957e+003,6.586846e-003
2.996885e+003,6.583011e-003
2.998814e+003,6.607536e-003
3.000742e+003,6.606627e-003
3.002671e+003,6.539281e-003
3.004599e+003,6.506117e-003
3.006528e+003,6.611169e-003
3.008456e+003,6.654738e-003
3.010385e+003,6.594718e-003
3.012313e+003,6.578840e-003
3.014242e+003,6.625400e-003
3.016170e+003,6.602893e-003
3.018099e+003,6.606560e-003
3.020027e+003,6.706656e-003
3.021956e+003,6.736605e-003
3.023884e+003,6.658809e-003
3.025813e+003,6.680747e-003
3.027741e+003,6.728058e-003
3.029670e+003,6.793044e-003
3.031598e+003,6.822965e-003
3.033527e+003,6.786245e-003
3.035455e+003,6.792976e-003
3.037384e+003,6.810410e-003
3.039312e+003,6.859655e-003
3.041241e+003,6.896280e-003
3.043169e+003,6.877058e-003
3.045098e+003,6.866320e-003
3.047026e+003,6.858510e-003
3.048955e+003,6.931427e-003
3.050883e+003,7.040253e-003
3.052812e+003,7.129098e-003
3.054740e+003,7.099728e-003
3.056669e+003,7.057697e-003
3.058597e+003,7.090937e-003
3.060526e+003,7.121486e-003
3.062454e+003,7.136037e-003
3.064383e+003,7.178109e-003
3.066311e+003,7.167329e-003
3.068240e+003,7.208225e-003
3.070168e+003,7.202700e-003
3.072097e+003,7.235851e-003
3.074025e+003,7.316750e-003
3.075954e+003,7.300811e-003
3.077882e+003,7.294915e-003
3.079811e+003,7.273687e-003
3.081739e+003,7.280021e-003
3.083668e+003,7.329487e-003
3.085596e+003,7.331543e-003
3.087525e+003,7.420515e-003
3.089453e+003,7.432447e-003
3.091382e+003,7.369017e-003
3.093310e+003,7.434402e-003
3.095239e+003,7.504415e-003
3.097167e+003,7.540892e-003
3.099096e+003,7.549287e-003
3.101024e+003,7.540421e-003
3.102953e+003,7.509236e-003
3.104881e+003,7.556233e-003
3.106810e+003,7.571472e-003
3.108738e+003,7.579868e-003
3.110667e+003,7.600672e-003
3.112595e+003,7.551580e-003
3.114524e+003,7.664473e-003
3.116452e+003,7.764341e-003
3.118381e+003,7.732399e-003
3.120309e+003,7.765252e-003
3.122238e+003,7.836364e-003
3.124166e+003,7.866257e-003
3.126095e+003,7.874085e-003
3.128023e+003,7.889335e-003
3.129952e+003,7.888661e-003
3.131880e+003,7.922471e-003
3.133809e+003,7.979165e-003
3.135737e+003,8.027731e-003
3.137666e+003,8.006941e-003
3.139594e+003,8.003362e-003
3.141523e+003,8.033638e-003
3.143451e+003,8.087038e-003
3.145380e+003,8.154827e-003
3.147308e+003,8.217291e-003
3.149237e+003,8.184573e-003
3.151165e+003,8.241030e-003
3.153094e+003,8.372005e-003
3.155022e+003,8.384200e-003
3.156951e+003,8.331472e-003
3.158879e+003,8.347279e-003
3.160808e+003,8.421562e-003
3.162736e+003,8.458421e-003
3.164665e+003,8.468117e-003
3.166593e+003,8.478557e-003
3.168522e+003,8.574929e-003
3.170450e+003,8.631945e-003
3.172379e+003,8.673114e-003
3.174307e+003,8.600749e-003
3.176236e+003,8.615958e-003
3.178164e+003,8.667706e-003
3.180093e+003,8.743835e-003
3.182021e+003,8.793738e-003
3.183950e+003,8.824068e-003
3.185878e+003,8.816697e-003
3.187807e+003,8.787956e-003
3.189735e+003,8.794346e-003
3.191664e+003,8.831440e-003
3.193592e+003,8.931543e-003
3.195521e+003,8.990364e-003
3.197449e+003,8.997366e-003
3.199378e+003,9.000140e-003
3.201306e+003,9.052475e-003
3.203235e+003,9.061677e-003
3.205163e+003,9.162307e-003
3.207092e+003,9.205659e-003
3.209020e+003,9.307236e-003
3.210948e+003,9.316207e-003
3.212877e+003,9.277617e-003
3.214806e+003,9.350840e-003
3.216734e+003,9.289261e-003
3.218663e+003,9.342613e-003
3.220591e+003,9.438669e-003
3.222520e+003,9.516118e-003
3.224448e+003,9.593141e-003
3.226376e+003,9.599475e-003
3.228305e+003,9.662962e-003
3.230234e+003,9.818598e-003
3.232162e+003,9.877132e-003
3.234091e+003,9.852864e-003
3.236019e+003,9.912013e-003
3.237948e+003,9.926217e-003
3.239876e+003,9.947168e-003
3.241804e+003,9.935642e-003
3.243733e+003,9.904555e-003
3.245662e+003,9.963780e-003
3.247590e+003,1.009270e-002
3.249519e+003,1.012811e-002
3.251447e+003,1.009836e-002
3.253375e+003,1.018326e-002
3.255304e+003,1.025602e-002
3.257232e+003,1.024944e-002
3.259161e+003,1.031563e-002
3.261090e+003,1.039813e-002
3.263018e+003,1.039232e-002
3.264947e+003,1.046940e-002
3.266875e+003,1.055420e-002
3.268803e+003,1.054184e-002
3.270732e+003,1.058006e-002
3.272660e+003,1.066037e-002
3.274589e+003,1.061578e-002
3.276518e+003,1.064614e-002
3.278446e+003,1.073155e-002
3.280375e+003,1.073552e-002
3.282303e+003,1.071630e-002
3.284231e+003,1.070054e-002
3.286160e+003,1.067640e-002
3.288088e+003,1.068614e-002
3.290017e+003,1.072180e-002
3.291946e+003,1.076955e-002
3.293874e+003,1.078603e-002
3.295802e+003,1.076422e-002
3.297731e+003,1.080733e-002
3.299659e+003,1.084541e-002
3.301588e+003,1.080817e-002
3.303516e+003,1.078837e-002
3.305445e+003,1.084904e-002
3.307374e+003,1.088804e-002
3.309302e+003,1.088386e-002
3.311230e+003,1.090653e-002
3.313159e+003,1.092576e-002
3.315087e+003,1.090693e-002
3.317016e+003,1.085499e-002
3.318944e+003,1.091611e-002
3.320873e+003,1.099875e-002
3.322802e+003,1.094978e-002
3.324730e+003,1.091798e-002
3.326658e+003,1.104045e-002
3.328587e+003,1.105720e-002
3.330515e+003,1.105133e-002
3.332444e+003,1.103304e-002
3.334372e+003,1.092756e-002
3.336301e+003,1.089528e-002
3.338229e+003,1.097048e-002
3.340158e+003,1.095773e-002
3.342086e+003,1.088026e-002
3.344015e+003,1.089280e-002
3.345943e+003,1.093282e-002
3.347872e+003,1.089990e-002
3.349800e+003,1.086589e-002
3.351729e+003,1.088434e-002
3.353657e+003,1.081229e-002
3.355586e+003,1.075583e-002
3.357514e+003,1.069256e-002
3.359443e+003,1.061330e-002
3.361371e+003,1.059348e-002
3.363300e+003,1.061507e-002
3.365229e+003,1.071973e-002
3.367157e+003,1.063327e-002
3.369085e+003,1.051886e-002
3.371014e+003,1.042056e-002
3.372942e+003,1.040566e-002
3.374871e+003,1.042667e-002
3.376799e+003,1.044768e-002
3.378728e+003,1.047286e-002
3.380656e+003,1.040824e-002
3.382585e+003,1.037919e-002
3.384513e+003,1.039290e-002
3.386442e+003,1.037074e-002
3.388370e+003,1.026175e-002
3.390299e+003,1.024866e-002
3.392227e+003,1.020856e-002
3.394156e+003,1.019431e-002
3.396084e+003,1.022009e-002
3.398013e+003,1.016080e-002
3.399941e+003,1.003505e-002
3.401870e+003,1.000603e-002
3.403798e+003,9.977071e-003
3.405727e+003,9.945100e-003
3.407655e+003,9.890691e-003
3.409584e+003,9.882013e-003
3.411512e+003,9.883505e-003
3.413441e+003,9.863066e-003
3.415369e+003,9.790231e-003
3.417298e+003,9.667230e-003
3.419226e+003,9.620410e-003
3.421155e+003,9.574816e-003
3.423083e+003,9.527396e-003
3.425012e+003,9.513138e-003
3.426940e+003,9.503790e-003
3.428869e+003,9.444019e-003
3.430797e+003,9.349486e-003
3.432726e+003,9.337975e-003
3.434654e+003,9.230975e-003
3.436583e+003,9.098996e-003
3.438511e+003,9.040498e-003
3.440440e+003,8.997264e-003
3.442368e+003,8.880271e-003
3.444297e+003,8.870159e-003
3.446225e+003,8.851593e-003
3.448154e+003,8.751982e-003
3.450082e+003,8.571347e-003
3.452011e+003,8.535425e-003
3.453939e+003,8.575842e-003
3.455868e+003,8.461090e-003
3.457796e+003,8.405042e-003
3.459725e+003,8.278549e-003
3.461653e+003,8.162423e-003
3.463582e+003,8.066447e-003
3.465510e+003,8.030296e-003
3.467439e+003,8.009269e-003
3.469367e+003,8.009168e-003
3.471296e+003,7.987568e-003
3.473224e+003,7.953010e-003
3.475153e+003,7.881946e-003
3.477081e+003,7.822870e-003
3.479010e+003,7.704977e-003
3.480938e+003,7.572214e-003
3.482867e+003,7.533172e-003
3.484795e+003,7.412426e-003
3.486724e+003,7.336935e-003
3.488652e+003,7.441008e-003
3.490581e+003,7.344213e-003
3.492509e+003,7.132399e-003
3.494438e+003,7.188552e-003
3.496366e+003,7.166992e-003
3.498295e+003,7.034865e-003
3.500223e+003,7.020688e-003
3.502152e+003,6.987554e-003
3.504080e+003,6.885306e-003
3.506009e+003,6.808963e-003
3.507937e+003,6.775071e-003
3.509866e+003,6.709517e-003
3.511794e+003,6.719847e-003
3.513723e+003,6.707464e-003
3.515651e+003,6.633609e-003
3.517580e+003,6.450288e-003
3.519508e+003,6.360236e-003
3.521437e+003,6.302207e-003
3.523365e+003,6.291214e-003
3.525294e+003,6.217766e-003
3.527222e+003,6.219951e-003
3.529151e+003,6.224791e-003
3.531079e+003,6.159689e-003
3.533008e+003,6.093117e-003
3.534936e+003,6.042919e-003
3.536865e+003,5.975896e-003
3.538793e+003,5.916272e-003
3.540722e+003,5.867672e-003
3.542650e+003,5.860787e-003
3.544579e+003,5.714150e-003
3.546507e+003,5.618578e-003
3.548436e+003,5.570146e-003
3.550364e+003,5.543767e-003
3.552293e+003,5.453031e-003
3.554221e+003,5.359966e-003
3.556150e+003,5.247200e-003
3.558078e+003,5.226710e-003
3.560007e+003,5.217823e-003
3.561935e+003,5.168932e-003
3.563864e+003,5.183552e-003
3.565792e+003,5.123132e-003
3.567721e+003,5.011065e-003
3.569649e+003,5.002418e-003
3.571578e+003,4.907941e-003
3.573506e+003,4.754690e-003
3.575435e+003,4.688133e-003
3.577363e+003,4.732950e-003
3.579292e+003,4.625773e-003
3.581220e+003,4.374110e-003
3.583149e+003,4.172637e-003
3.585077e+003,3.956177e-003
3.587006e+003,3.687057e-003
3.588934e+003,3.501969e-003
3.590863e+003,3.261205e-003
3.592791e+003,3.073462e-003
3.594720e+003,2.856415e-003
3.596648e+003,2.678048e-003
3.598577e+003,2.488391e-003
3.600505e+003,2.493223e-003
3.602434e+003,2.673814e-003
3.604362e+003,2.838338e-003
3.606291e+003,3.045700e-003
3.608219e+003,3.347978e-003
3.610148e+003,3.667576e-003
3.612076e+003,3.987877e-003
3.614005e+003,3.788254e-003
3.615933e+003,3.205124e-003
3.617862e+003,2.804422e-003
3.619790e+003,2.426279e-003
3.621719e+003,1.885171e-003
3.623647e+003,1.616101e-003
3.625576e+003,1.540446e-003
3.627504e+003,1.713124e-003
3.629433e+003,1.883075e-003
3.631361e+003,2.113054e-003
3.633290e+003,2.340889e-003
3.635218e+003,2.689484e-003
3.637146e+003,2.925094e-003
3.639075e+003,3.122084e-003
3.641004e+003,3.390487e-003
3.642932e+003,3.612912e-003
3.644861e+003,3.747278e-003
3.646789e+003,3.908164e-003
3.648718e+003,3.998511e-003
3.650646e+003,3.898034e-003
3.652574e+003,3.764824e-003
3.654503e+003,3.741095e-003
3.656432e+003,3.743568e-003
3.658360e+003,3.867377e-003
3.660289e+003,3.876169e-003
3.662217e+003,3.779664e-003
3.664146e+003,3.650267e-003
3.666074e+003,3.632391e-003
3.668002e+003,3.691201e-003
3.669931e+003,3.668779e-003
3.671860e+003,3.541419e-003
3.673788e+003,3.526554e-003
3.675717e+003,3.465562e-003
3.677645e+003,3.287846e-003
3.679573e+003,3.185998e-003
3.681502e+003,2.933667e-003
3.683430e+003,2.742364e-003
3.685359e+003,2.549479e-003
3.687288e+003,2.357779e-003
3.689216e+003,2.105462e-003
3.691145e+003,1.817356e-003
3.693073e+003,1.539150e-003
3.695001e+003,1.224038e-003
3.696930e+003,9.508273e-004
3.698858e+003,7.029771e-004
3.700787e+003,5.317623e-004
3.702716e+003,4.782217e-004
3.704644e+003,5.932392e-004
3.706573e+003,8.618758e-004
3.708501e+003,1.195895e-003
3.710429e+003,1.671445e-003
3.712358e+003,2.354481e-003
3.714286e+003,2.731061e-003
3.716215e+003,2.475595e-003
3.718144e+003,1.825807e-003
3.720072e+003,1.201377e-003
3.722000e+003,4.914238e-004
3.723929e+003,-1.052872e-004
3.725857e+003,-4.053052e-004
3.727786e+003,-4.045107e-004
3.729714e+003,-2.810845e-004
3.731643e+003,-2.915786e-006
3.733572e+003,3.186344e-004
3.735500e+003,9.050377e-004
3.737428e+003,1.393498e-003
3.739357e+003,1.745060e-003
3.741285e+003,2.293320e-003
3.743214e+003,2.863219e-003
3.745142e+003,3.080403e-003
3.747071e+003,3.244013e-003
3.749000e+003,3.537277e-003
3.750928e+003,3.693941e-003
3.752856e+003,3.650635e-003
3.754785e+003,3.531899e-003
3.756713e+003,3.407017e-003
3.758642e+003,3.388149e-003
3.760570e+003,3.460085e-003
3.762499e+003,3.460686e-003
3.764427e+003,3.462790e-003
3.766356e+003,3.511255e-003
3.768284e+003,3.540985e-003
3.770213e+003,3.580138e-003
3.772141e+003,3.525351e-003
3.774070e+003,3.442317e-003
3.775998e+003,3.485469e-003
3.777927e+003,3.485903e-003
3.779855e+003,3.430294e-003
3.781784e+003,3.444788e-003
3.783712e+003,3.482062e-003
3.785641e+003,3.483532e-003
3.787569e+003,3.460719e-003
3.789498e+003,3.459483e-003
3.791426e+003,3.488742e-003
3.793355e+003,3.483298e-003
3.795283e+003,3.441114e-003
3.797212e+003,3.431496e-003
3.799140e+003,3.527523e-003
3.801069e+003,3.646024e-003
3.802997e+003,3.559926e-003
3.804926e+003,3.499230e-003
3.806854e+003,3.531331e-003
3.808783e+003,3.517468e-003
3.810711e+003,3.502637e-003
3.812640e+003,3.523314e-003
3.814568e+003,3.590093e-003
3.816497e+003,3.589893e-003
3.818425e+003,3.537477e-003
3.820354e+003,3.619127e-003
3.822282e+003,3.586251e-003
3.824211e+003,3.491614e-003
3.826139e+003,3.536909e-003
3.828068e+003,3.599682e-003
3.829996e+003,3.619962e-003
3.831925e+003,3.560427e-003
3.833853e+003,3.558623e-003
3.835782e+003,3.597310e-003
3.837710e+003,3.685520e-003
3.839639e+003,3.665905e-003
3.841567e+003,3.576830e-003
3.843496e+003,3.522011e-003
3.845424e+003,3.559625e-003
3.847353e+003,3.618024e-003
3.849281e+003,3.581641e-003
3.851210e+003,3.752592e-003
3.853138e+003,3.889475e-003
3.855067e+003,3.806304e-003
3.856995e+003,3.605061e-003
3.858924e+003,3.509184e-003
3.860852e+003,3.576396e-003
3.862781e+003,3.524717e-003
3.864709e+003,3.565872e-003
3.866638e+003,3.655647e-003
3.868566e+003,3.636701e-003
3.870495e+003,3.580371e-003
3.872423e+003,3.586519e-003
3.874352e+003,3.641680e-003
3.876280e+003,3.631255e-003
3.878209e+003,3.648730e-003
3.880137e+003,3.705838e-003
3.882066e+003,3.699288e-003
3.883994e+003,3.638907e-003
3.885923e+003,3.679773e-003
3.887851e+003,3.656148e-003
3.889780e+003,3.692170e-003
3.891708e+003,3.728329e-003
3.893637e+003,3.775486e-003
3.895565e+003,3.683281e-003
3.897494e+003,3.622535e-003
3.899422e+003,3.658353e-003
3.901351e+003,3.682045e-003
3.903279e+003,3.765393e-003
3.905208e+003,3.729933e-003
3.907136e+003,3.636301e-003
3.909065e+003,3.583211e-003
3.910993e+003,3.528658e-003
3.912922e+003,3.548935e-003
3.914850e+003,3.539214e-003
3.916779e+003,3.626411e-003
3.918707e+003,3.686188e-003
3.920636e+003,3.722881e-003
3.922564e+003,3.686456e-003
3.924493e+003,3.635599e-003
3.926421e+003,3.594537e-003
3.928350e+003,3.628916e-003
3.930278e+003,3.572487e-003
3.932207e+003,3.633093e-003
3.934135e+003,3.741931e-003
3.936064e+003,3.633694e-003
3.937992e+003,3.544459e-003
3.939921e+003,3.586452e-003
3.941849e+003,3.642014e-003
3.943778e+003,3.639943e-003
3.945706e+003,3.608803e-003
3.947635e+003,3.516733e-003
3.949563e+003,3.490546e-003
3.951492e+003,3.571385e-003
3.953420e+003,3.563467e-003
3.955349e+003,3.550639e-003
3.957277e+003,3.551608e-003
3.959206e+003,3.509084e-003
3.961134e+003,3.506913e-003
3.963063e+003,3.595005e-003
3.964991e+003,3.632491e-003
3.966920e+003,3.589058e-003
3.968848e+003,3.535840e-003
3.970777e+003,3.574926e-003
3.972705e+003,3.635031e-003
3.974634e+003,3.652172e-003
3.976562e+003,3.567843e-003
3.978491e+003,3.464894e-003
3.980419e+003,3.522445e-003
3.982348e+003,3.531665e-003
3.984276e+003,3.482396e-003
3.986205e+003,3.514629e-003
3.988133e+003,3.516867e-003
3.990062e+003,3.549503e-003
3.991990e+003,3.515063e-003
3.993919e+003,3.469771e-003
3.995847e+003,3.528224e-003
3.997776e+003,3.501535e-003
3.999704e+003,3.460319e-003
4.001633e+003,0.000000e+000
