3.991989e+002,4.869376e-002
4.011274e+002,4.705652e-002
4.030559e+002,4.547123e-002
4.049844e+002,4.579953e-002
4.069129e+002,4.757101e-002
4.088414e+002,4.774488e-002
4.107699e+002,4.506161e-002
4.126984e+002,4.376259e-002
4.146269e+002,4.391452e-002
4.165554e+002,4.417132e-002
4.184839e+002,4.457306e-002
4.204124e+002,4.383878e-002
4.223409e+002,4.339312e-002
4.242694e+002,4.409184e-002
4.261979e+002,4.306960e-002
4.281264e+002,4.210182e-002
4.300549e+002,4.260594e-002
4.319834e+002,4.261183e-002
4.339119e+002,4.299255e-002
4.358404e+002,4.312148e-002
4.377689e+002,4.242013e-002
4.396974e+002,4.099571e-002
4.416259e+002,4.058206e-002
4.435544e+002,4.021322e-002
4.454829e+002,3.990372e-002
4.474114e+002,4.042140e-002
4.493399e+002,4.090822e-002
4.512684e+002,4.065643e-002
4.531969e+002,4.044024e-002
4.551254e+002,3.999155e-002
4.570539e+002,3.990644e-002
4.589824e+002,4.019127e-002
4.609109e+002,4.046497e-002
4.628394e+002,4.002865e-002
4.647679e+002,3.960278e-002
4.666964e+002,3.945649e-002
4.686249e+002,3.971662e-002
4.705533e+002,3.950569e-002
4.724819e+002,3.903516e-002
4.744103e+002,3.909890e-002
4.763389e+002,3.980649e-002
4.782673e+002,4.004798e-002
4.801959e+002,3.958227e-002
4.821243e+002,3.929853e-002
4.840529e+002,3.931380e-002
4.859813e+002,3.912333e-002
4.879099e+002,3.920909e-002
4.898383e+002,3.948414e-002
4.917668e+002,3.956699e-002
4.936953e+002,3.952957e-002
4.956238e+002,3.965480e-002
4.975523e+002,3.951139e-002
4.994808e+002,3.924673e-002
5.014093e+002,3.934928e-002
5.033378e+002,3.948428e-002
5.052663e+002,3.996954e-002
5.071948e+002,4.065908e-002
5.091233e+002,4.069445e-002
5.110518e+002,4.064762e-002
5.129803e+002,4.106993e-002
5.149088e+002,4.155521e-002
5.168373e+002,4.208623e-002
5.187658e+002,4.223976e-002
5.206943e+002,4.227332e-002
5.226228e+002,4.320372e-002
5.245513e+002,4.361723e-002
5.264798e+002,4.366893e-002
5.284083e+002,4.397871e-002
5.303368e+002,4.360452e-002
5.322653e+002,4.325734e-002
5.341938e+002,4.334164e-002
5.361223e+002,4.347735e-002
5.380508e+002,4.304896e-002
5.399792e+002,4.256665e-002
5.419078e+002,4.221960e-002
5.438363e+002,4.234915e-002
5.457648e+002,4.288406e-002
5.476932e+002,4.265686e-002
5.496218e+002,4.289481e-002
5.515503e+002,4.302493e-002
5.534788e+002,4.316598e-002
5.554072e+002,4.352313e-002
5.573358e+002,4.390344e-002
5.592643e+002,4.445342e-002
5.611927e+002,4.477298e-002
5.631212e+002,4.463371e-002
5.650497e+002,4.409580e-002
5.669783e+002,4.362002e-002
5.689067e+002,4.318552e-002
5.708352e+002,4.269411e-002
5.727637e+002,4.219280e-002
5.746923e+002,4.199034e-002
5.766207e+002,4.192669e-002
5.785492e+002,4.151970e-002
5.804777e+002,4.098934e-002
5.824063e+002,4.044472e-002
5.843347e+002,3.969389e-002
5.862632e+002,3.921845e-002
5.881917e+002,3.907537e-002
5.901202e+002,3.905927e-002
5.920487e+002,3.908450e-002
5.939772e+002,3.920713e-002
5.959057e+002,3.899754e-002
5.978342e+002,3.901508e-002
5.997627e+002,3.933847e-002
6.016912e+002,3.916786e-002
6.036197e+002,3.893802e-002
6.055482e+002,3.886707e-002
6.074767e+002,3.871588e-002
6.094052e+002,3.829687e-002
6.113337e+002,3.777021e-002
6.132622e+002,3.703020e-002
6.151907e+002,3.614944e-002
6.171192e+002,3.468116e-002
6.190477e+002,3.462587e-002
6.209762e+002,3.481397e-002
6.229047e+002,3.428080e-002
6.248332e+002,3.366312e-002
6.267617e+002,3.329668e-002
6.286902e+002,3.285991e-002
6.306187e+002,3.223148e-002
6.325472e+002,3.188029e-002
6.344756e+002,3.134789e-002
6.364042e+002,3.065247e-002
6.383326e+002,2.982858e-002
6.402612e+002,2.934119e-002
6.421896e+002,2.909414e-002
6.441182e+002,2.841052e-002
6.460466e+002,2.760803e-002
6.479752e+002,2.650226e-002
6.499036e+002,2.606840e-002
6.518322e+002,2.631124e-002
6.537606e+002,2.620638e-002
6.556891e+002,2.601173e-002
6.576177e+002,2.592956e-002
6.595461e+002,2.619090e-002
6.614746e+002,2.660754e-002
6.634031e+002,2.744349e-002
6.653317e+002,2.746209e-002
6.672601e+002,2.178040e-002
6.691886e+002,1.742528e-002
6.711171e+002,2.357905e-002
6.730457e+002,2.465344e-002
6.749741e+002,2.396431e-002
6.769026e+002,2.317452e-002
6.788311e+002,2.261261e-002
6.807596e+002,2.211682e-002
6.826881e+002,2.204717e-002
6.846166e+002,2.197609e-002
6.865451e+002,2.205187e-002
6.884736e+002,2.209716e-002
6.904021e+002,2.247612e-002
6.923306e+002,2.285261e-002
6.942591e+002,2.325526e-002
6.961876e+002,2.359986e-002
6.981161e+002,2.381143e-002
7.000446e+002,2.386257e-002
7.019731e+002,2.411395e-002
7.039016e+002,2.419252e-002
7.058301e+002,2.408204e-002
7.077585e+002,2.402786e-002
7.096871e+002,2.406726e-002
7.116156e+002,2.401655e-002
7.135441e+002,2.374756e-002
7.154725e+002,2.349884e-002
7.174011e+002,2.320489e-002
7.193296e+002,2.221247e-002
7.212581e+002,2.222018e-002
7.231865e+002,2.289487e-002
7.251151e+002,2.273815e-002
7.270436e+002,2.254151e-002
7.289720e+002,2.229331e-002
7.309005e+002,2.197463e-002
7.328290e+002,2.174058e-002
7.347576e+002,2.167876e-002
7.366860e+002,2.152650e-002
7.386145e+002,2.132464e-002
7.405430e+002,2.118191e-002
7.424716e+002,2.128094e-002
7.444000e+002,2.121434e-002
7.463285e+002,2.107874e-002
7.482570e+002,2.091341e-002
7.501855e+002,2.077391e-002
7.521140e+002,2.058650e-002
7.540425e+002,2.036007e-002
7.559710e+002,2.013939e-002
7.578995e+002,1.998570e-002
7.598280e+002,1.997769e-002
7.617565e+002,1.981049e-002
7.636850e+002,1.971108e-002
7.656135e+002,1.967984e-002
7.675420e+002,1.947596e-002
7.694705e+002,1.933494e-002
7.713990e+002,1.922243e-002
7.733275e+002,1.917038e-002
7.752560e+002,1.913298e-002
7.771844e+002,1.895667e-002
7.791130e+002,1.893732e-002
7.810415e+002,1.892694e-002
7.829700e+002,1.876133e-002
7.848984e+002,1.858810e-002
7.868270e+002,1.848709e-002
7.887555e+002,1.844547e-002
7.906840e+002,1.836603e-002
7.926124e+002,1.822309e-002
7.945410e+002,1.809599e-002
7.964695e+002,1.808269e-002
7.983979e+002,1.805281e-002
8.003264e+002,1.814141e-002
8.022549e+002,1.821552e-002
8.041835e+002,1.819835e-002
8.061119e+002,1.808987e-002
8.080404e+002,1.803961e-002
8.099689e+002,1.800017e-002
8.118975e+002,1.789191e-002
8.138259e+002,1.779704e-002
8.157545e+002,1.777188e-002
8.176830e+002,1.780923e-002
8.196115e+002,1.781054e-002
8.215399e+002,1.773815e-002
8.234684e+002,1.766464e-002
8.253970e+002,1.768276e-002
8.273254e+002,1.760074e-002
8.292539e+002,1.752984e-002
8.311824e+002,1.754395e-002
8.331110e+002,1.749955e-002
8.350394e+002,1.740824e-002
8.369679e+002,1.746053e-002
8.388964e+002,1.751407e-002
8.408250e+002,1.736955e-002
8.427534e+002,1.733020e-002
8.446819e+002,1.725373e-002
8.466104e+002,1.719164e-002
8.485389e+002,1.712790e-002
8.504674e+002,1.706818e-002
8.523959e+002,1.708751e-002
8.543244e+002,1.718623e-002
8.562529e+002,1.726086e-002
8.581814e+002,1.723745e-002
8.601099e+002,1.729607e-002
8.620384e+002,1.738241e-002
8.639669e+002,1.746788e-002
8.658954e+002,1.762041e-002
8.678239e+002,1.771120e-002
8.697524e+002,1.775800e-002
8.716809e+002,1.777989e-002
8.736094e+002,1.775476e-002
8.755378e+002,1.776925e-002
8.774664e+002,1.779818e-002
8.793949e+002,1.783246e-002
8.813234e+002,1.788414e-002
8.832518e+002,1.800014e-002
8.851804e+002,1.818774e-002
8.871089e+002,1.820678e-002
8.890374e+002,1.836461e-002
8.909658e+002,1.858198e-002
8.928943e+002,1.888870e-002
8.948229e+002,1.905823e-002
8.967513e+002,1.907554e-002
8.986798e+002,1.909746e-002
9.006083e+002,1.895636e-002
9.025369e+002,1.871424e-002
9.044653e+002,1.860729e-002
9.063938e+002,1.860681e-002
9.083223e+002,1.839887e-002
9.102509e+002,1.825357e-002
9.121793e+002,1.823048e-002
9.141078e+002,1.818944e-002
9.160364e+002,1.819887e-002
9.179648e+002,1.822741e-002
9.198933e+002,1.833786e-002
9.218218e+002,1.841574e-002
9.237504e+002,1.860238e-002
9.256788e+002,1.877080e-002
9.276073e+002,1.889634e-002
9.295358e+002,1.901195e-002
9.314644e+002,1.917350e-002
9.333928e+002,1.943548e-002
9.353213e+002,1.978226e-002
9.372498e+002,2.007977e-002
9.391783e+002,2.039220e-002
9.411068e+002,2.076407e-002
9.430353e+002,2.121072e-002
9.449637e+002,2.175065e-002
9.468923e+002,2.216309e-002
9.488208e+002,2.264106e-002
9.507493e+002,2.315048e-002
9.526777e+002,2.365696e-002
9.546063e+002,2.413010e-002
9.565348e+002,2.466946e-002
9.584633e+002,2.534060e-002
9.603917e+002,2.597409e-002
9.623203e+002,2.652801e-002
9.642488e+002,2.707537e-002
9.661772e+002,2.769232e-002
9.681057e+002,2.833083e-002
9.700343e+002,2.894217e-002
9.719628e+002,2.962491e-002
9.738912e+002,3.038698e-002
9.758197e+002,3.126160e-002
9.777483e+002,3.212215e-002
9.796768e+002,3.310518e-002
9.816052e+002,3.421408e-002
9.835337e+002,3.528160e-002
9.854623e+002,3.635900e-002
9.873907e+002,3.730831e-002
9.893192e+002,3.806583e-002
9.912477e+002,3.881199e-002
9.931763e+002,3.939528e-002
9.951047e+002,3.980751e-002
9.970332e+002,4.035639e-002
9.989617e+002,4.102834e-002
1.000890e+003,4.169864e-002
1.002819e+003,4.236336e-002
1.004747e+003,4.314351e-002
1.006676e+003,4.391444e-002
1.008604e+003,4.463838e-002
1.010533e+003,4.542819e-002
1.012461e+003,4.626883e-002
1.014390e+003,4.715401e-002
1.016318e+003,4.813809e-002
1.018247e+003,4.923851e-002
1.020175e+003,5.033273e-002
1.022104e+003,5.144417e-002
1.024032e+003,5.261188e-002
1.025961e+003,5.374264e-002
1.027889e+003,5.491628e-002
1.029818e+003,5.604316e-002
1.031746e+003,5.698134e-002
1.033675e+003,5.773642e-002
1.035603e+003,5.824748e-002
1.037532e+003,5.827608e-002
1.039460e+003,5.791709e-002
1.041389e+003,5.739341e-002
1.043317e+003,5.692596e-002
1.045246e+003,5.642585e-002
1.047174e+003,5.587988e-002
1.049103e+003,5.543145e-002
1.051031e+003,5.516636e-002
1.052960e+003,5.488869e-002
1.054888e+003,5.446111e-002
1.056817e+003,5.391847e-002
1.058745e+003,5.335376e-002
1.060674e+003,5.271972e-002
1.062602e+003,5.190471e-002
1.064531e+003,5.104632e-002
1.066459e+003,5.005106e-002
1.068388e+003,4.912541e-002
1.070316e+003,4.830163e-002
1.072245e+003,4.741496e-002
1.074173e+003,4.649955e-002
1.076102e+003,4.558302e-002
1.078030e+003,4.459586e-002
1.079959e+003,4.357188e-002
1.081887e+003,4.256051e-002
1.083816e+003,4.156134e-002
1.085744e+003,4.071840e-002
1.087673e+003,4.000172e-002
1.089601e+003,3.941465e-002
1.091530e+003,3.884286e-002
1.093458e+003,3.828189e-002
1.095387e+003,3.773501e-002
1.097315e+003,3.727350e-002
1.099244e+003,3.687907e-002
1.101172e+003,3.655651e-002
1.103101e+003,3.627452e-002
1.105029e+003,3.587607e-002
1.106958e+003,3.538598e-002
1.108886e+003,3.482962e-002
1.110815e+003,3.410105e-002
1.112743e+003,3.328838e-002
1.114672e+003,3.243869e-002
1.116600e+003,3.156761e-002
1.118529e+003,3.070642e-002
1.120457e+003,2.996900e-002
1.122386e+003,2.925845e-002
1.124314e+003,2.853032e-002
1.126243e+003,2.774261e-002
1.128171e+003,2.686263e-002
1.130100e+003,2.607840e-002
1.132028e+003,2.543833e-002
1.133957e+003,2.481584e-002
1.135885e+003,2.430015e-002
1.137814e+003,2.391774e-002
1.139742e+003,2.363100e-002
1.141671e+003,2.345232e-002
1.143599e+003,2.336711e-002
1.145528e+003,2.339648e-002
1.147456e+003,2.342914e-002
1.149385e+003,2.344635e-002
1.151313e+003,2.345344e-002
1.153242e+003,2.347212e-002
1.155170e+003,2.356380e-002
1.157099e+003,2.354666e-002
1.159027e+003,2.342354e-002
1.160956e+003,2.322360e-002
1.162884e+003,2.289037e-002
1.164813e+003,2.241963e-002
1.166741e+003,2.175459e-002
1.168670e+003,2.096025e-002
1.170598e+003,2.009639e-002
1.172526e+003,1.914888e-002
1.174455e+003,1.827406e-002
1.176384e+003,1.745557e-002
1.178312e+003,1.672538e-002
1.180240e+003,1.611215e-002
1.182169e+003,1.559800e-002
1.184098e+003,1.519771e-002
1.186026e+003,1.493395e-002
1.187954e+003,1.474634e-002
1.189883e+003,1.466408e-002
1.191812e+003,1.466089e-002
1.193740e+003,1.473602e-002
1.195668e+003,1.489794e-002
1.197597e+003,1.514415e-002
1.199526e+003,1.542853e-002
1.201454e+003,1.565670e-002
1.203382e+003,1.578879e-002
1.205311e+003,1.591241e-002
1.207240e+003,1.599666e-002
1.209168e+003,1.606569e-002
1.211096e+003,1.616136e-002
1.213025e+003,1.631686e-002
1.214953e+003,1.653200e-002
1.216882e+003,1.673933e-002
1.218810e+003,1.689125e-002
1.220739e+003,1.712725e-002
1.222667e+003,1.736027e-002
1.224596e+003,1.759373e-002
1.226524e+003,1.779311e-002
1.228453e+003,1.800224e-002
1.230381e+003,1.817182e-002
1.232310e+003,1.827727e-002
1.234238e+003,1.833741e-002
1.236167e+003,1.837719e-002
1.238095e+003,1.840049e-002
1.240024e+003,1.843980e-002
1.241952e+003,1.840208e-002
1.243881e+003,1.835649e-002
1.245809e+003,1.829836e-002
1.247738e+003,1.823266e-002
1.249666e+003,1.816155e-002
1.251595e+003,1.805909e-002
1.253523e+003,1.791246e-002
1.255452e+003,1.782224e-002
1.257380e+003,1.771482e-002
1.259309e+003,1.758614e-002
1.261237e+003,1.738310e-002
1.263166e+003,1.709292e-002
1.265094e+003,1.687351e-002
1.267023e+003,1.667989e-002
1.268951e+003,1.648072e-002
1.270880e+003,1.628745e-002
1.272808e+003,1.609385e-002
1.274737e+003,1.587426e-002
1.276665e+003,1.568219e-002
1.278594e+003,1.552574e-002
1.280522e+003,1.537027e-002
1.282451e+003,1.521109e-002
1.284379e+003,1.506109e-002
1.286308e+003,1.490528e-002
1.288236e+003,1.473503e-002
1.290165e+003,1.461490e-002
1.292093e+003,1.454925e-002
1.294022e+003,1.450364e-002
1.295950e+003,1.453222e-002
1.297879e+003,1.458910e-002
1.299807e+003,1.463238e-002
1.301736e+003,1.473386e-002
1.303664e+003,1.483910e-002
1.305593e+003,1.498467e-002
1.307521e+003,1.515204e-002
1.309450e+003,1.524380e-002
1.311378e+003,1.533595e-002
1.313307e+003,1.548755e-002
1.315235e+003,1.555218e-002
1.317164e+003,1.555263e-002
1.319092e+003,1.553721e-002
1.321021e+003,1.548549e-002
1.322949e+003,1.535150e-002
1.324878e+003,1.524132e-002
1.326806e+003,1.521168e-002
1.328735e+003,1.520286e-002
1.330663e+003,1.521470e-002
1.332592e+003,1.521761e-002
1.334520e+003,1.518889e-002
1.336449e+003,1.519328e-002
1.338377e+003,1.517136e-002
1.340306e+003,1.506552e-002
1.342234e+003,1.496063e-002
1.344163e+003,1.493306e-002
1.346091e+003,1.493930e-002
1.348020e+003,1.493186e-002
1.349948e+003,1.493381e-002
1.351877e+003,1.497668e-002
1.353805e+003,1.507382e-002
1.355734e+003,1.515880e-002
1.357662e+003,1.524706e-002
1.359591e+003,1.534120e-002
1.361519e+003,1.544755e-002
1.363448e+003,1.559188e-002
1.365376e+003,1.571389e-002
1.367305e+003,1.580597e-002
1.369233e+003,1.583250e-002
1.371162e+003,1.583776e-002
1.373090e+003,1.578144e-002
1.375019e+003,1.565690e-002
1.376947e+003,1.553862e-002
1.378876e+003,1.544910e-002
1.380804e+003,1.522540e-002
1.382733e+003,1.502158e-002
1.384661e+003,1.483369e-002
1.386590e+003,1.469297e-002
1.388518e+003,1.452139e-002
1.390447e+003,1.438721e-002
1.392375e+003,1.432951e-002
1.394304e+003,1.430879e-002
1.396232e+003,1.425400e-002
1.398161e+003,1.424400e-002
1.400089e+003,1.420083e-002
1.402018e+003,1.417444e-002
1.403946e+003,1.419932e-002
1.405875e+003,1.421939e-002
1.407803e+003,1.422969e-002
1.409732e+003,1.424578e-002
1.411660e+003,1.426475e-002
1.413589e+003,1.433848e-002
1.415517e+003,1.442698e-002
1.417446e+003,1.450320e-002
1.419374e+003,1.456768e-002
1.421303e+003,1.449368e-002
1.423231e+003,1.442153e-002
1.425160e+003,1.435999e-002
1.427088e+003,1.427328e-002
1.429017e+003,1.424479e-002
1.430945e+003,1.419542e-002
1.432874e+003,1.410293e-002
1.434802e+003,1.401853e-002
1.436731e+003,1.399817e-002
1.438659e+003,1.386720e-002
1.440588e+003,1.377378e-002
1.442516e+003,1.370945e-002
1.444445e+003,1.368295e-002
1.446373e+003,1.370908e-002
1.448302e+003,1.375186e-002
1.450230e+003,1.374485e-002
1.452159e+003,1.371287e-002
1.454087e+003,1.366743e-002
1.456016e+003,1.370480e-002
1.457944e+003,1.354722e-002
1.459873e+003,1.327934e-002
1.461801e+003,1.308052e-002
1.463730e+003,1.300684e-002
1.465658e+003,1.286787e-002
1.467587e+003,1.255947e-002
1.469515e+003,1.226616e-002
1.471444e+003,1.201422e-002
1.473372e+003,1.171099e-002
1.475301e+003,1.145134e-002
1.477229e+003,1.122715e-002
1.479158e+003,1.106727e-002
1.481086e+003,1.101907e-002
1.483015e+003,1.104833e-002
1.484943e+003,1.110785e-002
1.486872e+003,1.121535e-002
1.488800e+003,1.135236e-002
1.490729e+003,1.151874e-002
1.492657e+003,1.166943e-002
1.494586e+003,1.192454e-002
1.496514e+003,1.220062e-002
1.498443e+003,1.239886e-002
1.500371e+003,1.260856e-002
1.502300e+003,1.290361e-002
1.504228e+003,1.331282e-002
1.506157e+003,1.365454e-002
1.508085e+003,1.374919e-002
1.510014e+003,1.376475e-002
1.511942e+003,1.386484e-002
1.513871e+003,1.398784e-002
1.515799e+003,1.412685e-002
1.517728e+003,1.408431e-002
1.519656e+003,1.401542e-002
1.521585e+003,1.401785e-002
1.523513e+003,1.393189e-002
1.525442e+003,1.394914e-002
1.527370e+003,1.395848e-002
1.529299e+003,1.395670e-002
1.531227e+003,1.400327e-002
1.533156e+003,1.412234e-002
1.535084e+003,1.409827e-002
1.537013e+003,1.408390e-002
1.538941e+003,1.418762e-002
1.540870e+003,1.416085e-002
1.542798e+003,1.397986e-002
1.544727e+003,1.384260e-002
1.546655e+003,1.366927e-002
1.548584e+003,1.347906e-002
1.550512e+003,1.329826e-002
1.552441e+003,1.314902e-002
1.554369e+003,1.302329e-002
1.556298e+003,1.290340e-002
1.558226e+003,1.289958e-002
1.560155e+003,1.274068e-002
1.562083e+003,1.243821e-002
1.564012e+003,1.232679e-002
1.565940e+003,1.222250e-002
1.567869e+003,1.217649e-002
1.569797e+003,1.222417e-002
1.571726e+003,1.220144e-002
1.573654e+003,1.222979e-002
1.575583e+003,1.241199e-002
1.577511e+003,1.245897e-002
1.579440e+003,1.245976e-002
1.581368e+003,1.254372e-002
1.583297e+003,1.270633e-002
1.585225e+003,1.286964e-002
1.587154e+003,1.301069e-002
1.589082e+003,1.321214e-002
1.591010e+003,1.343539e-002
1.592939e+003,1.363146e-002
1.594868e+003,1.376397e-002
1.596796e+003,1.388283e-002
1.598724e+003,1.405460e-002
1.600653e+003,1.423637e-002
1.602582e+003,1.431242e-002
1.604510e+003,1.440605e-002
1.606438e+003,1.449607e-002
1.608367e+003,1.462189e-002
1.610296e+003,1.481456e-002
1.612224e+003,1.501499e-002
1.614152e+003,1.532222e-002
1.616081e+003,1.575052e-002
1.618010e+003,1.607522e-002
1.619938e+003,1.639889e-002
1.621866e+003,1.683155e-002
1.623795e+003,1.721391e-002
1.625724e+003,1.750879e-002
1.627652e+003,1.775700e-002
1.629580e+003,1.786695e-002
1.631509e+003,1.789236e-002
1.633438e+003,1.797727e-002
1.635366e+003,1.806372e-002
1.637294e+003,1.793815e-002
1.639223e+003,1.780681e-002
1.641151e+003,1.777101e-002
1.643080e+003,1.774886e-002
1.645008e+003,1.780332e-002
1.646937e+003,1.783412e-002
1.648865e+003,1.767669e-002
1.650794e+003,1.765919e-002
1.652722e+003,1.781258e-002
1.654651e+003,1.757113e-002
1.656579e+003,1.727193e-002
1.658508e+003,1.699126e-002
1.660436e+003,1.670968e-002
1.662365e+003,1.641093e-002
1.664293e+003,1.603196e-002
1.666222e+003,1.568950e-002
1.668150e+003,1.542335e-002
1.670079e+003,1.508830e-002
1.672007e+003,1.465626e-002
1.673936e+003,1.431488e-002
1.675864e+003,1.396433e-002
1.677793e+003,1.353218e-002
1.679721e+003,1.319425e-002
1.681650e+003,1.289221e-002
1.683578e+003,1.264140e-002
1.685507e+003,1.226728e-002
1.687435e+003,1.181200e-002
1.689364e+003,1.147642e-002
1.691292e+003,1.123837e-002
1.693221e+003,1.102434e-002
1.695149e+003,1.089749e-002
1.697078e+003,1.056978e-002
1.699006e+003,1.033715e-002
1.700935e+003,1.007181e-002
1.702863e+003,9.602253e-003
1.704792e+003,9.395700e-003
1.706720e+003,9.250335e-003
1.708649e+003,9.098015e-003
1.710577e+003,8.946662e-003
1.712506e+003,8.853453e-003
1.714434e+003,8.811625e-003
1.716363e+003,8.811523e-003
1.718291e+003,8.776832e-003
1.720220e+003,8.657937e-003
1.722148e+003,8.616769e-003
1.724077e+003,8.567055e-003
1.726005e+003,8.491734e-003
1.727934e+003,8.452508e-003
1.729862e+003,8.378254e-003
1.731791e+003,8.349576e-003
1.733719e+003,8.376329e-003
1.735648e+003,8.191123e-003
1.737576e+003,8.007919e-003
1.739505e+003,7.931312e-003
1.741433e+003,7.783333e-003
1.743362e+003,7.645554e-003
1.745290e+003,7.489177e-003
1.747219e+003,7.333868e-003
1.749147e+003,7.212537e-003
1.751076e+003,7.103837e-003
1.753004e+003,6.904663e-003
1.754933e+003,6.744446e-003
1.756861e+003,6.662207e-003
1.758790e+003,6.516577e-003
1.760718e+003,6.445882e-003
1.762647e+003,6.339189e-003
1.764575e+003,6.248488e-003
1.766504e+003,6.271616e-003
1.768432e+003,6.260186e-003
1.770361e+003,6.189398e-003
1.772289e+003,6.204624e-003
1.774218e+003,6.111902e-003
1.776146e+003,6.037577e-003
1.778075e+003,6.064893e-003
1.780003e+003,6.102929e-003
1.781932e+003,6.074973e-003
1.783860e+003,6.045506e-003
1.785789e+003,6.072453e-003
1.787717e+003,5.999512e-003
1.789646e+003,6.042348e-003
1.791574e+003,6.117715e-003
1.793503e+003,6.058341e-003
1.795431e+003,6.099233e-003
1.797360e+003,6.138785e-003
1.799288e+003,6.103467e-003
1.801217e+003,6.084247e-003
1.803145e+003,6.066270e-003
1.805074e+003,6.100947e-003
1.807002e+003,6.107533e-003
1.808931e+003,6.097117e-003
1.810859e+003,6.101451e-003
1.812788e+003,6.087875e-003
1.814716e+003,6.129376e-003
1.816645e+003,6.173501e-003
1.818573e+003,6.222573e-003
1.820502e+003,6.240387e-003
1.822430e+003,6.271414e-003
1.824359e+003,6.325237e-003
1.826287e+003,6.274338e-003
1.828216e+003,6.217833e-003
1.830144e+003,6.261329e-003
1.832073e+003,6.319386e-003
1.834001e+003,6.300694e-003
1.835930e+003,6.282440e-003
1.837858e+003,6.206573e-003
1.839787e+003,6.152497e-003
1.841715e+003,6.202003e-003
1.843644e+003,6.378124e-003
1.845572e+003,6.419618e-003
1.847501e+003,6.392112e-003
1.849429e+003,6.395878e-003
1.851358e+003,6.422510e-003
1.853286e+003,6.348771e-003
1.855215e+003,6.328766e-003
1.857143e+003,6.492125e-003
1.859072e+003,6.515501e-003
1.861000e+003,6.425907e-003
1.862929e+003,6.447900e-003
1.864857e+003,6.435692e-003
1.866786e+003,6.387337e-003
1.868714e+003,6.524885e-003
1.870643e+003,6.489535e-003
1.872571e+003,6.455904e-003
1.874500e+003,6.576283e-003
1.876428e+003,6.570161e-003
1.878357e+003,6.412019e-003
1.880285e+003,6.486542e-003
1.882214e+003,6.539618e-003
1.884142e+003,6.421468e-003
1.886071e+003,6.568445e-003
1.887999e+003,6.623920e-003
1.889928e+003,6.600773e-003
1.891856e+003,6.774701e-003
1.893785e+003,6.825254e-003
1.895713e+003,6.602725e-003
1.897642e+003,6.536052e-003
1.899570e+003,6.718939e-003
1.901499e+003,6.781701e-003
1.903427e+003,6.633138e-003
1.905356e+003,6.495085e-003
1.907284e+003,6.471441e-003
1.909213e+003,6.622675e-003
1.911141e+003,6.618099e-003
1.913070e+003,6.736403e-003
1.914998e+003,6.884498e-003
1.916927e+003,6.843295e-003
1.918855e+003,6.763528e-003
1.920784e+003,6.571977e-003
1.922712e+003,6.625837e-003
1.924641e+003,6.768273e-003
1.926569e+003,6.811185e-003
1.928498e+003,6.751514e-003
1.930426e+003,6.980011e-003
1.932355e+003,7.005905e-003
1.934283e+003,6.797284e-003
1.936212e+003,7.009137e-003
1.938140e+003,7.240298e-003
1.940069e+003,7.255594e-003
1.941997e+003,6.995130e-003
1.943926e+003,6.502316e-003
1.945854e+003,6.836328e-003
1.947783e+003,6.832390e-003
1.949711e+003,6.581027e-003
1.951640e+003,6.665740e-003
1.953568e+003,6.136668e-003
1.955497e+003,6.182542e-003
1.957425e+003,7.005333e-003
1.959354e+003,6.454054e-003
1.961282e+003,5.675207e-003
1.963211e+003,6.264254e-003
1.965139e+003,6.946880e-003
1.967068e+003,6.840266e-003
1.968996e+003,7.203644e-003
1.970925e+003,6.946712e-003
1.972853e+003,7.128593e-003
1.974782e+003,6.425738e-003
1.976710e+003,5.959939e-003
1.978639e+003,5.872877e-003
1.980567e+003,5.824014e-003
1.982496e+003,5.938542e-003
1.984424e+003,5.219265e-003
1.986353e+003,5.549103e-003
1.988281e+003,6.271481e-003
1.990210e+003,5.930346e-003
1.992138e+003,5.473062e-003
1.994067e+003,5.532693e-003
1.995995e+003,5.689038e-003
1.997924e+003,5.068821e-003
1.999852e+003,4.678755e-003
2.001781e+003,4.689506e-003
2.003709e+003,5.283455e-003
2.005638e+003,5.408408e-003
2.007566e+003,4.949529e-003
2.009495e+003,4.176116e-003
2.011423e+003,3.007763e-003
2.013352e+003,3.124086e-003
2.015280e+003,4.481125e-003
2.017208e+003,4.904891e-003
2.019137e+003,4.448284e-003
2.021066e+003,3.534304e-003
2.022994e+003,2.949279e-003
2.024922e+003,2.608009e-003
2.026851e+003,2.314606e-003
2.028780e+003,2.561344e-003
2.030708e+003,3.982025e-003
2.032636e+003,3.462623e-003
2.034565e+003,2.487225e-003
2.036494e+003,2.251452e-003
2.038422e+003,2.455368e-003
2.040350e+003,2.409586e-003
2.042279e+003,2.696885e-003
2.044208e+003,2.633910e-003
2.046136e+003,2.307244e-003
2.048064e+003,2.910850e-003
2.049993e+003,3.512825e-003
2.051921e+003,3.562565e-003
2.053850e+003,2.944275e-003
2.055778e+003,3.125755e-003
2.057707e+003,3.388416e-003
2.059635e+003,3.447694e-003
2.061564e+003,3.468668e-003
2.063492e+003,3.354356e-003
2.065421e+003,3.111471e-003
2.067349e+003,3.038025e-003
2.069278e+003,3.236369e-003
2.071206e+003,3.174182e-003
2.073135e+003,2.897141e-003
2.075063e+003,2.893405e-003
2.076992e+003,3.316926e-003
2.078920e+003,3.578701e-003
2.080849e+003,3.640009e-003
2.082777e+003,3.630353e-003
2.084706e+003,3.709781e-003
2.086634e+003,3.716732e-003
2.088563e+003,3.739324e-003
2.090491e+003,3.691702e-003
2.092420e+003,3.591530e-003
2.094348e+003,3.639408e-003
2.096277e+003,3.828599e-003
2.098205e+003,4.063859e-003
2.100134e+003,4.250224e-003
2.102062e+003,3.979851e-003
2.103991e+003,3.873796e-003
2.105919e+003,3.806404e-003
2.107848e+003,3.986506e-003
2.109776e+003,4.293556e-003
2.111705e+003,4.305570e-003
2.113633e+003,4.527561e-003
2.115562e+003,4.490733e-003
2.117490e+003,4.408953e-003
2.119419e+003,4.521769e-003
2.121347e+003,4.307511e-003
2.123276e+003,4.192442e-003
2.125204e+003,4.068474e-003
2.127133e+003,3.874999e-003
2.129061e+003,3.850695e-003
2.130990e+003,3.887803e-003
2.132918e+003,3.542288e-003
2.134847e+003,3.340232e-003
2.136775e+003,3.451401e-003
2.138704e+003,3.549837e-003
2.140632e+003,3.418438e-003
2.142561e+003,2.544713e-003
2.144489e+003,1.920681e-003
2.146418e+003,2.405887e-003
2.148346e+003,3.034121e-003
2.150275e+003,2.852113e-003
2.152203e+003,1.458223e-003
2.154132e+003,9.221709e-004
2.156060e+003,5.082753e-004
2.157989e+003,1.279698e-003
2.159917e+003,2.887434e-003
2.161846e+003,2.516384e-003
2.163774e+003,2.129036e-003
2.165703e+003,2.530782e-003
2.167631e+003,3.451167e-003
2.169560e+003,3.520909e-003
2.171488e+003,3.359198e-003
2.173417e+003,3.787419e-003
2.175345e+003,3.782238e-003
2.177274e+003,3.987476e-003
2.179202e+003,3.242911e-003
2.181131e+003,3.111104e-003
2.183059e+003,3.476217e-003
2.184988e+003,4.258588e-003
2.186916e+003,4.130655e-003
2.188845e+003,3.293121e-003
2.190773e+003,3.403176e-003
2.192702e+003,4.321666e-003
2.194630e+003,4.060146e-003
2.196559e+003,3.874932e-003
2.198487e+003,4.214523e-003
2.200416e+003,4.572127e-003
2.202344e+003,5.049345e-003
2.204273e+003,4.965080e-003
2.206201e+003,4.790033e-003
2.208130e+003,4.800452e-003
2.210058e+003,4.755762e-003
2.211987e+003,4.952613e-003
2.213915e+003,4.820085e-003
2.215844e+003,4.499906e-003
2.217772e+003,3.841035e-003
2.219701e+003,3.700692e-003
2.221629e+003,4.480288e-003
2.223558e+003,4.717676e-003
2.225486e+003,4.637393e-003
2.227415e+003,4.729567e-003
2.229343e+003,4.754456e-003
2.231272e+003,5.028931e-003
2.233200e+003,5.042004e-003
2.235129e+003,4.903920e-003
2.237057e+003,4.909046e-003
2.238986e+003,4.880195e-003
2.240914e+003,4.732917e-003
2.242843e+003,4.731409e-003
2.244771e+003,4.844577e-003
2.246700e+003,4.435832e-003
2.248628e+003,4.177588e-003
2.250557e+003,4.178458e-003
2.252485e+003,4.134434e-003
2.254414e+003,4.015465e-003
2.256342e+003,4.163906e-003
2.258271e+003,3.979751e-003
2.260199e+003,3.827831e-003
2.262128e+003,3.946313e-003
2.264056e+003,3.759176e-003
2.265985e+003,3.560527e-003
2.267913e+003,3.630487e-003
2.269842e+003,3.453405e-003
2.271770e+003,3.555349e-003
2.273699e+003,3.644754e-003
2.275627e+003,4.026802e-003
2.277556e+003,4.376352e-003
2.279484e+003,4.554581e-003
2.281413e+003,4.533855e-003
2.283341e+003,4.496859e-003
2.285270e+003,4.361258e-003
2.287198e+003,3.978581e-003
2.289127e+003,3.498161e-003
2.291055e+003,3.155191e-003
2.292984e+003,2.582243e-003
2.294912e+003,2.059184e-003
2.296841e+003,1.429533e-003
2.298769e+003,8.590870e-004
2.300698e+003,2.680708e-004
2.302626e+003,-1.699444e-004
2.304555e+003,-1.134617e-003
2.306483e+003,-2.643786e-003
2.308412e+003,-4.045618e-003
2.310340e+003,-5.466727e-003
2.312269e+003,-6.618106e-003
2.314197e+003,-7.109965e-003
2.316125e+003,-8.059978e-003
2.318054e+003,-1.010189e-002
2.319983e+003,-1.304585e-002
2.321911e+003,-1.568591e-002
2.323840e+003,-1.724993e-002
2.325768e+003,-1.857271e-002
2.327697e+003,-2.018585e-002
2.329625e+003,-2.162862e-002
2.331553e+003,-2.217822e-002
2.333482e+003,-2.263708e-002
2.335411e+003,-2.363141e-002
2.337339e+003,-2.449883e-002
2.339268e+003,-2.519963e-002
2.341196e+003,-2.687583e-002
2.343125e+003,-2.642333e-002
2.345053e+003,-2.299167e-002
2.346981e+003,-1.634769e-002
2.348910e+003,-1.413629e-002
2.350839e+003,-1.902382e-002
2.352767e+003,-2.584037e-002
2.354696e+003,-3.157158e-002
2.356624e+003,-3.647463e-002
2.358552e+003,-3.926395e-002
2.360481e+003,-4.010539e-002
2.362409e+003,-3.922798e-002
2.364338e+003,-3.646713e-002
2.366267e+003,-3.244618e-002
2.368195e+003,-2.759890e-002
2.370124e+003,-2.254772e-002
2.372052e+003,-1.745992e-002
2.373980e+003,-1.254931e-002
2.375909e+003,-8.258627e-003
2.377838e+003,-4.791000e-003
2.379766e+003,-1.751276e-003
2.381695e+003,1.126061e-003
2.383623e+003,3.522846e-003
2.385552e+003,5.044149e-003
2.387480e+003,5.820958e-003
2.389408e+003,6.055754e-003
2.391337e+003,6.057601e-003
2.393266e+003,5.918656e-003
2.395194e+003,5.896556e-003
2.397123e+003,6.022760e-003
2.399051e+003,6.168696e-003
2.400979e+003,6.123361e-003
2.402908e+003,5.983790e-003
2.404836e+003,5.970084e-003
2.406765e+003,6.061936e-003
2.408694e+003,6.037913e-003
2.410622e+003,6.062944e-003
2.412551e+003,6.117110e-003
2.414479e+003,6.107197e-003
2.416407e+003,6.124033e-003
2.418336e+003,6.120605e-003
2.420264e+003,6.088716e-003
2.422193e+003,6.152194e-003
2.424122e+003,6.148766e-003
2.426050e+003,6.239211e-003
2.427979e+003,6.198978e-003
2.429907e+003,6.164192e-003
2.431835e+003,6.174947e-003
2.433764e+003,6.225967e-003
2.435692e+003,6.133073e-003
2.437621e+003,6.046447e-003
2.439550e+003,6.174745e-003
2.441478e+003,6.365649e-003
2.443406e+003,6.382999e-003
2.445335e+003,6.360942e-003
2.447263e+003,6.332263e-003
2.449192e+003,6.353478e-003
2.451121e+003,6.402737e-003
2.453049e+003,6.431220e-003
2.454978e+003,6.442015e-003
2.456906e+003,6.475006e-003
2.458834e+003,6.506117e-003
2.460763e+003,6.489065e-003
2.462691e+003,6.363363e-003
2.464620e+003,6.363498e-003
2.466549e+003,6.438147e-003
2.468477e+003,6.432767e-003
2.470406e+003,6.359698e-003
2.472334e+003,6.360337e-003
2.474262e+003,6.331658e-003
2.476191e+003,6.401056e-003
2.478119e+003,6.489737e-003
2.480048e+003,6.546883e-003
2.481977e+003,6.544663e-003
2.483905e+003,6.456576e-003
2.485833e+003,6.432262e-003
2.487762e+003,6.522396e-003
2.489690e+003,6.509783e-003
2.491619e+003,6.495085e-003
2.493547e+003,6.519773e-003
2.495476e+003,6.487988e-003
2.497405e+003,6.455736e-003
2.499333e+003,6.487988e-003
2.501261e+003,6.500500e-003
2.503190e+003,6.495926e-003
2.505118e+003,6.472013e-003
2.507047e+003,6.560372e-003
2.508975e+003,6.504368e-003
2.510904e+003,6.420392e-003
2.512833e+003,6.520243e-003
2.514761e+003,6.619075e-003
2.516689e+003,6.620488e-003
2.518618e+003,6.598721e-003
2.520546e+003,6.476553e-003
2.522475e+003,6.421871e-003
2.524403e+003,6.516812e-003
2.526332e+003,6.413734e-003
2.528260e+003,6.420627e-003
2.530189e+003,6.560406e-003
2.532117e+003,6.609554e-003
2.534046e+003,6.687308e-003
2.535974e+003,6.787591e-003
2.537903e+003,6.766994e-003
2.539831e+003,6.646696e-003
2.541760e+003,6.617124e-003
2.543688e+003,6.580993e-003
2.545617e+003,6.559666e-003
2.547545e+003,6.691379e-003
2.549474e+003,6.715439e-003
2.551402e+003,6.658742e-003
2.553331e+003,6.718939e-003
2.555259e+003,6.708507e-003
2.557188e+003,6.601177e-003
2.559116e+003,6.762788e-003
2.561045e+003,6.867026e-003
2.562973e+003,6.743572e-003
2.564902e+003,6.674993e-003
2.566830e+003,6.597511e-003
2.568759e+003,6.756797e-003
2.570687e+003,6.850734e-003
2.572616e+003,6.843093e-003
2.574544e+003,6.879919e-003
2.576473e+003,6.824009e-003
2.578401e+003,6.707531e-003
2.580330e+003,6.653224e-003
2.582258e+003,6.571069e-003
2.584187e+003,6.668667e-003
2.586115e+003,6.837203e-003
2.588044e+003,6.849624e-003
2.589972e+003,6.743908e-003
2.591901e+003,6.764470e-003
2.593829e+003,6.728462e-003
2.595758e+003,6.609588e-003
2.597686e+003,6.564173e-003
2.599615e+003,6.566091e-003
2.601543e+003,6.632196e-003
2.603472e+003,6.618435e-003
2.605400e+003,6.648042e-003
2.607329e+003,6.634080e-003
2.609257e+003,6.587788e-003
2.611186e+003,6.599361e-003
2.613114e+003,6.523674e-003
2.615043e+003,6.513886e-003
2.616971e+003,6.551794e-003
2.618900e+003,6.633710e-003
2.620828e+003,6.626409e-003
2.622757e+003,6.554452e-003
2.624685e+003,6.534505e-003
2.626614e+003,6.532823e-003
2.628542e+003,6.538777e-003
2.630471e+003,6.560675e-003
2.632399e+003,6.531007e-003
2.634328e+003,6.516241e-003
2.636256e+003,6.593574e-003
2.638185e+003,6.623381e-003
2.640113e+003,6.596636e-003
2.642042e+003,6.594079e-003
2.643970e+003,6.634988e-003
2.645899e+003,6.679468e-003
2.647827e+003,6.745725e-003
2.649756e+003,6.774196e-003
2.651684e+003,6.796241e-003
2.653613e+003,6.798597e-003
2.655541e+003,6.768441e-003
2.657470e+003,6.789678e-003
2.659398e+003,6.889379e-003
2.661327e+003,6.974860e-003
2.663255e+003,6.965533e-003
2.665184e+003,6.949372e-003
2.667112e+003,6.962604e-003
2.669041e+003,6.988530e-003
2.670969e+003,7.021092e-003
2.672898e+003,7.014087e-003
2.674826e+003,6.988328e-003
2.676755e+003,6.959405e-003
2.678683e+003,6.993379e-003
2.680612e+003,7.019139e-003
2.682540e+003,7.037862e-003
2.684469e+003,7.093598e-003
2.686397e+003,7.076624e-003
2.688326e+003,7.061267e-003
2.690254e+003,7.085885e-003
2.692183e+003,7.129671e-003
2.694111e+003,7.119499e-003
2.696040e+003,7.146040e-003
2.697968e+003,7.168171e-003
2.699897e+003,7.164365e-003
2.701825e+003,7.223587e-003
2.703754e+003,7.276686e-003
2.705682e+003,7.241174e-003
2.707611e+003,7.220556e-003
2.709539e+003,7.268835e-003
2.711468e+003,7.309673e-003
2.713396e+003,7.317828e-003
2.715325e+003,7.325612e-003
2.717253e+003,7.331880e-003
2.719182e+003,7.356446e-003
2.721110e+003,7.338384e-003
2.723039e+003,7.334340e-003
2.724967e+003,7.402685e-003
2.726896e+003,7.394394e-003
2.728824e+003,7.360322e-003
2.730753e+003,7.382801e-003
2.732681e+003,7.411010e-003
2.734610e+003,7.458806e-003
2.736538e+003,7.456379e-003
2.738467e+003,7.466120e-003
2.740395e+003,7.489785e-003
2.742324e+003,7.524609e-003
2.744252e+003,7.564122e-003
2.746181e+003,7.583644e-003
2.748109e+003,7.604044e-003
2.750038e+003,7.597132e-003
2.751966e+003,7.533003e-003
2.753895e+003,7.510483e-003
2.755823e+003,7.511360e-003
2.757752e+003,7.549658e-003
2.759680e+003,7.550299e-003
2.761609e+003,7.558087e-003
2.763537e+003,7.635067e-003
2.765466e+003,7.644003e-003
2.767394e+003,7.631695e-003
2.769323e+003,7.598582e-003
2.771251e+003,7.574507e-003
2.773180e+003,7.582936e-003
2.775108e+003,7.649095e-003
2.777037e+003,7.704843e-003
2.778965e+003,7.666362e-003
2.780894e+003,7.652535e-003
2.782822e+003,7.652906e-003
2.784750e+003,7.618813e-003
2.786679e+003,7.696175e-003
2.788608e+003,7.771358e-003
2.790536e+003,7.765286e-003
2.792465e+003,7.768592e-003
2.794393e+003,7.757561e-003
2.796322e+003,7.752974e-003
2.798250e+003,7.776957e-003
2.800178e+003,7.766399e-003
2.802107e+003,7.838659e-003
2.804036e+003,7.881069e-003
2.805964e+003,7.913259e-003
2.807893e+003,7.962223e-003
2.809821e+003,7.956115e-003
2.811750e+003,7.945282e-003
2.813678e+003,8.012509e-003
2.815606e+003,8.057266e-003
2.817535e+003,8.027360e-003
2.819464e+003,8.061282e-003
2.821392e+003,8.073806e-003
2.823321e+003,8.089131e-003
2.825249e+003,8.145475e-003
2.827177e+003,8.179879e-003
2.829106e+003,8.212125e-003
2.831034e+003,8.221782e-003
2.832963e+003,8.242516e-003
2.834892e+003,8.237822e-003
2.836820e+003,8.361466e-003
2.838749e+003,8.508257e-003
2.840677e+003,8.520590e-003
2.842605e+003,8.512210e-003
2.844534e+003,8.630525e-003
2.846462e+003,8.717059e-003
2.848391e+003,8.775514e-003
2.850320e+003,8.784406e-003
2.852248e+003,8.799891e-003
2.854177e+003,8.838777e-003
2.856105e+003,8.835294e-003
2.858033e+003,8.909930e-003
2.859962e+003,8.968512e-003
2.861890e+003,9.037758e-003
2.863819e+003,9.109282e-003
2.865748e+003,9.150497e-003
2.867676e+003,9.200379e-003
2.869604e+003,9.233411e-003
2.871533e+003,9.321048e-003
2.873461e+003,9.353954e-003
2.875390e+003,9.429256e-003
2.877319e+003,9.433962e-003
2.879247e+003,9.410971e-003
2.881176e+003,9.402370e-003
2.883104e+003,9.390317e-003
2.885032e+003,9.450893e-003
2.886961e+003,9.511952e-003
2.888889e+003,9.510394e-003
2.890818e+003,9.488957e-003
2.892747e+003,9.497389e-003
2.894675e+003,9.464574e-003
2.896604e+003,9.434470e-003
2.898532e+003,9.448320e-003
2.900460e+003,9.488144e-003
2.902389e+003,9.458885e-003
2.904317e+003,9.430508e-003
2.906246e+003,9.463490e-003
2.908175e+003,9.505789e-003
2.910103e+003,9.486349e-003
2.912031e+003,9.464235e-003
2.913960e+003,9.487162e-003
2.915888e+003,9.500675e-003
2.917817e+003,9.493969e-003
2.919745e+003,9.413781e-003
2.921674e+003,9.429695e-003
2.923603e+003,9.496373e-003
2.925531e+003,9.445746e-003
2.927459e+003,9.448388e-003
2.929388e+003,9.439515e-003
2.931316e+003,9.383680e-003
2.933245e+003,9.321149e-003
2.935173e+003,9.290582e-003
2.937102e+003,9.316884e-003
2.939031e+003,9.213917e-003
2.940959e+003,9.131141e-003
2.942887e+003,9.125761e-003
2.944816e+003,9.068173e-003
2.946744e+003,9.040228e-003
2.948673e+003,8.967058e-003
2.950601e+003,8.885445e-003
2.952530e+003,8.822377e-003
2.954458e+003,8.814431e-003
2.956387e+003,8.829478e-003
2.958315e+003,8.758270e-003
2.960244e+003,8.714558e-003
2.962172e+003,8.732441e-003
2.964101e+003,8.649013e-003
2.966029e+003,8.537486e-003
2.967958e+003,8.553267e-003
2.969886e+003,8.572327e-003
2.971815e+003,8.480246e-003
2.973743e+003,8.382443e-003
2.975672e+003,8.334073e-003
2.977600e+003,8.301143e-003
2.979529e+003,8.311072e-003
2.981457e+003,8.249101e-003
2.983386e+003,8.161444e-003
2.985314e+003,8.115260e-003
2.987243e+003,8.087780e-003
2.989171e+003,8.120087e-003
2.991100e+003,8.098549e-003
2.993028e+003,8.056219e-003
2.994957e+003,7.977983e-003
2.996885e+003,7.966374e-003
2.998814e+003,8.038330e-003
3.000742e+003,8.048860e-003
3.002671e+003,8.003092e-003
3.004599e+003,7.991314e-003
3.006528e+003,8.019901e-003
3.008456e+003,8.042549e-003
3.010385e+003,8.005253e-003
3.012313e+003,7.987737e-003
3.014242e+003,8.030364e-003
3.016170e+003,7.996680e-003
3.018099e+003,8.025976e-003
3.020027e+003,8.007481e-003
3.021956e+003,7.947847e-003
3.023884e+003,7.937926e-003
3.025813e+003,8.084405e-003
3.027741e+003,8.197977e-003
3.029670e+003,8.280507e-003
3.031598e+003,8.293104e-003
3.033527e+003,8.219318e-003
3.035455e+003,8.260549e-003
3.037384e+003,8.297394e-003
3.039312e+003,8.276827e-003
3.041241e+003,8.384841e-003
3.043169e+003,8.412339e-003
3.045098e+003,8.384740e-003
3.047026e+003,8.366364e-003
3.048955e+003,8.385956e-003
3.050883e+003,8.417981e-003
3.052812e+003,8.498120e-003
3.054740e+003,8.554720e-003
3.056669e+003,8.536033e-003
3.058597e+003,8.544785e-003
3.060526e+003,8.654523e-003
3.062454e+003,8.668956e-003
3.064383e+003,8.658850e-003
3.066311e+003,8.679266e-003
3.068240e+003,8.717803e-003
3.070168e+003,8.715538e-003
3.072097e+003,8.754010e-003
3.074025e+003,8.773586e-003
3.075954e+003,8.760806e-003
3.077882e+003,8.781700e-003
3.079811e+003,8.837121e-003
3.081739e+003,8.890281e-003
3.083668e+003,8.889706e-003
3.085596e+003,8.948894e-003
3.087525e+003,9.006702e-003
3.089453e+003,9.009578e-003
3.091382e+003,8.956369e-003
3.093310e+003,8.979235e-003
3.095239e+003,8.996047e-003
3.097167e+003,9.052983e-003
3.099096e+003,9.155066e-003
3.101024e+003,9.126674e-003
3.102953e+003,9.096527e-003
3.104881e+003,9.072673e-003
3.106810e+003,9.142714e-003
3.108738e+003,9.150734e-003
3.110667e+003,9.136353e-003
3.112595e+003,9.156520e-003
3.114524e+003,9.173948e-003
3.116452e+003,9.284286e-003
3.118381e+003,9.345287e-003
3.120309e+003,9.404165e-003
3.122238e+003,9.446322e-003
3.124166e+003,9.479136e-003
3.126095e+003,9.487738e-003
3.128023e+003,9.476562e-003
3.129952e+003,9.552630e-003
3.131880e+003,9.578982e-003
3.133809e+003,9.584605e-003
3.135737e+003,9.665604e-003
3.137666e+003,9.708091e-003
3.139594e+003,9.677496e-003
3.141523e+003,9.651239e-003
3.143451e+003,9.791858e-003
3.145380e+003,9.917369e-003
3.147308e+003,9.955305e-003
3.149237e+003,9.947134e-003
3.151165e+003,1.002528e-002
3.153094e+003,1.012085e-002
3.155022e+003,1.012868e-002
3.156951e+003,1.017851e-002
3.158879e+003,1.018824e-002
3.160808e+003,1.024540e-002
3.162736e+003,1.029059e-002
3.164665e+003,1.027773e-002
3.166593e+003,1.034400e-002
3.168522e+003,1.043403e-002
3.170450e+003,1.048657e-002
3.172379e+003,1.049010e-002
3.174307e+003,1.047089e-002
3.176236e+003,1.053905e-002
3.178164e+003,1.064179e-002
3.180093e+003,1.066757e-002
3.182021e+003,1.067823e-002
3.183950e+003,1.074327e-002
3.185878e+003,1.077502e-002
3.187807e+003,1.076921e-002
3.189735e+003,1.076840e-002
3.191664e+003,1.078464e-002
3.193592e+003,1.091777e-002
3.195521e+003,1.102087e-002
3.197449e+003,1.101176e-002
3.199378e+003,1.103205e-002
3.201306e+003,1.111597e-002
3.203235e+003,1.111625e-002
3.205163e+003,1.125051e-002
3.207092e+003,1.128689e-002
3.209020e+003,1.130424e-002
3.210948e+003,1.129750e-002
3.212877e+003,1.134692e-002
3.214806e+003,1.137777e-002
3.216734e+003,1.142644e-002
3.218663e+003,1.147798e-002
3.220591e+003,1.150193e-002
3.222520e+003,1.152504e-002
3.224448e+003,1.164292e-002
3.226376e+003,1.169802e-002
3.228305e+003,1.175633e-002
3.230234e+003,1.184737e-002
3.232162e+003,1.185783e-002
3.234091e+003,1.193373e-002
3.236019e+003,1.202999e-002
3.237948e+003,1.205734e-002
3.239876e+003,1.210010e-002
3.241804e+003,1.209577e-002
3.243733e+003,1.207864e-002
3.245662e+003,1.210426e-002
3.247590e+003,1.221855e-002
3.249519e+003,1.223589e-002
3.251447e+003,1.235424e-002
3.253375e+003,1.245263e-002
3.255304e+003,1.241308e-002
3.257232e+003,1.249239e-002
3.259161e+003,1.259873e-002
3.261090e+003,1.277692e-002
3.263018e+003,1.278419e-002
3.264947e+003,1.281842e-002
3.266875e+003,1.284964e-002
3.268803e+003,1.282050e-002
3.270732e+003,1.295870e-002
3.272660e+003,1.306420e-002
3.274589e+003,1.298929e-002
3.276518e+003,1.298458e-002
3.278446e+003,1.304617e-002
3.280375e+003,1.319363e-002
3.282303e+003,1.318031e-002
3.284231e+003,1.309664e-002
3.286160e+003,1.311740e-002
3.288088e+003,1.309947e-002
3.290017e+003,1.313984e-002
3.291946e+003,1.315927e-002
3.293874e+003,1.313236e-002
3.295802e+003,1.314458e-002
3.297731e+003,1.313553e-002
3.299659e+003,1.312560e-002
3.301588e+003,1.306867e-002
3.303516e+003,1.312064e-002
3.305445e+003,1.317546e-002
3.307374e+003,1.317816e-002
3.309302e+003,1.313215e-002
3.311230e+003,1.311494e-002
3.313159e+003,1.313427e-002
3.315087e+003,1.316576e-002
3.317016e+003,1.319653e-002
3.318944e+003,1.324900e-002
3.320873e+003,1.331661e-002
3.322802e+003,1.324811e-002
3.324730e+003,1.320039e-002
3.326658e+003,1.327179e-002
3.328587e+003,1.324832e-002
3.330515e+003,1.323844e-002
3.332444e+003,1.326417e-002
3.334372e+003,1.323377e-002
3.336301e+003,1.316433e-002
3.338229e+003,1.316678e-002
3.340158e+003,1.314274e-002
3.342086e+003,1.314858e-002
3.344015e+003,1.313854e-002
3.345943e+003,1.308370e-002
3.347872e+003,1.307451e-002
3.349800e+003,1.306440e-002
3.351729e+003,1.295034e-002
3.353657e+003,1.286876e-002
3.355586e+003,1.294586e-002
3.357514e+003,1.290378e-002
3.359443e+003,1.279521e-002
3.361371e+003,1.284244e-002
3.363300e+003,1.286917e-002
3.365229e+003,1.281801e-002
3.367157e+003,1.266839e-002
3.369085e+003,1.254416e-002
3.371014e+003,1.244830e-002
3.372942e+003,1.245099e-002
3.374871e+003,1.247036e-002
3.376799e+003,1.246903e-002
3.378728e+003,1.244213e-002
3.380656e+003,1.238032e-002
3.382585e+003,1.236358e-002
3.384513e+003,1.242604e-002
3.386442e+003,1.238199e-002
3.388370e+003,1.227233e-002
3.390299e+003,1.224779e-002
3.392227e+003,1.218171e-002
3.394156e+003,1.219534e-002
3.396084e+003,1.225488e-002
3.398013e+003,1.221296e-002
3.399941e+003,1.209032e-002
3.401870e+003,1.194943e-002
3.403798e+003,1.197181e-002
3.405727e+003,1.189832e-002
3.407655e+003,1.176518e-002
3.409584e+003,1.169135e-002
3.411512e+003,1.167123e-002
3.413441e+003,1.164703e-002
3.415369e+003,1.158748e-002
3.417298e+003,1.148298e-002
3.419226e+003,1.145941e-002
3.421155e+003,1.146999e-002
3.423083e+003,1.134110e-002
3.425012e+003,1.126394e-002
3.426940e+003,1.117190e-002
3.428869e+003,1.107695e-002
3.430797e+003,1.103229e-002
3.432726e+003,1.093313e-002
3.434654e+003,1.082176e-002
3.436583e+003,1.077883e-002
3.438511e+003,1.078796e-002
3.440440e+003,1.069317e-002
3.442368e+003,1.053128e-002
3.444297e+003,1.050837e-002
3.446225e+003,1.046675e-002
3.448154e+003,1.036120e-002
3.450082e+003,1.016341e-002
3.452011e+003,1.007103e-002
3.453939e+003,1.004278e-002
3.455868e+003,9.949948e-003
3.457796e+003,9.909336e-003
3.459725e+003,9.810125e-003
3.461653e+003,9.769695e-003
3.463582e+003,9.725067e-003
3.465510e+003,9.630303e-003
3.467439e+003,9.563231e-003
3.469367e+003,9.550191e-003
3.471296e+003,9.452789e-003
3.473224e+003,9.307203e-003
3.475153e+003,9.278598e-003
3.477081e+003,9.215812e-003
3.479010e+003,9.140616e-003
3.480938e+003,8.982888e-003
3.482867e+003,8.867048e-003
3.484795e+003,8.758710e-003
3.486724e+003,8.671829e-003
3.488652e+003,8.551882e-003
3.490581e+003,8.492950e-003
3.492509e+003,8.496464e-003
3.494438e+003,8.412609e-003
3.496366e+003,8.294692e-003
3.498295e+003,8.254402e-003
3.500223e+003,8.278684e-003
3.502152e+003,8.161748e-003
3.504080e+003,7.979165e-003
3.506009e+003,7.906443e-003
3.507937e+003,7.863086e-003
3.509866e+003,7.775439e-003
3.511794e+003,7.747645e-003
3.513723e+003,7.697490e-003
3.515651e+003,7.599526e-003
3.517580e+003,7.533880e-003
3.519508e+003,7.494065e-003
3.521437e+003,7.338114e-003
3.523365e+003,7.246194e-003
3.525294e+003,7.250574e-003
3.527222e+003,7.250338e-003
3.529151e+003,7.215839e-003
3.531079e+003,7.156247e-003
3.533008e+003,7.028130e-003
3.534936e+003,6.886012e-003
3.536865e+003,6.883522e-003
3.538793e+003,6.785740e-003
3.540722e+003,6.760196e-003
3.542650e+003,6.820340e-003
3.544579e+003,6.631220e-003
3.546507e+003,6.486610e-003
3.548436e+003,6.334549e-003
3.550364e+003,6.294979e-003
3.552293e+003,6.389019e-003
3.554221e+003,6.357009e-003
3.556150e+003,6.207010e-003
3.558078e+003,6.093185e-003
3.560007e+003,5.980128e-003
3.561935e+003,5.934914e-003
3.563864e+003,5.907404e-003
3.565792e+003,5.838320e-003
3.567721e+003,5.724926e-003
3.569649e+003,5.693201e-003
3.571578e+003,5.608374e-003
3.573506e+003,5.470244e-003
3.575435e+003,5.329373e-003
3.577363e+003,5.308343e-003
3.579292e+003,5.239588e-003
3.581220e+003,5.095674e-003
3.583149e+003,5.031311e-003
3.585077e+003,4.889611e-003
3.587006e+003,4.689674e-003
3.588934e+003,4.411831e-003
3.590863e+003,4.149923e-003
3.592791e+003,4.103159e-003
3.594720e+003,4.027906e-003
3.596648e+003,3.868246e-003
3.598577e+003,3.714894e-003
3.600505e+003,3.699655e-003
3.602434e+003,3.788856e-003
3.604362e+003,3.825557e-003
3.606291e+003,3.995134e-003
3.608219e+003,4.255611e-003
3.610148e+003,4.391849e-003
3.612076e+003,4.576480e-003
3.614005e+003,4.464487e-003
3.615933e+003,4.028307e-003
3.617862e+003,3.723917e-003
3.619790e+003,3.494454e-003
3.621719e+003,3.134699e-003
3.623647e+003,2.958286e-003
3.625576e+003,2.907214e-003
3.627504e+003,2.991214e-003
3.629433e+003,3.196679e-003
3.631361e+003,3.291318e-003
3.633290e+003,3.378198e-003
3.635218e+003,3.610407e-003
3.637146e+003,3.761616e-003
3.639075e+003,3.835252e-003
3.641004e+003,3.797179e-003
3.642932e+003,3.980119e-003
3.644861e+003,4.131524e-003
3.646789e+003,4.173273e-003
3.648718e+003,4.349577e-003
3.650646e+003,4.335454e-003
3.652574e+003,4.151394e-003
3.654503e+003,4.011787e-003
3.656432e+003,3.958418e-003
3.658360e+003,4.079177e-003
3.660289e+003,4.147514e-003
3.662217e+003,4.137679e-003
3.664146e+003,4.136241e-003
3.666074e+003,4.026000e-003
3.668002e+003,3.925717e-003
3.669931e+003,3.957347e-003
3.671860e+003,3.893754e-003
3.673788e+003,3.903082e-003
3.675717e+003,3.997307e-003
3.677645e+003,3.828700e-003
3.679573e+003,3.737051e-003
3.681502e+003,3.617757e-003
3.683430e+003,3.493151e-003
3.685359e+003,3.260604e-003
3.687288e+003,3.220879e-003
3.689216e+003,3.212334e-003
3.691145e+003,3.002825e-003
3.693073e+003,2.720824e-003
3.695001e+003,2.473162e-003
3.696930e+003,2.218081e-003
3.698858e+003,2.230437e-003
3.700787e+003,2.187709e-003
3.702716e+003,2.143653e-003
3.704644e+003,2.203960e-003
3.706573e+003,2.334060e-003
3.708501e+003,2.598076e-003
3.710429e+003,2.903478e-003
3.712358e+003,3.326576e-003
3.714286e+003,3.465662e-003
3.716215e+003,3.204323e-003
3.718144e+003,2.866721e-003
3.720072e+003,2.537247e-003
3.722000e+003,2.170925e-003
3.723929e+003,1.809903e-003
3.725857e+003,1.580018e-003
3.727786e+003,1.542475e-003
3.729714e+003,1.535525e-003
3.731643e+003,1.798690e-003
3.733572e+003,2.005256e-003
3.735500e+003,2.367540e-003
3.737428e+003,2.768573e-003
3.739357e+003,2.966827e-003
3.741285e+003,3.236669e-003
3.743214e+003,3.582977e-003
3.745142e+003,3.690432e-003
3.747071e+003,3.695211e-003
3.749000e+003,3.889007e-003
3.750928e+003,3.990184e-003
3.752856e+003,3.970088e-003
3.754785e+003,3.899170e-003
3.756713e+003,3.947417e-003
3.758642e+003,3.911507e-003
3.760570e+003,3.914048e-003
3.762499e+003,3.902614e-003
3.764427e+003,3.950426e-003
3.766356e+003,3.992893e-003
3.768284e+003,3.987041e-003
3.770213e+003,3.946815e-003
3.772141e+003,3.887202e-003
3.774070e+003,3.844010e-003
3.775998e+003,3.900508e-003
3.777927e+003,3.897566e-003
3.779855e+003,3.909334e-003
3.781784e+003,3.942268e-003
3.783712e+003,3.986071e-003
3.785641e+003,3.971659e-003
3.787569e+003,3.947651e-003
3.789498e+003,3.910671e-003
3.791426e+003,3.870553e-003
3.793355e+003,3.916489e-003
3.795283e+003,3.929060e-003
3.797212e+003,3.909167e-003
3.799140e+003,4.037838e-003
3.801069e+003,4.139218e-003
3.802997e+003,4.059243e-003
3.804926e+003,4.043691e-003
3.806854e+003,4.052587e-003
3.808783e+003,3.981022e-003
3.810711e+003,3.945945e-003
3.812640e+003,3.919197e-003
3.814568e+003,3.970321e-003
3.816497e+003,4.037437e-003
3.818425e+003,3.988111e-003
3.820354e+003,4.139352e-003
3.822282e+003,4.116706e-003
3.824211e+003,4.083525e-003
3.826139e+003,4.005567e-003
3.828068e+003,3.958284e-003
3.829996e+003,4.029043e-003
3.831925e+003,4.064862e-003
3.833853e+003,4.051785e-003
3.835782e+003,4.144035e-003
3.837710e+003,4.265180e-003
3.839639e+003,4.183175e-003
3.841567e+003,4.107273e-003
3.843496e+003,4.120853e-003
3.845424e+003,4.173641e-003
3.847353e+003,4.101419e-003
3.849281e+003,4.117274e-003
3.851210e+003,4.259090e-003
3.853138e+003,4.366044e-003
3.855067e+003,4.254239e-003
3.856995e+003,4.136508e-003
3.858924e+003,4.095867e-003
3.860852e+003,4.085900e-003
3.862781e+003,4.067203e-003
3.864709e+003,4.160259e-003
3.866638e+003,4.179495e-003
3.868566e+003,4.170095e-003
3.870495e+003,4.096971e-003
3.872423e+003,4.050547e-003
3.874352e+003,4.084528e-003
3.876280e+003,4.067471e-003
3.878209e+003,4.093827e-003
3.880137e+003,4.121087e-003
3.882066e+003,4.175146e-003
3.883994e+003,4.193413e-003
3.885923e+003,4.176049e-003
3.887851e+003,4.130153e-003
3.889780e+003,4.164608e-003
3.891708e+003,4.131156e-003
3.893637e+003,4.136608e-003
3.895565e+003,4.083191e-003
3.897494e+003,4.099881e-003
3.899422e+003,4.139954e-003
3.901351e+003,4.250592e-003
3.903279e+003,4.299914e-003
3.905208e+003,4.184748e-003
3.907136e+003,4.180097e-003
3.909065e+003,4.090716e-003
3.910993e+003,4.049745e-003
3.912922e+003,4.104597e-003
3.914850e+003,4.127108e-003
3.916779e+003,4.221215e-003
3.918707e+003,4.226535e-003
3.920636e+003,4.155710e-003
3.922564e+003,4.158486e-003
3.924493e+003,4.173741e-003
3.926421e+003,4.149153e-003
3.928350e+003,4.197594e-003
3.930278e+003,4.169593e-003
3.932207e+003,4.130052e-003
3.934135e+003,4.107206e-003
3.936064e+003,4.065297e-003
3.937992e+003,4.082020e-003
3.939921e+003,4.088508e-003
3.941849e+003,4.111521e-003
3.943778e+003,4.112792e-003
3.945706e+003,4.086234e-003
3.947635e+003,4.041350e-003
3.949563e+003,4.087538e-003
3.951492e+003,4.094730e-003
3.953420e+003,4.100249e-003
3.955349e+003,4.208133e-003
3.957277e+003,4.135672e-003
3.959206e+003,3.995769e-003
3.961134e+003,4.047136e-003
3.963063e+003,4.128513e-003
3.964991e+003,4.135505e-003
3.966920e+003,4.090014e-003
3.968848e+003,4.043290e-003
3.970777e+003,4.117810e-003
3.972705e+003,4.137311e-003
3.974634e+003,4.230918e-003
3.976562e+003,4.168623e-003
3.978491e+003,4.001821e-003
3.980419e+003,4.017305e-003
3.982348e+003,4.061216e-003
3.984276e+003,4.025966e-003
3.986205e+003,4.061116e-003
3.988133e+003,4.023558e-003
3.990062e+003,4.102289e-003
3.991990e+003,4.086903e-003
3.993919e+003,4.044728e-003
3.995847e+003,4.107574e-003
3.997776e+003,4.069644e-003
3.999704e+003,4.019780e-003
4.001633e+003,0.000000e+000
