3.991989e+002,2.816033e-002
4.011274e+002,3.287067e-002
4.030559e+002,3.287067e-002
4.049844e+002,3.356564e-002
4.069129e+002,3.444874e-002
4.088414e+002,3.625183e-002
4.107699e+002,3.914701e-002
4.126984e+002,3.931327e-002
4.146269e+002,3.943534e-002
4.165554e+002,4.122852e-002
4.184839e+002,4.196553e-002
4.204124e+002,4.209433e-002
4.223409e+002,4.229074e-002
4.242694e+002,4.130016e-002
4.261979e+002,4.138084e-002
4.281264e+002,4.130616e-002
4.300549e+002,4.106905e-002
4.319834e+002,4.041747e-002
4.339119e+002,4.107966e-002
4.358404e+002,4.275939e-002
4.377689e+002,4.265204e-002
4.396974e+002,4.315351e-002
4.416259e+002,4.365359e-002
4.435544e+002,4.366703e-002
4.454829e+002,4.420206e-002
4.474114e+002,4.427004e-002
4.493399e+002,4.417676e-002
4.512684e+002,4.354193e-002
4.531969e+002,4.346286e-002
4.551254e+002,4.282585e-002
4.570539e+002,4.236452e-002
4.589824e+002,4.238505e-002
4.609109e+002,4.252311e-002
4.628394e+002,4.263501e-002
4.647679e+002,4.284160e-002
4.666964e+002,4.351740e-002
4.686249e+002,4.346698e-002
4.705533e+002,4.384080e-002
4.724819e+002,4.379943e-002
4.744103e+002,4.362453e-002
4.763389e+002,4.359433e-002
4.782673e+002,4.276148e-002
4.801959e+002,4.237310e-002
4.821243e+002,4.149605e-002
4.840529e+002,4.041610e-002
4.859813e+002,4.045344e-002
4.879099e+002,4.049314e-002
4.898383e+002,4.075975e-002
4.917668e+002,4.149918e-002
4.936953e+002,4.133803e-002
4.956238e+002,4.217080e-002
4.975523e+002,4.323375e-002
4.994808e+002,4.353544e-002
5.014093e+002,4.356498e-002
5.033378e+002,4.329304e-002
5.052663e+002,4.239757e-002
5.071948e+002,4.158455e-002
5.091233e+002,4.154247e-002
5.110518e+002,4.149293e-002
5.129803e+002,4.172180e-002
5.149088e+002,4.212770e-002
5.168373e+002,4.225425e-002
5.187658e+002,4.256912e-002
5.206943e+002,4.332354e-002
5.226228e+002,4.459731e-002
5.245513e+002,4.538653e-002
5.264798e+002,4.535897e-002
5.284083e+002,4.484329e-002
5.303368e+002,4.486292e-002
5.322653e+002,4.413629e-002
5.341938e+002,4.351062e-002
5.361223e+002,4.277898e-002
5.380508e+002,4.217152e-002
5.399792e+002,4.179215e-002
5.419078e+002,4.184185e-002
5.438363e+002,4.189570e-002
5.457648e+002,4.253453e-002
5.476932e+002,4.305469e-002
5.496218e+002,4.344373e-002
5.515503e+002,4.393672e-002
5.534788e+002,4.413065e-002
5.554072e+002,4.399695e-002
5.573358e+002,4.404167e-002
5.592643e+002,4.388520e-002
5.611927e+002,4.326755e-002
5.631212e+002,4.285634e-002
5.650497e+002,4.246404e-002
5.669783e+002,4.215147e-002
5.689067e+002,4.185334e-002
5.708352e+002,4.149069e-002
5.727637e+002,4.174143e-002
5.746923e+002,4.222007e-002
5.766207e+002,4.252166e-002
5.785492e+002,4.201199e-002
5.804777e+002,4.106362e-002
5.824063e+002,4.131179e-002
5.843347e+002,4.113462e-002
5.862632e+002,4.032381e-002
5.881917e+002,4.003711e-002
5.901202e+002,3.988364e-002
5.920487e+002,3.971612e-002
5.939772e+002,3.939218e-002
5.959057e+002,3.947880e-002
5.978342e+002,3.945840e-002
5.997627e+002,3.953495e-002
6.016912e+002,3.972290e-002
6.036197e+002,3.964849e-002
6.055482e+002,3.973705e-002
6.074767e+002,4.010346e-002
6.094052e+002,3.983102e-002
6.113337e+002,3.925741e-002
6.132622e+002,3.860380e-002
6.151907e+002,3.801363e-002
6.171192e+002,3.769537e-002
6.190477e+002,3.730899e-002
6.209762e+002,3.697234e-002
6.229047e+002,3.641972e-002
6.248332e+002,3.612880e-002
6.267617e+002,3.588413e-002
6.286902e+002,3.550164e-002
6.306187e+002,3.530544e-002
6.325472e+002,3.521143e-002
6.344756e+002,3.511877e-002
6.364042e+002,3.469606e-002
6.383326e+002,3.455783e-002
6.402612e+002,3.425715e-002
6.421896e+002,3.394392e-002
6.441182e+002,3.366457e-002
6.460466e+002,3.341386e-002
6.479752e+002,3.293404e-002
6.499036e+002,3.255901e-002
6.518322e+002,3.245110e-002
6.537606e+002,3.253697e-002
6.556891e+002,3.254075e-002
6.576177e+002,3.274063e-002
6.595461e+002,3.263611e-002
6.614746e+002,3.282879e-002
6.634031e+002,3.289976e-002
6.653317e+002,3.293949e-002
6.672601e+002,3.260934e-002
6.691886e+002,3.240660e-002
6.711171e+002,3.203391e-002
6.730457e+002,3.150593e-002
6.749741e+002,3.092129e-002
6.769026e+002,3.035695e-002
6.788311e+002,2.983425e-002
6.807596e+002,2.950421e-002
6.826881e+002,2.913976e-002
6.846166e+002,2.898300e-002
6.865451e+002,2.893905e-002
6.884736e+002,2.879496e-002
6.904021e+002,2.882496e-002
6.923306e+002,2.889092e-002
6.942591e+002,2.869781e-002
6.961876e+002,2.849264e-002
6.981161e+002,2.813867e-002
7.000446e+002,2.783078e-002
7.019731e+002,2.771426e-002
7.039016e+002,2.761213e-002
7.058301e+002,2.734211e-002
7.077585e+002,2.712431e-002
7.096871e+002,2.689526e-002
7.116156e+002,2.674874e-002
7.135441e+002,2.664083e-002
7.154725e+002,2.648085e-002
7.174011e+002,2.635120e-002
7.193296e+002,2.636837e-002
7.212581e+002,2.618226e-002
7.231865e+002,2.587141e-002
7.251151e+002,2.547116e-002
7.270436e+002,2.514224e-002
7.289720e+002,2.488457e-002
7.309005e+002,2.462938e-002
7.328290e+002,2.449804e-002
7.347576e+002,2.445826e-002
7.366860e+002,2.431392e-002
7.386145e+002,2.416639e-002
7.405430e+002,2.399854e-002
7.424716e+002,2.403391e-002
7.444000e+002,2.402250e-002
7.463285e+002,2.388101e-002
7.482570e+002,2.369458e-002
7.501855e+002,2.346946e-002
7.521140e+002,2.321709e-002
7.540425e+002,2.302848e-002
7.559710e+002,2.286996e-002
7.578995e+002,2.263876e-002
7.598280e+002,2.242444e-002
7.617565e+002,2.230039e-002
7.636850e+002,2.234232e-002
7.656135e+002,2.239625e-002
7.675420e+002,2.235707e-002
7.694705e+002,2.220051e-002
7.713990e+002,2.210940e-002
7.733275e+002,2.215347e-002
7.752560e+002,2.207980e-002
7.771844e+002,2.203009e-002
7.791130e+002,2.203713e-002
7.810415e+002,2.192093e-002
7.829700e+002,2.183492e-002
7.848984e+002,2.171710e-002
7.868270e+002,2.151637e-002
7.887555e+002,2.135823e-002
7.906840e+002,2.127523e-002
7.926124e+002,2.130832e-002
7.945410e+002,2.138948e-002
7.964695e+002,2.133317e-002
7.983979e+002,2.124509e-002
8.003264e+002,2.131671e-002
8.022549e+002,2.133091e-002
8.041835e+002,2.131420e-002
8.061119e+002,2.120898e-002
8.080404e+002,2.107220e-002
8.099689e+002,2.103408e-002
8.118975e+002,2.099290e-002
8.138259e+002,2.091567e-002
8.157545e+002,2.087927e-002
8.176830e+002,2.082667e-002
8.196115e+002,2.081788e-002
8.215399e+002,2.074440e-002
8.234684e+002,2.071573e-002
8.253970e+002,2.068025e-002
8.273254e+002,2.058904e-002
8.292539e+002,2.064682e-002
8.311824e+002,2.068160e-002
8.331110e+002,2.061802e-002
8.350394e+002,2.048649e-002
8.369679e+002,2.038473e-002
8.388964e+002,2.029813e-002
8.408250e+002,2.012339e-002
8.427534e+002,2.008615e-002
8.446819e+002,2.005655e-002
8.466104e+002,2.001779e-002
8.485389e+002,2.009799e-002
8.504674e+002,2.007342e-002
8.523959e+002,2.002564e-002
8.543244e+002,2.006481e-002
8.562529e+002,2.010388e-002
8.581814e+002,2.020141e-002
8.601099e+002,2.015230e-002
8.620384e+002,2.010812e-002
8.639669e+002,2.010288e-002
8.658954e+002,2.025338e-002
8.678239e+002,2.034584e-002
8.697524e+002,2.033365e-002
8.716809e+002,2.037233e-002
8.736094e+002,2.050952e-002
8.755378e+002,2.059206e-002
8.774664e+002,2.077610e-002
8.793949e+002,2.083905e-002
8.813234e+002,2.094085e-002
8.832518e+002,2.106754e-002
8.851804e+002,2.124889e-002
8.871089e+002,2.145663e-002
8.890374e+002,2.176260e-002
8.909658e+002,2.208660e-002
8.928943e+002,2.240473e-002
8.948229e+002,2.269209e-002
8.967513e+002,2.281654e-002
8.986798e+002,2.283731e-002
9.006083e+002,2.272219e-002
9.025369e+002,2.247866e-002
9.044653e+002,2.231483e-002
9.063938e+002,2.211926e-002
9.083223e+002,2.204804e-002
9.102509e+002,2.206645e-002
9.121793e+002,2.200007e-002
9.141078e+002,2.202977e-002
9.160364e+002,2.210511e-002
9.179648e+002,2.215790e-002
9.198933e+002,2.223991e-002
9.218218e+002,2.244077e-002
9.237504e+002,2.261767e-002
9.256788e+002,2.278469e-002
9.276073e+002,2.303115e-002
9.295358e+002,2.324397e-002
9.314644e+002,2.348083e-002
9.333928e+002,2.379873e-002
9.353213e+002,2.402786e-002
9.372498e+002,2.443431e-002
9.391783e+002,2.492801e-002
9.411068e+002,2.529013e-002
9.430353e+002,2.574212e-002
9.449637e+002,2.634511e-002
9.468923e+002,2.688741e-002
9.488208e+002,2.736362e-002
9.507493e+002,2.788437e-002
9.526777e+002,2.840218e-002
9.546063e+002,2.895159e-002
9.565348e+002,2.953163e-002
9.584633e+002,3.026443e-002
9.603917e+002,3.094496e-002
9.623203e+002,3.166671e-002
9.642488e+002,3.228487e-002
9.661772e+002,3.294251e-002
9.681057e+002,3.368558e-002
9.700343e+002,3.446280e-002
9.719628e+002,3.514811e-002
9.738912e+002,3.587668e-002
9.758197e+002,3.670687e-002
9.777483e+002,3.754982e-002
9.796768e+002,3.853020e-002
9.816052e+002,3.967157e-002
9.835337e+002,4.077430e-002
9.854623e+002,4.186947e-002
9.873907e+002,4.284292e-002
9.893192e+002,4.371238e-002
9.912477e+002,4.438236e-002
9.931763e+002,4.487632e-002
9.951047e+002,4.527205e-002
9.970332e+002,4.574394e-002
9.989617e+002,4.619563e-002
1.000890e+003,4.685056e-002
1.002819e+003,4.756880e-002
1.004747e+003,4.831648e-002
1.006676e+003,4.905956e-002
1.008604e+003,4.981142e-002
1.010533e+003,5.064577e-002
1.012461e+003,5.149502e-002
1.014390e+003,5.233964e-002
1.016318e+003,5.331447e-002
1.018247e+003,5.434232e-002
1.020175e+003,5.532335e-002
1.022104e+003,5.634074e-002
1.024032e+003,5.738252e-002
1.025961e+003,5.837090e-002
1.027889e+003,5.940101e-002
1.029818e+003,6.052542e-002
1.031746e+003,6.152912e-002
1.033675e+003,6.229407e-002
1.035603e+003,6.277572e-002
1.037532e+003,6.280443e-002
1.039460e+003,6.250411e-002
1.041389e+003,6.198539e-002
1.043317e+003,6.141858e-002
1.045246e+003,6.091975e-002
1.047174e+003,6.050581e-002
1.049103e+003,6.014249e-002
1.051031e+003,5.988596e-002
1.052960e+003,5.954904e-002
1.054888e+003,5.918607e-002
1.056817e+003,5.870470e-002
1.058745e+003,5.807727e-002
1.060674e+003,5.746390e-002
1.062602e+003,5.676028e-002
1.064531e+003,5.584525e-002
1.066459e+003,5.488365e-002
1.068388e+003,5.395850e-002
1.070316e+003,5.311274e-002
1.072245e+003,5.223548e-002
1.074173e+003,5.136104e-002
1.076102e+003,5.040610e-002
1.078030e+003,4.943306e-002
1.079959e+003,4.839678e-002
1.081887e+003,4.735461e-002
1.083816e+003,4.640821e-002
1.085744e+003,4.562071e-002
1.087673e+003,4.496366e-002
1.089601e+003,4.437660e-002
1.091530e+003,4.377578e-002
1.093458e+003,4.317942e-002
1.095387e+003,4.263496e-002
1.097315e+003,4.224436e-002
1.099244e+003,4.188425e-002
1.101172e+003,4.157848e-002
1.103101e+003,4.123997e-002
1.105029e+003,4.085179e-002
1.106958e+003,4.039544e-002
1.108886e+003,3.978968e-002
1.110815e+003,3.901233e-002
1.112743e+003,3.821636e-002
1.114672e+003,3.733900e-002
1.116600e+003,3.642590e-002
1.118529e+003,3.549329e-002
1.120457e+003,3.477384e-002
1.122386e+003,3.404490e-002
1.124314e+003,3.325168e-002
1.126243e+003,3.244051e-002
1.128171e+003,3.161397e-002
1.130100e+003,3.080518e-002
1.132028e+003,3.003589e-002
1.133957e+003,2.936948e-002
1.135885e+003,2.878509e-002
1.137814e+003,2.829713e-002
1.139742e+003,2.802402e-002
1.141671e+003,2.791949e-002
1.143599e+003,2.789532e-002
1.145528e+003,2.797479e-002
1.147456e+003,2.805813e-002
1.149385e+003,2.817295e-002
1.151313e+003,2.835329e-002
1.153242e+003,2.849189e-002
1.155170e+003,2.857183e-002
1.157099e+003,2.867556e-002
1.159027e+003,2.868469e-002
1.160956e+003,2.851871e-002
1.162884e+003,2.820173e-002
1.164813e+003,2.769281e-002
1.166741e+003,2.699278e-002
1.168670e+003,2.615007e-002
1.170598e+003,2.515322e-002
1.172526e+003,2.414568e-002
1.174455e+003,2.313091e-002
1.176384e+003,2.219625e-002
1.178312e+003,2.142749e-002
1.180240e+003,2.072331e-002
1.182169e+003,2.013116e-002
1.184098e+003,1.967436e-002
1.186026e+003,1.930374e-002
1.187954e+003,1.908225e-002
1.189883e+003,1.900034e-002
1.191812e+003,1.904312e-002
1.193740e+003,1.914993e-002
1.195668e+003,1.932430e-002
1.197597e+003,1.959542e-002
1.199526e+003,1.985528e-002
1.201454e+003,2.001201e-002
1.203382e+003,2.015960e-002
1.205311e+003,2.030442e-002
1.207240e+003,2.038608e-002
1.209168e+003,2.040552e-002
1.211096e+003,2.050457e-002
1.213025e+003,2.066500e-002
1.214953e+003,2.084068e-002
1.216882e+003,2.100765e-002
1.218810e+003,2.123264e-002
1.220739e+003,2.142452e-002
1.222667e+003,2.157367e-002
1.224596e+003,2.178937e-002
1.226524e+003,2.206939e-002
1.228453e+003,2.228217e-002
1.230381e+003,2.241527e-002
1.232310e+003,2.255391e-002
1.234238e+003,2.261082e-002
1.236167e+003,2.264359e-002
1.238095e+003,2.263996e-002
1.240024e+003,2.262532e-002
1.241952e+003,2.257759e-002
1.243881e+003,2.243099e-002
1.245809e+003,2.227372e-002
1.247738e+003,2.213708e-002
1.249666e+003,2.198585e-002
1.251595e+003,2.183672e-002
1.253523e+003,2.167383e-002
1.255452e+003,2.148754e-002
1.257380e+003,2.130762e-002
1.259309e+003,2.109074e-002
1.261237e+003,2.081066e-002
1.263166e+003,2.055245e-002
1.265094e+003,2.030369e-002
1.267023e+003,2.004425e-002
1.268951e+003,1.976390e-002
1.270880e+003,1.947619e-002
1.272808e+003,1.919899e-002
1.274737e+003,1.897820e-002
1.276665e+003,1.877246e-002
1.278594e+003,1.859049e-002
1.280522e+003,1.841298e-002
1.282451e+003,1.822921e-002
1.284379e+003,1.805077e-002
1.286308e+003,1.787658e-002
1.288236e+003,1.771627e-002
1.290165e+003,1.760477e-002
1.292093e+003,1.754825e-002
1.294022e+003,1.752859e-002
1.295950e+003,1.748953e-002
1.297879e+003,1.752760e-002
1.299807e+003,1.760049e-002
1.301736e+003,1.771662e-002
1.303664e+003,1.786500e-002
1.305593e+003,1.802722e-002
1.307521e+003,1.820663e-002
1.309450e+003,1.839875e-002
1.311378e+003,1.857085e-002
1.313307e+003,1.868632e-002
1.315235e+003,1.877997e-002
1.317164e+003,1.880747e-002
1.319092e+003,1.876364e-002
1.321021e+003,1.868654e-002
1.322949e+003,1.863985e-002
1.324878e+003,1.852114e-002
1.326806e+003,1.841313e-002
1.328735e+003,1.833070e-002
1.330663e+003,1.835123e-002
1.332592e+003,1.841137e-002
1.334520e+003,1.841657e-002
1.336449e+003,1.836184e-002
1.338377e+003,1.828159e-002
1.340306e+003,1.819225e-002
1.342234e+003,1.808308e-002
1.344163e+003,1.803100e-002
1.346091e+003,1.800361e-002
1.348020e+003,1.800749e-002
1.349948e+003,1.804492e-002
1.351877e+003,1.809639e-002
1.353805e+003,1.816989e-002
1.355734e+003,1.825450e-002
1.357662e+003,1.832827e-002
1.359591e+003,1.842325e-002
1.361519e+003,1.860833e-002
1.363448e+003,1.882791e-002
1.365376e+003,1.895679e-002
1.367305e+003,1.903339e-002
1.369233e+003,1.907993e-002
1.371162e+003,1.905555e-002
1.373090e+003,1.898470e-002
1.375019e+003,1.887688e-002
1.376947e+003,1.869849e-002
1.378876e+003,1.850537e-002
1.380804e+003,1.829435e-002
1.382733e+003,1.805879e-002
1.384661e+003,1.782233e-002
1.386590e+003,1.760581e-002
1.388518e+003,1.742031e-002
1.390447e+003,1.724071e-002
1.392375e+003,1.715795e-002
1.394304e+003,1.712531e-002
1.396232e+003,1.708111e-002
1.398161e+003,1.706966e-002
1.400089e+003,1.700916e-002
1.402018e+003,1.699213e-002
1.403946e+003,1.702086e-002
1.405875e+003,1.704131e-002
1.407803e+003,1.706711e-002
1.409732e+003,1.713394e-002
1.411660e+003,1.718329e-002
1.413589e+003,1.722983e-002
1.415517e+003,1.729289e-002
1.417446e+003,1.736450e-002
1.419374e+003,1.738091e-002
1.421303e+003,1.739453e-002
1.423231e+003,1.745111e-002
1.425160e+003,1.739313e-002
1.427088e+003,1.726541e-002
1.429017e+003,1.713431e-002
1.430945e+003,1.704635e-002
1.432874e+003,1.699077e-002
1.434802e+003,1.688837e-002
1.436731e+003,1.677304e-002
1.438659e+003,1.666868e-002
1.440588e+003,1.661575e-002
1.442516e+003,1.656975e-002
1.444445e+003,1.655428e-002
1.446373e+003,1.655541e-002
1.448302e+003,1.654976e-002
1.450230e+003,1.654839e-002
1.452159e+003,1.650224e-002
1.454087e+003,1.643703e-002
1.456016e+003,1.633317e-002
1.457944e+003,1.616985e-002
1.459873e+003,1.603450e-002
1.461801e+003,1.593568e-002
1.463730e+003,1.579550e-002
1.465658e+003,1.553860e-002
1.467587e+003,1.523569e-002
1.469515e+003,1.486486e-002
1.471444e+003,1.452057e-002
1.473372e+003,1.420362e-002
1.475301e+003,1.392093e-002
1.477229e+003,1.369540e-002
1.479158e+003,1.353626e-002
1.481086e+003,1.345249e-002
1.483015e+003,1.345356e-002
1.484943e+003,1.352750e-002
1.486872e+003,1.364128e-002
1.488800e+003,1.382739e-002
1.490729e+003,1.399846e-002
1.492657e+003,1.420289e-002
1.494586e+003,1.444501e-002
1.496514e+003,1.470034e-002
1.498443e+003,1.502991e-002
1.500371e+003,1.534077e-002
1.502300e+003,1.568650e-002
1.504228e+003,1.601856e-002
1.506157e+003,1.626094e-002
1.508085e+003,1.642715e-002
1.510014e+003,1.657534e-002
1.511942e+003,1.668078e-002
1.513871e+003,1.672326e-002
1.515799e+003,1.673270e-002
1.517728e+003,1.662675e-002
1.519656e+003,1.646818e-002
1.521585e+003,1.633966e-002
1.523513e+003,1.627379e-002
1.525442e+003,1.627315e-002
1.527370e+003,1.629721e-002
1.529299e+003,1.632036e-002
1.531227e+003,1.635735e-002
1.533156e+003,1.640737e-002
1.535084e+003,1.639173e-002
1.537013e+003,1.635496e-002
1.538941e+003,1.632001e-002
1.540870e+003,1.625226e-002
1.542798e+003,1.621053e-002
1.544727e+003,1.611983e-002
1.546655e+003,1.595805e-002
1.548584e+003,1.581338e-002
1.550512e+003,1.562858e-002
1.552441e+003,1.548320e-002
1.554369e+003,1.536603e-002
1.556298e+003,1.522596e-002
1.558226e+003,1.506290e-002
1.560155e+003,1.491598e-002
1.562083e+003,1.483518e-002
1.564012e+003,1.477943e-002
1.565940e+003,1.470928e-002
1.567869e+003,1.470541e-002
1.569797e+003,1.470173e-002
1.571726e+003,1.473424e-002
1.573654e+003,1.479554e-002
1.575583e+003,1.487344e-002
1.577511e+003,1.499605e-002
1.579440e+003,1.518050e-002
1.581368e+003,1.536648e-002
1.583297e+003,1.552414e-002
1.585225e+003,1.571035e-002
1.587154e+003,1.590784e-002
1.589082e+003,1.613205e-002
1.591010e+003,1.634011e-002
1.592939e+003,1.654333e-002
1.594868e+003,1.674145e-002
1.596796e+003,1.693311e-002
1.598724e+003,1.711140e-002
1.600653e+003,1.726991e-002
1.602582e+003,1.738359e-002
1.604510e+003,1.745355e-002
1.606438e+003,1.749146e-002
1.608367e+003,1.755691e-002
1.610296e+003,1.767715e-002
1.612224e+003,1.781479e-002
1.614152e+003,1.803598e-002
1.616081e+003,1.833091e-002
1.618010e+003,1.865392e-002
1.619938e+003,1.903496e-002
1.621866e+003,1.938156e-002
1.623795e+003,1.971333e-002
1.625724e+003,2.006830e-002
1.627652e+003,2.032080e-002
1.629580e+003,2.043747e-002
1.631509e+003,2.051736e-002
1.633438e+003,2.051741e-002
1.635366e+003,2.046918e-002
1.637294e+003,2.042341e-002
1.639223e+003,2.033695e-002
1.641151e+003,2.026020e-002
1.643080e+003,2.019743e-002
1.645008e+003,2.012714e-002
1.646937e+003,2.004225e-002
1.648865e+003,2.000395e-002
1.650794e+003,1.991431e-002
1.652722e+003,1.980297e-002
1.654651e+003,1.964017e-002
1.656579e+003,1.945434e-002
1.658508e+003,1.919179e-002
1.660436e+003,1.892648e-002
1.662365e+003,1.861659e-002
1.664293e+003,1.829161e-002
1.666222e+003,1.794058e-002
1.668150e+003,1.758657e-002
1.670079e+003,1.721942e-002
1.672007e+003,1.688242e-002
1.673936e+003,1.652329e-002
1.675864e+003,1.611788e-002
1.677793e+003,1.572533e-002
1.679721e+003,1.534307e-002
1.681650e+003,1.498152e-002
1.683578e+003,1.465550e-002
1.685507e+003,1.433730e-002
1.687435e+003,1.400700e-002
1.689364e+003,1.367687e-002
1.691292e+003,1.341854e-002
1.693221e+003,1.316443e-002
1.695149e+003,1.287896e-002
1.697078e+003,1.260653e-002
1.699006e+003,1.234500e-002
1.700935e+003,1.206317e-002
1.702863e+003,1.187065e-002
1.704792e+003,1.165004e-002
1.706720e+003,1.146895e-002
1.708649e+003,1.137144e-002
1.710577e+003,1.126329e-002
1.712506e+003,1.121686e-002
1.714434e+003,1.122632e-002
1.716363e+003,1.114831e-002
1.718291e+003,1.110256e-002
1.720220e+003,1.115337e-002
1.722148e+003,1.113975e-002
1.724077e+003,1.106235e-002
1.726005e+003,1.097969e-002
1.727934e+003,1.095727e-002
1.729862e+003,1.092801e-002
1.731791e+003,1.080878e-002
1.733719e+003,1.066327e-002
1.735648e+003,1.055428e-002
1.737576e+003,1.048107e-002
1.739505e+003,1.033370e-002
1.741433e+003,1.016269e-002
1.743362e+003,1.001574e-002
1.745290e+003,9.870041e-003
1.747219e+003,9.645887e-003
1.749147e+003,9.425903e-003
1.751076e+003,9.236961e-003
1.753004e+003,9.035750e-003
1.754933e+003,8.882563e-003
1.756861e+003,8.761333e-003
1.758790e+003,8.645307e-003
1.760718e+003,8.516773e-003
1.762647e+003,8.416076e-003
1.764575e+003,8.302874e-003
1.766504e+003,8.188867e-003
1.768432e+003,8.131767e-003
1.770361e+003,8.123821e-003
1.772289e+003,8.077052e-003
1.774218e+003,8.000510e-003
1.776146e+003,8.034724e-003
1.778075e+003,8.023900e-003
1.780003e+003,7.944146e-003
1.781932e+003,7.933452e-003
1.783860e+003,7.989066e-003
1.785789e+003,7.957540e-003
1.787717e+003,7.907758e-003
1.789646e+003,7.863585e-003
1.791574e+003,7.893013e-003
1.793503e+003,7.874612e-003
1.795431e+003,7.868784e-003
1.797360e+003,7.868185e-003
1.799288e+003,7.852564e-003
1.801217e+003,7.822251e-003
1.803145e+003,7.806608e-003
1.805074e+003,7.779473e-003
1.807002e+003,7.771445e-003
1.808931e+003,7.730566e-003
1.810859e+003,7.734867e-003
1.812788e+003,7.647118e-003
1.814716e+003,7.577721e-003
1.816645e+003,7.644563e-003
1.818573e+003,7.750935e-003
1.820502e+003,7.663588e-003
1.822430e+003,7.585017e-003
1.824359e+003,7.662957e-003
1.826287e+003,7.629258e-003
1.828216e+003,7.580527e-003
1.830144e+003,7.524025e-003
1.832073e+003,7.544760e-003
1.834001e+003,7.612587e-003
1.835930e+003,7.672252e-003
1.837858e+003,7.630535e-003
1.839787e+003,7.553155e-003
1.841715e+003,7.550395e-003
1.843644e+003,7.550085e-003
1.845572e+003,7.446280e-003
1.847501e+003,7.495867e-003
1.849429e+003,7.442965e-003
1.851358e+003,7.287841e-003
1.853286e+003,7.323605e-003
1.855215e+003,7.417402e-003
1.857143e+003,7.448696e-003
1.859072e+003,7.385490e-003
1.861000e+003,7.389226e-003
1.862929e+003,7.389781e-003
1.864857e+003,7.366640e-003
1.866786e+003,7.283051e-003
1.868714e+003,7.268407e-003
1.870643e+003,7.316235e-003
1.872571e+003,7.461005e-003
1.874500e+003,7.373205e-003
1.876428e+003,7.325961e-003
1.878357e+003,7.335828e-003
1.880285e+003,7.293736e-003
1.882214e+003,7.051427e-003
1.884142e+003,7.147551e-003
1.886071e+003,7.338412e-003
1.887999e+003,7.171302e-003
1.889928e+003,7.025280e-003
1.891856e+003,6.900625e-003
1.893785e+003,6.918769e-003
1.895713e+003,6.752928e-003
1.897642e+003,6.840339e-003
1.899570e+003,6.764390e-003
1.901499e+003,6.610420e-003
1.903427e+003,6.554518e-003
1.905356e+003,6.606414e-003
1.907284e+003,6.780324e-003
1.909213e+003,6.776677e-003
1.911141e+003,6.786352e-003
1.913070e+003,6.678855e-003
1.914998e+003,6.575403e-003
1.916927e+003,6.247864e-003
1.918855e+003,6.099992e-003
1.920784e+003,6.117344e-003
1.922712e+003,6.199060e-003
1.924641e+003,6.039744e-003
1.926569e+003,5.669096e-003
1.928498e+003,5.649900e-003
1.930426e+003,5.792206e-003
1.932355e+003,5.544602e-003
1.934283e+003,5.433736e-003
1.936212e+003,5.451773e-003
1.938140e+003,5.065093e-003
1.940069e+003,4.758238e-003
1.941997e+003,5.076331e-003
1.943926e+003,5.075922e-003
1.945854e+003,4.849536e-003
1.947783e+003,4.440908e-003
1.949711e+003,3.784753e-003
1.951640e+003,3.580112e-003
1.953568e+003,3.423881e-003
1.955497e+003,3.264543e-003
1.957425e+003,3.272090e-003
1.959354e+003,2.452049e-003
1.961282e+003,1.309153e-003
1.963211e+003,1.185697e-003
1.965139e+003,1.248414e-003
1.967068e+003,6.987635e-004
1.968996e+003,2.803893e-004
1.970925e+003,3.367243e-004
1.972853e+003,-3.740921e-004
1.974782e+003,-1.037756e-003
1.976710e+003,-1.502009e-003
1.978639e+003,-9.665442e-004
1.980567e+003,-1.647190e-004
1.982496e+003,4.603860e-004
1.984424e+003,5.664948e-004
1.986353e+003,1.040180e-003
1.988281e+003,1.051376e-003
1.990210e+003,1.259563e-003
1.992138e+003,1.642244e-003
1.994067e+003,1.524139e-003
1.995995e+003,1.039327e-003
1.997924e+003,1.017302e-003
1.999852e+003,6.843234e-004
2.001781e+003,5.585014e-005
2.003709e+003,-9.294488e-005
2.005638e+003,-1.663378e-003
2.007566e+003,-2.097424e-003
2.009495e+003,-1.657241e-003
2.011423e+003,-1.467530e-003
2.013352e+003,-1.786734e-003
2.015280e+003,-2.242588e-003
2.017208e+003,-2.931515e-003
2.019137e+003,-2.710494e-003
2.021066e+003,-3.535982e-003
2.022994e+003,-3.556160e-003
2.024922e+003,-2.942616e-003
2.026851e+003,-2.631647e-003
2.028780e+003,-2.752017e-003
2.030708e+003,-2.021313e-003
2.032636e+003,-2.166061e-003
2.034565e+003,-2.394798e-003
2.036494e+003,-1.670920e-003
2.038422e+003,-1.147967e-003
2.040350e+003,-7.752443e-004
2.042279e+003,-9.153279e-005
2.044208e+003,-8.568301e-005
2.046136e+003,5.547580e-004
2.048064e+003,4.709061e-004
2.049993e+003,1.049064e-003
2.051921e+003,2.165456e-003
2.053850e+003,2.681404e-003
2.055778e+003,3.029587e-003
2.057707e+003,3.229073e-003
2.059635e+003,3.702400e-003
2.061564e+003,3.624648e-003
2.063492e+003,3.367735e-003
2.065421e+003,3.780358e-003
2.067349e+003,3.767860e-003
2.069278e+003,3.460328e-003
2.071206e+003,3.679008e-003
2.073135e+003,3.842794e-003
2.075063e+003,3.925532e-003
2.076992e+003,4.239380e-003
2.078920e+003,4.442398e-003
2.080849e+003,4.461407e-003
2.082777e+003,4.777810e-003
2.084706e+003,4.950560e-003
2.086634e+003,5.098599e-003
2.088563e+003,5.208115e-003
2.090491e+003,4.772266e-003
2.092420e+003,4.781492e-003
2.094348e+003,4.809330e-003
2.096277e+003,4.928410e-003
2.098205e+003,5.109487e-003
2.100134e+003,5.264238e-003
2.102062e+003,4.916721e-003
2.103991e+003,4.847157e-003
2.105919e+003,5.157264e-003
2.107848e+003,5.177148e-003
2.109776e+003,5.068117e-003
2.111705e+003,5.205784e-003
2.113633e+003,5.577228e-003
2.115562e+003,5.447160e-003
2.117490e+003,5.295563e-003
2.119419e+003,5.211150e-003
2.121347e+003,5.058496e-003
2.123276e+003,4.876006e-003
2.125204e+003,4.694966e-003
2.127133e+003,4.370897e-003
2.129061e+003,3.802560e-003
2.130990e+003,3.390353e-003
2.132918e+003,2.638077e-003
2.134847e+003,2.138992e-003
2.136775e+003,2.079726e-003
2.138704e+003,1.897285e-003
2.140632e+003,8.677190e-004
2.142561e+003,1.958332e-004
2.144489e+003,1.783640e-004
2.146418e+003,4.276728e-004
2.148346e+003,3.499038e-004
2.150275e+003,-5.135746e-006
2.152203e+003,-1.035562e-003
2.154132e+003,-2.877251e-003
2.156060e+003,-4.297490e-003
2.157989e+003,-6.685324e-003
2.159917e+003,-7.182256e-003
2.161846e+003,-4.309301e-003
2.163774e+003,-3.560856e-003
2.165703e+003,-2.518854e-003
2.167631e+003,-1.654672e-003
2.169560e+003,-4.538979e-004
2.171488e+003,-1.104217e-004
2.173417e+003,2.791446e-004
2.175345e+003,-5.622188e-004
2.177274e+003,-2.010108e-004
2.179202e+003,6.303021e-004
2.181131e+003,9.026472e-004
2.183059e+003,1.051621e-003
2.184988e+003,1.797093e-003
2.186916e+003,1.043152e-003
2.188845e+003,4.643898e-004
2.190773e+003,4.848891e-004
2.192702e+003,1.156326e-003
2.194630e+003,1.590194e-003
2.196559e+003,1.723569e-003
2.198487e+003,2.369073e-003
2.200416e+003,2.654378e-003
2.202344e+003,2.728526e-003
2.204273e+003,2.294719e-003
2.206201e+003,2.252485e-003
2.208130e+003,2.061315e-003
2.210058e+003,2.190906e-003
2.211987e+003,2.782779e-003
2.213915e+003,2.668313e-003
2.215844e+003,2.906114e-003
2.217772e+003,3.311985e-003
2.219701e+003,3.675562e-003
2.221629e+003,3.538914e-003
2.223558e+003,3.361268e-003
2.225486e+003,3.552476e-003
2.227415e+003,4.052889e-003
2.229343e+003,4.141626e-003
2.231272e+003,4.116817e-003
2.233200e+003,4.114645e-003
2.235129e+003,4.061923e-003
2.237057e+003,4.346783e-003
2.238986e+003,4.458247e-003
2.240914e+003,4.260655e-003
2.242843e+003,4.242274e-003
2.244771e+003,4.564317e-003
2.246700e+003,4.867001e-003
2.248628e+003,4.761407e-003
2.250557e+003,5.201643e-003
2.252485e+003,5.595531e-003
2.254414e+003,5.662656e-003
2.256342e+003,5.696748e-003
2.258271e+003,5.798421e-003
2.260199e+003,6.117305e-003
2.262128e+003,6.420883e-003
2.264056e+003,6.621094e-003
2.265985e+003,6.429196e-003
2.267913e+003,6.455742e-003
2.269842e+003,6.863998e-003
2.271770e+003,6.990596e-003
2.273699e+003,7.016975e-003
2.275627e+003,7.148386e-003
2.277556e+003,7.224448e-003
2.279484e+003,7.360766e-003
2.281413e+003,7.655642e-003
2.283341e+003,7.770791e-003
2.285270e+003,7.695445e-003
2.287198e+003,7.732486e-003
2.289127e+003,7.699574e-003
2.291055e+003,7.802565e-003
2.292984e+003,7.903114e-003
2.294912e+003,8.000222e-003
2.296841e+003,8.086544e-003
2.298769e+003,8.026258e-003
2.300698e+003,8.055895e-003
2.302626e+003,8.017480e-003
2.304555e+003,7.967265e-003
2.306483e+003,8.068956e-003
2.308412e+003,8.212534e-003
2.310340e+003,8.107039e-003
2.312269e+003,7.917822e-003
2.314197e+003,7.940651e-003
2.316125e+003,8.018683e-003
2.318054e+003,8.102965e-003
2.319983e+003,8.369035e-003
2.321911e+003,8.471129e-003
2.323840e+003,8.612930e-003
2.325768e+003,8.749915e-003
2.327697e+003,8.642916e-003
2.329625e+003,8.460204e-003
2.331553e+003,8.390822e-003
2.333482e+003,8.259748e-003
2.335411e+003,8.468578e-003
2.337339e+003,8.131750e-003
2.339268e+003,8.127727e-003
2.341196e+003,7.974126e-003
2.343125e+003,8.024392e-003
2.345053e+003,7.930734e-003
2.346981e+003,8.004375e-003
2.348910e+003,7.969894e-003
2.350839e+003,8.074605e-003
2.352767e+003,7.947548e-003
2.354696e+003,8.098422e-003
2.356624e+003,8.252062e-003
2.358552e+003,8.341747e-003
2.360481e+003,8.286055e-003
2.362409e+003,8.092261e-003
2.364338e+003,8.470589e-003
2.366267e+003,8.531335e-003
2.368195e+003,8.257555e-003
2.370124e+003,8.757749e-003
2.372052e+003,8.836724e-003
2.373980e+003,8.955373e-003
2.375909e+003,8.943428e-003
2.377838e+003,8.875630e-003
2.379766e+003,8.850116e-003
2.381695e+003,8.719971e-003
2.383623e+003,8.736733e-003
2.385552e+003,8.727268e-003
2.387480e+003,8.683643e-003
2.389408e+003,8.708014e-003
2.391337e+003,8.727624e-003
2.393266e+003,8.735592e-003
2.395194e+003,8.600706e-003
2.397123e+003,8.511016e-003
2.399051e+003,8.529777e-003
2.400979e+003,8.455548e-003
2.402908e+003,8.434534e-003
2.404836e+003,8.356805e-003
2.406765e+003,8.287059e-003
2.408694e+003,8.262643e-003
2.410622e+003,8.296617e-003
2.412551e+003,8.269735e-003
2.414479e+003,8.311748e-003
2.416407e+003,8.287566e-003
2.418336e+003,8.200003e-003
2.420264e+003,8.097469e-003
2.422193e+003,8.174274e-003
2.424122e+003,8.161579e-003
2.426050e+003,8.165057e-003
2.427979e+003,8.181567e-003
2.429907e+003,8.186632e-003
2.431835e+003,8.292497e-003
2.433764e+003,8.382307e-003
2.435692e+003,8.348056e-003
2.437621e+003,8.371870e-003
2.439550e+003,8.389739e-003
2.441478e+003,8.413927e-003
2.443406e+003,8.440346e-003
2.445335e+003,8.443386e-003
2.447263e+003,8.548638e-003
2.449192e+003,8.499336e-003
2.451121e+003,8.541372e-003
2.453049e+003,8.534479e-003
2.454978e+003,8.506230e-003
2.456906e+003,8.497985e-003
2.458834e+003,8.337417e-003
2.460763e+003,8.181567e-003
2.462691e+003,8.246366e-003
2.464620e+003,8.342010e-003
2.466549e+003,8.347279e-003
2.468477e+003,8.299150e-003
2.470406e+003,8.294523e-003
2.472334e+003,8.200678e-003
2.474262e+003,8.111614e-003
2.476191e+003,8.071712e-003
2.478119e+003,8.212598e-003
2.480048e+003,8.320833e-003
2.481977e+003,8.315666e-003
2.483905e+003,8.218473e-003
2.485833e+003,8.241706e-003
2.487762e+003,8.341571e-003
2.489690e+003,8.323805e-003
2.491619e+003,8.149121e-003
2.493547e+003,8.116239e-003
2.495476e+003,8.183221e-003
2.497405e+003,8.274090e-003
2.499333e+003,8.295266e-003
2.501261e+003,8.208478e-003
2.503190e+003,8.135819e-003
2.505118e+003,8.184876e-003
2.507047e+003,8.134063e-003
2.508975e+003,8.225699e-003
2.510904e+003,8.264128e-003
2.512833e+003,8.311748e-003
2.514761e+003,8.316037e-003
2.516689e+003,8.384943e-003
2.518618e+003,8.374673e-003
2.520546e+003,8.349239e-003
2.522475e+003,8.244036e-003
2.524403e+003,8.287667e-003
2.526332e+003,8.252579e-003
2.528260e+003,8.107259e-003
2.530189e+003,8.152261e-003
2.532117e+003,8.301481e-003
2.534046e+003,8.242246e-003
2.535974e+003,8.222053e-003
2.537903e+003,8.322759e-003
2.539831e+003,8.356163e-003
2.541760e+003,8.399029e-003
2.543688e+003,8.391969e-003
2.545617e+003,8.205540e-003
2.547545e+003,8.227387e-003
2.549474e+003,8.366668e-003
2.551402e+003,8.385415e-003
2.553331e+003,8.369438e-003
2.555259e+003,8.419028e-003
2.557188e+003,8.363088e-003
2.559116e+003,8.351299e-003
2.561045e+003,8.456190e-003
2.562973e+003,8.356500e-003
2.564902e+003,8.392847e-003
2.566830e+003,8.576923e-003
2.568759e+003,8.580741e-003
2.570687e+003,8.493153e-003
2.572616e+003,8.412677e-003
2.574544e+003,8.400043e-003
2.576473e+003,8.538196e-003
2.578401e+003,8.599870e-003
2.580330e+003,8.587839e-003
2.582258e+003,8.694241e-003
2.584187e+003,8.667604e-003
2.586115e+003,8.638874e-003
2.588044e+003,8.644721e-003
2.589972e+003,8.688224e-003
2.591901e+003,8.625860e-003
2.593829e+003,8.619304e-003
2.595758e+003,8.708439e-003
2.597686e+003,8.724294e-003
2.599615e+003,8.736126e-003
2.601543e+003,8.705126e-003
2.603472e+003,8.769562e-003
2.605400e+003,8.937326e-003
2.607329e+003,9.018441e-003
2.609257e+003,9.047096e-003
2.611186e+003,9.100012e-003
2.613114e+003,9.101804e-003
2.615043e+003,9.073992e-003
2.616971e+003,9.118418e-003
2.618900e+003,9.215237e-003
2.620828e+003,9.299281e-003
2.622757e+003,9.271422e-003
2.624685e+003,9.280596e-003
2.626614e+003,9.327007e-003
2.628542e+003,9.368681e-003
2.630471e+003,9.464777e-003
2.632399e+003,9.553375e-003
2.634328e+003,9.549716e-003
2.636256e+003,9.545042e-003
2.638185e+003,9.614313e-003
2.640113e+003,9.658320e-003
2.642042e+003,9.649681e-003
2.643970e+003,9.689862e-003
2.645899e+003,9.753361e-003
2.647827e+003,9.778269e-003
2.649756e+003,9.823072e-003
2.651684e+003,9.838018e-003
2.653613e+003,9.828257e-003
2.655541e+003,9.861880e-003
2.657470e+003,9.926014e-003
2.659398e+003,9.917946e-003
2.661327e+003,9.944659e-003
2.663255e+003,9.979444e-003
2.665184e+003,9.987717e-003
2.667112e+003,1.001918e-002
2.669041e+003,1.002006e-002
2.670969e+003,1.000897e-002
2.672898e+003,1.001888e-002
2.674826e+003,9.977307e-003
2.676755e+003,9.969781e-003
2.678683e+003,9.991819e-003
2.680612e+003,1.002756e-002
2.682540e+003,1.003407e-002
2.684469e+003,1.002094e-002
2.686397e+003,1.001847e-002
2.688326e+003,1.002261e-002
2.690254e+003,1.001952e-002
2.692183e+003,1.000416e-002
2.694111e+003,1.003614e-002
2.696040e+003,1.004966e-002
2.697968e+003,1.008680e-002
2.699897e+003,1.020425e-002
2.701825e+003,1.018767e-002
2.703754e+003,1.015636e-002
2.705682e+003,1.014754e-002
2.707611e+003,1.021433e-002
2.709539e+003,1.024120e-002
2.711468e+003,1.017725e-002
2.713396e+003,1.018241e-002
2.715325e+003,1.020113e-002
2.717253e+003,1.017752e-002
2.719182e+003,1.018010e-002
2.721110e+003,1.020764e-002
2.723039e+003,1.028469e-002
2.724967e+003,1.030379e-002
2.726896e+003,1.024052e-002
2.728824e+003,1.021721e-002
2.730753e+003,1.026993e-002
2.732681e+003,1.027437e-002
2.734610e+003,1.028435e-002
2.736538e+003,1.031740e-002
2.738467e+003,1.029263e-002
2.740395e+003,1.029572e-002
2.742324e+003,1.028608e-002
2.744252e+003,1.028998e-002
2.746181e+003,1.031068e-002
2.748109e+003,1.034960e-002
2.750038e+003,1.027539e-002
2.751966e+003,1.022722e-002
2.753895e+003,1.027275e-002
2.755823e+003,1.033236e-002
2.757752e+003,1.040104e-002
2.759680e+003,1.042304e-002
2.761609e+003,1.037780e-002
2.763537e+003,1.037705e-002
2.765466e+003,1.036975e-002
2.767394e+003,1.037081e-002
2.769323e+003,1.037617e-002
2.771251e+003,1.038703e-002
2.773180e+003,1.044018e-002
2.775108e+003,1.047727e-002
2.777037e+003,1.045290e-002
2.778965e+003,1.043919e-002
2.780894e+003,1.049055e-002
2.782822e+003,1.049058e-002
2.784750e+003,1.053559e-002
2.786679e+003,1.062492e-002
2.788608e+003,1.066139e-002
2.790536e+003,1.066203e-002
2.792465e+003,1.062420e-002
2.794393e+003,1.064437e-002
2.796322e+003,1.067042e-002
2.798250e+003,1.063368e-002
2.800178e+003,1.063813e-002
2.802107e+003,1.068190e-002
2.804036e+003,1.073175e-002
2.805964e+003,1.073440e-002
2.807893e+003,1.072543e-002
2.809821e+003,1.073002e-002
2.811750e+003,1.080376e-002
2.813678e+003,1.083589e-002
2.815606e+003,1.087432e-002
2.817535e+003,1.091060e-002
2.819464e+003,1.093656e-002
2.821392e+003,1.093898e-002
2.823321e+003,1.096052e-002
2.825249e+003,1.104837e-002
2.827177e+003,1.109796e-002
2.829106e+003,1.111213e-002
2.831034e+003,1.113542e-002
2.832963e+003,1.116955e-002
2.834892e+003,1.124381e-002
2.836820e+003,1.132073e-002
2.838749e+003,1.138756e-002
2.840677e+003,1.143944e-002
2.842605e+003,1.150772e-002
2.844534e+003,1.158754e-002
2.846462e+003,1.167028e-002
2.848391e+003,1.174874e-002
2.850320e+003,1.186273e-002
2.852248e+003,1.191664e-002
2.854177e+003,1.195291e-002
2.856105e+003,1.195516e-002
2.858033e+003,1.197396e-002
2.859962e+003,1.198169e-002
2.861890e+003,1.207687e-002
2.863819e+003,1.222349e-002
2.865748e+003,1.230402e-002
2.867676e+003,1.232454e-002
2.869604e+003,1.233661e-002
2.871533e+003,1.236013e-002
2.873461e+003,1.239760e-002
2.875390e+003,1.247473e-002
2.877319e+003,1.247814e-002
2.879247e+003,1.241496e-002
2.881176e+003,1.245205e-002
2.883104e+003,1.254743e-002
2.885032e+003,1.256179e-002
2.886961e+003,1.256258e-002
2.888889e+003,1.263400e-002
2.890818e+003,1.261285e-002
2.892747e+003,1.259563e-002
2.894675e+003,1.259900e-002
2.896604e+003,1.265034e-002
2.898532e+003,1.266238e-002
2.900460e+003,1.259365e-002
2.902389e+003,1.261272e-002
2.904317e+003,1.265519e-002
2.906246e+003,1.264782e-002
2.908175e+003,1.265420e-002
2.910103e+003,1.263714e-002
2.912031e+003,1.261582e-002
2.913960e+003,1.267606e-002
2.915888e+003,1.270049e-002
2.917817e+003,1.265948e-002
2.919745e+003,1.262793e-002
2.921674e+003,1.264192e-002
2.923603e+003,1.256595e-002
2.925531e+003,1.253089e-002
2.927459e+003,1.252612e-002
2.929388e+003,1.254225e-002
2.931316e+003,1.251783e-002
2.933245e+003,1.244868e-002
2.935173e+003,1.237634e-002
2.937102e+003,1.233284e-002
2.939031e+003,1.229257e-002
2.940959e+003,1.224632e-002
2.942887e+003,1.218749e-002
2.944816e+003,1.209707e-002
2.946744e+003,1.195876e-002
2.948673e+003,1.189928e-002
2.950601e+003,1.187253e-002
2.952530e+003,1.190295e-002
2.954458e+003,1.178623e-002
2.956387e+003,1.164614e-002
2.958315e+003,1.157450e-002
2.960244e+003,1.152077e-002
2.962172e+003,1.149080e-002
2.964101e+003,1.145314e-002
2.966029e+003,1.146089e-002
2.967958e+003,1.146546e-002
2.969886e+003,1.142223e-002
2.971815e+003,1.131151e-002
2.973743e+003,1.118544e-002
2.975672e+003,1.112427e-002
2.977600e+003,1.110055e-002
2.979529e+003,1.100542e-002
2.981457e+003,1.095128e-002
2.983386e+003,1.093681e-002
2.985314e+003,1.092232e-002
2.987243e+003,1.084893e-002
2.989171e+003,1.077508e-002
2.991100e+003,1.076000e-002
2.993028e+003,1.077124e-002
2.994957e+003,1.069012e-002
2.996885e+003,1.065618e-002
2.998814e+003,1.067965e-002
3.000742e+003,1.067553e-002
3.002671e+003,1.073938e-002
3.004599e+003,1.071238e-002
3.006528e+003,1.066277e-002
3.008456e+003,1.071281e-002
3.010385e+003,1.074797e-002
3.012313e+003,1.079189e-002
3.014242e+003,1.084237e-002
3.016170e+003,1.080078e-002
3.018099e+003,1.079396e-002
3.020027e+003,1.080582e-002
3.021956e+003,1.080103e-002
3.023884e+003,1.088764e-002
3.025813e+003,1.085917e-002
3.027741e+003,1.085259e-002
3.029670e+003,1.087610e-002
3.031598e+003,1.086874e-002
3.033527e+003,1.090328e-002
3.035455e+003,1.092098e-002
3.037384e+003,1.092292e-002
3.039312e+003,1.095013e-002
3.041241e+003,1.108594e-002
3.043169e+003,1.115735e-002
3.045098e+003,1.117471e-002
3.047026e+003,1.115072e-002
3.048955e+003,1.121035e-002
3.050883e+003,1.123715e-002
3.052812e+003,1.123483e-002
3.054740e+003,1.127243e-002
3.056669e+003,1.131106e-002
3.058597e+003,1.133062e-002
3.060526e+003,1.142675e-002
3.062454e+003,1.156685e-002
3.064383e+003,1.151722e-002
3.066311e+003,1.149762e-002
3.068240e+003,1.155042e-002
3.070168e+003,1.152311e-002
3.072097e+003,1.149382e-002
3.074025e+003,1.150677e-002
3.075954e+003,1.150363e-002
3.077882e+003,1.159591e-002
3.079811e+003,1.170304e-002
3.081739e+003,1.174100e-002
3.083668e+003,1.170975e-002
3.085596e+003,1.171278e-002
3.087525e+003,1.177763e-002
3.089453e+003,1.178495e-002
3.091382e+003,1.178625e-002
3.093310e+003,1.181356e-002
3.095239e+003,1.183057e-002
3.097167e+003,1.199694e-002
3.099096e+003,1.204427e-002
3.101024e+003,1.197455e-002
3.102953e+003,1.195381e-002
3.104881e+003,1.194848e-002
3.106810e+003,1.196294e-002
3.108738e+003,1.198639e-002
3.110667e+003,1.204573e-002
3.112595e+003,1.211921e-002
3.114524e+003,1.211695e-002
3.116452e+003,1.213553e-002
3.118381e+003,1.214301e-002
3.120309e+003,1.216634e-002
3.122238e+003,1.217500e-002
3.124166e+003,1.220652e-002
3.126095e+003,1.233442e-002
3.128023e+003,1.247338e-002
3.129952e+003,1.248576e-002
3.131880e+003,1.246013e-002
3.133809e+003,1.256872e-002
3.135737e+003,1.263752e-002
3.137666e+003,1.265385e-002
3.139594e+003,1.270140e-002
3.141523e+003,1.273178e-002
3.143451e+003,1.275429e-002
3.145380e+003,1.275481e-002
3.147308e+003,1.276237e-002
3.149237e+003,1.285448e-002
3.151165e+003,1.289714e-002
3.153094e+003,1.296906e-002
3.155022e+003,1.305641e-002
3.156951e+003,1.306511e-002
3.158879e+003,1.315387e-002
3.160808e+003,1.323809e-002
3.162736e+003,1.317305e-002
3.164665e+003,1.328000e-002
3.166593e+003,1.342587e-002
3.168522e+003,1.343385e-002
3.170450e+003,1.340367e-002
3.172379e+003,1.342689e-002
3.174307e+003,1.346147e-002
3.176236e+003,1.357776e-002
3.178164e+003,1.368348e-002
3.180093e+003,1.375609e-002
3.182021e+003,1.372637e-002
3.183950e+003,1.374800e-002
3.185878e+003,1.388376e-002
3.187807e+003,1.390929e-002
3.189735e+003,1.395031e-002
3.191664e+003,1.402533e-002
3.193592e+003,1.408275e-002
3.195521e+003,1.422694e-002
3.197449e+003,1.430052e-002
3.199378e+003,1.432275e-002
3.201306e+003,1.429642e-002
3.203235e+003,1.432636e-002
3.205163e+003,1.442720e-002
3.207092e+003,1.455925e-002
3.209020e+003,1.460901e-002
3.210948e+003,1.462195e-002
3.212877e+003,1.463449e-002
3.214806e+003,1.465243e-002
3.216734e+003,1.472348e-002
3.218663e+003,1.480830e-002
3.220591e+003,1.499332e-002
3.222520e+003,1.504106e-002
3.224448e+003,1.506131e-002
3.226376e+003,1.516237e-002
3.228305e+003,1.519010e-002
3.230234e+003,1.526175e-002
3.232162e+003,1.533605e-002
3.234091e+003,1.541166e-002
3.236019e+003,1.545831e-002
3.237948e+003,1.544487e-002
3.239876e+003,1.547159e-002
3.241804e+003,1.555063e-002
3.243733e+003,1.558426e-002
3.245662e+003,1.568989e-002
3.247590e+003,1.583164e-002
3.249519e+003,1.588976e-002
3.251447e+003,1.597056e-002
3.253375e+003,1.602032e-002
3.255304e+003,1.607964e-002
3.257232e+003,1.615455e-002
3.259161e+003,1.625151e-002
3.261090e+003,1.635795e-002
3.263018e+003,1.643987e-002
3.264947e+003,1.659375e-002
3.266875e+003,1.661236e-002
3.268803e+003,1.659408e-002
3.270732e+003,1.659288e-002
3.272660e+003,1.667981e-002
3.274589e+003,1.674416e-002
3.276518e+003,1.681523e-002
3.278446e+003,1.681740e-002
3.280375e+003,1.687508e-002
3.282303e+003,1.690825e-002
3.284231e+003,1.692687e-002
3.286160e+003,1.699960e-002
3.288088e+003,1.700405e-002
3.290017e+003,1.698894e-002
3.291946e+003,1.698824e-002
3.293874e+003,1.706832e-002
3.295802e+003,1.702076e-002
3.297731e+003,1.702754e-002
3.299659e+003,1.701790e-002
3.301588e+003,1.702259e-002
3.303516e+003,1.710304e-002
3.305445e+003,1.711057e-002
3.307374e+003,1.707450e-002
3.309302e+003,1.708151e-002
3.311230e+003,1.713540e-002
3.313159e+003,1.708651e-002
3.315087e+003,1.714880e-002
3.317016e+003,1.709281e-002
3.318944e+003,1.705933e-002
3.320873e+003,1.704118e-002
3.322802e+003,1.713073e-002
3.324730e+003,1.722102e-002
3.326658e+003,1.723599e-002
3.328587e+003,1.723427e-002
3.330515e+003,1.728695e-002
3.332444e+003,1.725380e-002
3.334372e+003,1.722372e-002
3.336301e+003,1.724632e-002
3.338229e+003,1.716382e-002
3.340158e+003,1.712831e-002
3.342086e+003,1.722971e-002
3.344015e+003,1.722363e-002
3.345943e+003,1.721752e-002
3.347872e+003,1.721724e-002
3.349800e+003,1.714305e-002
3.351729e+003,1.704597e-002
3.353657e+003,1.694860e-002
3.355586e+003,1.688367e-002
3.357514e+003,1.681200e-002
3.359443e+003,1.681634e-002
3.361371e+003,1.675224e-002
3.363300e+003,1.674843e-002
3.365229e+003,1.672568e-002
3.367157e+003,1.659155e-002
3.369085e+003,1.650080e-002
3.371014e+003,1.653862e-002
3.372942e+003,1.656174e-002
3.374871e+003,1.644441e-002
3.376799e+003,1.640871e-002
3.378728e+003,1.643817e-002
3.380656e+003,1.639613e-002
3.382585e+003,1.632184e-002
3.384513e+003,1.628444e-002
3.386442e+003,1.619385e-002
3.388370e+003,1.613645e-002
3.390299e+003,1.606858e-002
3.392227e+003,1.596205e-002
3.394156e+003,1.595185e-002
3.396084e+003,1.593475e-002
3.398013e+003,1.580143e-002
3.399941e+003,1.573155e-002
3.401870e+003,1.574345e-002
3.403798e+003,1.569911e-002
3.405727e+003,1.568142e-002
3.407655e+003,1.563508e-002
3.409584e+003,1.553687e-002
3.411512e+003,1.543002e-002
3.413441e+003,1.531452e-002
3.415369e+003,1.532590e-002
3.417298e+003,1.532672e-002
3.419226e+003,1.518735e-002
3.421155e+003,1.507028e-002
3.423083e+003,1.498388e-002
3.425012e+003,1.488905e-002
3.426940e+003,1.483210e-002
3.428869e+003,1.474728e-002
3.430797e+003,1.472441e-002
3.432726e+003,1.472130e-002
3.434654e+003,1.459361e-002
3.436583e+003,1.445417e-002
3.438511e+003,1.437007e-002
3.440440e+003,1.427587e-002
3.442368e+003,1.410429e-002
3.444297e+003,1.392605e-002
3.446225e+003,1.392634e-002
3.448154e+003,1.385576e-002
3.450082e+003,1.371853e-002
3.452011e+003,1.357675e-002
3.453939e+003,1.347892e-002
3.455868e+003,1.343824e-002
3.457796e+003,1.342247e-002
3.459725e+003,1.336972e-002
3.461653e+003,1.324526e-002
3.463582e+003,1.314008e-002
3.465510e+003,1.295130e-002
3.467439e+003,1.287416e-002
3.469367e+003,1.283870e-002
3.471296e+003,1.265508e-002
3.473224e+003,1.252465e-002
3.475153e+003,1.260328e-002
3.477081e+003,1.250323e-002
3.479010e+003,1.229384e-002
3.480938e+003,1.224199e-002
3.482867e+003,1.223008e-002
3.484795e+003,1.210282e-002
3.486724e+003,1.208013e-002
3.488652e+003,1.193792e-002
3.490581e+003,1.183726e-002
3.492509e+003,1.186238e-002
3.494438e+003,1.177438e-002
3.496366e+003,1.153285e-002
3.498295e+003,1.137331e-002
3.500223e+003,1.129682e-002
3.502152e+003,1.114881e-002
3.504080e+003,1.105238e-002
3.506009e+003,1.112914e-002
3.507937e+003,1.115478e-002
3.509866e+003,1.099410e-002
3.511794e+003,1.084014e-002
3.513723e+003,1.071802e-002
3.515651e+003,1.063175e-002
3.517580e+003,1.057390e-002
3.519508e+003,1.051890e-002
3.521437e+003,1.041895e-002
3.523365e+003,1.022892e-002
3.525294e+003,1.017783e-002
3.527222e+003,1.022759e-002
3.529151e+003,1.012613e-002
3.531079e+003,9.999529e-003
3.533008e+003,9.902268e-003
3.534936e+003,9.787741e-003
3.536865e+003,9.713644e-003
3.538793e+003,9.691622e-003
3.540722e+003,9.708736e-003
3.542650e+003,9.627840e-003
3.544579e+003,9.482660e-003
3.546507e+003,9.475173e-003
3.548436e+003,9.328368e-003
3.550364e+003,9.155901e-003
3.552293e+003,9.097077e-003
3.554221e+003,9.067541e-003
3.556150e+003,8.881184e-003
3.558078e+003,8.790149e-003
3.560007e+003,8.828935e-003
3.561935e+003,8.765033e-003
3.563864e+003,8.624230e-003
3.565792e+003,8.604773e-003
3.567721e+003,8.573788e-003
3.569649e+003,8.478126e-003
3.571578e+003,8.335403e-003
3.573506e+003,8.200467e-003
3.575435e+003,8.115364e-003
3.577363e+003,7.989860e-003
3.579292e+003,7.888457e-003
3.581220e+003,7.807853e-003
3.583149e+003,7.773457e-003
3.585077e+003,7.696858e-003
3.587006e+003,7.536249e-003
3.588934e+003,7.403562e-003
3.590863e+003,7.337213e-003
3.592791e+003,7.280540e-003
3.594720e+003,7.281866e-003
3.596648e+003,7.221838e-003
3.598577e+003,7.125590e-003
3.600505e+003,6.960566e-003
3.602434e+003,6.873871e-003
3.604362e+003,6.866499e-003
3.606291e+003,6.833130e-003
3.608219e+003,6.848954e-003
3.610148e+003,6.979270e-003
3.612076e+003,7.112346e-003
3.614005e+003,7.010853e-003
3.615933e+003,6.803233e-003
3.617862e+003,6.706001e-003
3.619790e+003,6.497988e-003
3.621719e+003,6.377530e-003
3.623647e+003,6.414524e-003
3.625576e+003,6.374571e-003
3.627504e+003,6.347991e-003
3.629433e+003,6.325471e-003
3.631361e+003,6.236692e-003
3.633290e+003,6.265061e-003
3.635218e+003,6.372173e-003
3.637146e+003,6.407234e-003
3.639075e+003,6.402699e-003
3.641004e+003,6.391941e-003
3.642932e+003,6.374251e-003
3.644861e+003,6.388377e-003
3.646789e+003,6.434942e-003
3.648718e+003,6.502274e-003
3.650646e+003,6.462536e-003
3.652574e+003,6.360674e-003
3.654503e+003,6.299347e-003
3.656432e+003,6.315007e-003
3.658360e+003,6.417288e-003
3.660289e+003,6.353372e-003
3.662217e+003,6.302129e-003
3.664146e+003,6.373899e-003
3.666074e+003,6.316944e-003
3.668002e+003,6.233693e-003
3.669931e+003,6.150722e-003
3.671860e+003,6.085258e-003
3.673788e+003,6.059764e-003
3.675717e+003,6.100991e-003
3.677645e+003,6.136516e-003
3.679573e+003,6.072434e-003
3.681502e+003,5.887219e-003
3.683430e+003,5.782060e-003
3.685359e+003,5.816479e-003
3.687288e+003,5.794061e-003
3.689216e+003,5.625190e-003
3.691145e+003,5.549187e-003
3.693073e+003,5.692752e-003
3.695001e+003,5.755892e-003
3.696930e+003,5.640894e-003
3.698858e+003,5.538002e-003
3.700787e+003,5.536029e-003
3.702716e+003,5.533477e-003
3.704644e+003,5.522060e-003
3.706573e+003,5.531250e-003
3.708501e+003,5.646636e-003
3.710429e+003,5.827770e-003
3.712358e+003,5.925000e-003
3.714286e+003,6.018766e-003
3.716215e+003,6.051396e-003
3.718144e+003,5.895592e-003
3.720072e+003,5.609638e-003
3.722000e+003,5.436708e-003
3.723929e+003,5.460825e-003
3.725857e+003,5.461592e-003
3.727786e+003,5.394758e-003
3.729714e+003,5.451370e-003
3.731643e+003,5.440260e-003
3.733572e+003,5.552960e-003
3.735500e+003,5.665504e-003
3.737428e+003,5.737118e-003
3.739357e+003,5.773691e-003
3.741285e+003,5.875895e-003
3.743214e+003,6.000786e-003
3.745142e+003,6.012659e-003
3.747071e+003,6.023162e-003
3.749000e+003,6.079299e-003
3.750928e+003,6.127448e-003
3.752856e+003,6.198308e-003
3.754785e+003,6.295664e-003
3.756713e+003,6.358597e-003
3.758642e+003,6.343110e-003
3.760570e+003,6.199987e-003
3.762499e+003,6.211761e-003
3.764427e+003,6.273828e-003
3.766356e+003,6.232730e-003
3.768284e+003,6.242288e-003
3.770213e+003,6.179188e-003
3.772141e+003,6.194970e-003
3.774070e+003,6.214015e-003
3.775998e+003,6.265173e-003
3.777927e+003,6.345698e-003
3.779855e+003,6.312226e-003
3.781784e+003,6.281234e-003
3.783712e+003,6.320303e-003
3.785641e+003,6.385366e-003
3.787569e+003,6.372957e-003
3.789498e+003,6.391199e-003
3.791426e+003,6.366626e-003
3.793355e+003,6.265949e-003
3.795283e+003,6.233180e-003
3.797212e+003,6.350704e-003
3.799140e+003,6.362298e-003
3.801069e+003,6.311959e-003
3.802997e+003,6.391517e-003
3.804926e+003,6.467652e-003
3.806854e+003,6.445746e-003
3.808783e+003,6.410195e-003
3.810711e+003,6.345526e-003
3.812640e+003,6.400569e-003
3.814568e+003,6.406319e-003
3.816497e+003,6.415080e-003
3.818425e+003,6.405687e-003
3.820354e+003,6.403207e-003
3.822282e+003,6.394404e-003
3.824211e+003,6.403026e-003
3.826139e+003,6.401673e-003
3.828068e+003,6.442592e-003
3.829996e+003,6.569597e-003
3.831925e+003,6.545661e-003
3.833853e+003,6.403592e-003
3.835782e+003,6.320013e-003
3.837710e+003,6.387553e-003
3.839639e+003,6.426468e-003
3.841567e+003,6.479136e-003
3.843496e+003,6.573108e-003
3.845424e+003,6.482863e-003
3.847353e+003,6.418944e-003
3.849281e+003,6.420142e-003
3.851210e+003,6.379898e-003
3.853138e+003,6.360637e-003
3.855067e+003,6.376637e-003
3.856995e+003,6.391312e-003
3.858924e+003,6.402547e-003
3.860852e+003,6.458439e-003
3.862781e+003,6.491925e-003
3.864709e+003,6.497235e-003
3.866638e+003,6.518018e-003
3.868566e+003,6.499230e-003
3.870495e+003,6.423352e-003
3.872423e+003,6.480934e-003
3.874352e+003,6.510721e-003
3.876280e+003,6.519622e-003
3.878209e+003,6.559195e-003
3.880137e+003,6.548177e-003
3.882066e+003,6.529734e-003
3.883994e+003,6.559409e-003
3.885923e+003,6.560114e-003
3.887851e+003,6.538271e-003
3.889780e+003,6.541328e-003
3.891708e+003,6.554645e-003
3.893637e+003,6.527903e-003
3.895565e+003,6.487749e-003
3.897494e+003,6.481833e-003
3.899422e+003,6.489139e-003
3.901351e+003,6.557997e-003
3.903279e+003,6.587222e-003
3.905208e+003,6.508317e-003
3.907136e+003,6.488032e-003
3.909065e+003,6.579262e-003
3.910993e+003,6.546399e-003
3.912922e+003,6.508349e-003
3.914850e+003,6.532765e-003
3.916779e+003,6.541252e-003
3.918707e+003,6.577952e-003
3.920636e+003,6.590043e-003
3.922564e+003,6.628017e-003
3.924493e+003,6.653443e-003
3.926421e+003,6.548387e-003
3.928350e+003,6.476000e-003
3.930278e+003,6.525537e-003
3.932207e+003,6.517238e-003
3.934135e+003,6.505726e-003
3.936064e+003,6.512171e-003
3.937992e+003,6.510478e-003
3.939921e+003,6.520644e-003
3.941849e+003,6.592540e-003
3.943778e+003,6.590541e-003
3.945706e+003,6.548002e-003
3.947635e+003,6.587352e-003
3.949563e+003,6.613254e-003
3.951492e+003,6.529041e-003
3.953420e+003,6.456914e-003
3.955349e+003,6.458312e-003
3.957277e+003,6.497049e-003
3.959206e+003,6.519389e-003
3.961134e+003,6.505116e-003
3.963063e+003,6.492266e-003
3.964991e+003,6.554836e-003
3.966920e+003,6.529885e-003
3.968848e+003,6.477803e-003
3.970777e+003,6.460967e-003
3.972705e+003,6.375457e-003
3.974634e+003,6.382824e-003
3.976562e+003,6.470623e-003
3.978491e+003,6.475900e-003
3.980419e+003,6.469386e-003
3.982348e+003,6.518821e-003
3.984276e+003,6.455940e-003
3.986205e+003,6.478745e-003
3.988133e+003,6.520377e-003
3.990062e+003,6.472547e-003
3.991990e+003,6.444395e-003
3.993919e+003,6.429571e-003
3.995847e+003,6.492536e-003
3.997776e+003,6.502566e-003
3.999704e+003,6.502787e-003
4.001633e+003,0.000000e+000
