3.991989e+002,4.274723e-002
4.011274e+002,4.854237e-002
4.030559e+002,4.854237e-002
4.049844e+002,4.975048e-002
4.069129e+002,5.018192e-002
4.088414e+002,4.952623e-002
4.107699e+002,4.953365e-002
4.126984e+002,5.173067e-002
4.146269e+002,5.209583e-002
4.165554e+002,5.311988e-002
4.184839e+002,5.291881e-002
4.204124e+002,5.287655e-002
4.223409e+002,5.381678e-002
4.242694e+002,5.480602e-002
4.261979e+002,5.608465e-002
4.281264e+002,5.693360e-002
4.300549e+002,5.623542e-002
4.319834e+002,5.535097e-002
4.339119e+002,5.565763e-002
4.358404e+002,5.587045e-002
4.377689e+002,5.636038e-002
4.396974e+002,5.704712e-002
4.416259e+002,5.645358e-002
4.435544e+002,5.606835e-002
4.454829e+002,5.639893e-002
4.474114e+002,5.652132e-002
4.493399e+002,5.587012e-002
4.512684e+002,5.521910e-002
4.531969e+002,5.488532e-002
4.551254e+002,5.580480e-002
4.570539e+002,5.641227e-002
4.589824e+002,5.642429e-002
4.609109e+002,5.697364e-002
4.628394e+002,5.651499e-002
4.647679e+002,5.641962e-002
4.666964e+002,5.655366e-002
4.686249e+002,5.560055e-002
4.705533e+002,5.577153e-002
4.724819e+002,5.538879e-002
4.744103e+002,5.444940e-002
4.763389e+002,5.431958e-002
4.782673e+002,5.384931e-002
4.801959e+002,5.327522e-002
4.821243e+002,5.261721e-002
4.840529e+002,5.206895e-002
4.859813e+002,5.158756e-002
4.879099e+002,5.109774e-002
4.898383e+002,5.097871e-002
4.917668e+002,5.075998e-002
4.936953e+002,5.054868e-002
4.956238e+002,5.028266e-002
4.975523e+002,4.971983e-002
4.994808e+002,4.990859e-002
5.014093e+002,5.040504e-002
5.033378e+002,4.999339e-002
5.052663e+002,4.979057e-002
5.071948e+002,4.934099e-002
5.091233e+002,4.997693e-002
5.110518e+002,4.989595e-002
5.129803e+002,5.013163e-002
5.149088e+002,5.051481e-002
5.168373e+002,5.069449e-002
5.187658e+002,5.056184e-002
5.206943e+002,5.085825e-002
5.226228e+002,5.074370e-002
5.245513e+002,5.099024e-002
5.264798e+002,5.072737e-002
5.284083e+002,5.029971e-002
5.303368e+002,5.004389e-002
5.322653e+002,4.998495e-002
5.341938e+002,4.966429e-002
5.361223e+002,4.961432e-002
5.380508e+002,4.952321e-002
5.399792e+002,4.949516e-002
5.419078e+002,4.897542e-002
5.438363e+002,4.876041e-002
5.457648e+002,4.896656e-002
5.476932e+002,4.917851e-002
5.496218e+002,4.940999e-002
5.515503e+002,4.976455e-002
5.534788e+002,4.949249e-002
5.554072e+002,4.970353e-002
5.573358e+002,4.993956e-002
5.592643e+002,5.014194e-002
5.611927e+002,5.014555e-002
5.631212e+002,4.964037e-002
5.650497e+002,4.900627e-002
5.669783e+002,4.860051e-002
5.689067e+002,4.822358e-002
5.708352e+002,4.817464e-002
5.727637e+002,4.806840e-002
5.746923e+002,4.801503e-002
5.766207e+002,4.791931e-002
5.785492e+002,4.787182e-002
5.804777e+002,4.750172e-002
5.824063e+002,4.709214e-002
5.843347e+002,4.665467e-002
5.862632e+002,4.633798e-002
5.881917e+002,4.613697e-002
5.901202e+002,4.610320e-002
5.920487e+002,4.614013e-002
5.939772e+002,4.630245e-002
5.959057e+002,4.633116e-002
5.978342e+002,4.613987e-002
5.997627e+002,4.586481e-002
6.016912e+002,4.568167e-002
6.036197e+002,4.557294e-002
6.055482e+002,4.532047e-002
6.074767e+002,4.520292e-002
6.094052e+002,4.509990e-002
6.113337e+002,4.451784e-002
6.132622e+002,4.411168e-002
6.151907e+002,4.363690e-002
6.171192e+002,4.328681e-002
6.190477e+002,4.292399e-002
6.209762e+002,4.247481e-002
6.229047e+002,4.190217e-002
6.248332e+002,4.128948e-002
6.267617e+002,4.084718e-002
6.286902e+002,4.044413e-002
6.306187e+002,4.001606e-002
6.325472e+002,3.965086e-002
6.344756e+002,3.954249e-002
6.364042e+002,3.935947e-002
6.383326e+002,3.907220e-002
6.402612e+002,3.893575e-002
6.421896e+002,3.874169e-002
6.441182e+002,3.862783e-002
6.460466e+002,3.847197e-002
6.479752e+002,3.804921e-002
6.499036e+002,3.775082e-002
6.518322e+002,3.764240e-002
6.537606e+002,3.759441e-002
6.556891e+002,3.765753e-002
6.576177e+002,3.766550e-002
6.595461e+002,3.751735e-002
6.614746e+002,3.737516e-002
6.634031e+002,3.735462e-002
6.653317e+002,3.715355e-002
6.672601e+002,3.681803e-002
6.691886e+002,3.655125e-002
6.711171e+002,3.617628e-002
6.730457e+002,3.542674e-002
6.749741e+002,3.460709e-002
6.769026e+002,3.393255e-002
6.788311e+002,3.341157e-002
6.807596e+002,3.282816e-002
6.826881e+002,3.236363e-002
6.846166e+002,3.209492e-002
6.865451e+002,3.194727e-002
6.884736e+002,3.159866e-002
6.904021e+002,3.151982e-002
6.923306e+002,3.141105e-002
6.942591e+002,3.132430e-002
6.961876e+002,3.106700e-002
6.981161e+002,3.092930e-002
7.000446e+002,3.092071e-002
7.019731e+002,3.089147e-002
7.039016e+002,3.074004e-002
7.058301e+002,3.058354e-002
7.077585e+002,3.037925e-002
7.096871e+002,3.016594e-002
7.116156e+002,2.988025e-002
7.135441e+002,2.979288e-002
7.154725e+002,2.969986e-002
7.174011e+002,2.957723e-002
7.193296e+002,2.937870e-002
7.212581e+002,2.925198e-002
7.231865e+002,2.917297e-002
7.251151e+002,2.889720e-002
7.270436e+002,2.855876e-002
7.289720e+002,2.842413e-002
7.309005e+002,2.828102e-002
7.328290e+002,2.810550e-002
7.347576e+002,2.775406e-002
7.366860e+002,2.755633e-002
7.386145e+002,2.744807e-002
7.405430e+002,2.743834e-002
7.424716e+002,2.729327e-002
7.444000e+002,2.698840e-002
7.463285e+002,2.673957e-002
7.482570e+002,2.660314e-002
7.501855e+002,2.634965e-002
7.521140e+002,2.623109e-002
7.540425e+002,2.614845e-002
7.559710e+002,2.610609e-002
7.578995e+002,2.588460e-002
7.598280e+002,2.591134e-002
7.617565e+002,2.581994e-002
7.636850e+002,2.569530e-002
7.656135e+002,2.573545e-002
7.675420e+002,2.566858e-002
7.694705e+002,2.551971e-002
7.713990e+002,2.544726e-002
7.733275e+002,2.533038e-002
7.752560e+002,2.537777e-002
7.771844e+002,2.534998e-002
7.791130e+002,2.548692e-002
7.810415e+002,2.556701e-002
7.829700e+002,2.558848e-002
7.848984e+002,2.542965e-002
7.868270e+002,2.526478e-002
7.887555e+002,2.517355e-002
7.906840e+002,2.508128e-002
7.926124e+002,2.497286e-002
7.945410e+002,2.506686e-002
7.964695e+002,2.503411e-002
7.983979e+002,2.507363e-002
8.003264e+002,2.517169e-002
8.022549e+002,2.518777e-002
8.041835e+002,2.519960e-002
8.061119e+002,2.517063e-002
8.080404e+002,2.504218e-002
8.099689e+002,2.504127e-002
8.118975e+002,2.505173e-002
8.138259e+002,2.505239e-002
8.157545e+002,2.506050e-002
8.176830e+002,2.497469e-002
8.196115e+002,2.494763e-002
8.215399e+002,2.488882e-002
8.234684e+002,2.492050e-002
8.253970e+002,2.500691e-002
8.273254e+002,2.506471e-002
8.292539e+002,2.511383e-002
8.311824e+002,2.518369e-002
8.331110e+002,2.530207e-002
8.350394e+002,2.529449e-002
8.369679e+002,2.533537e-002
8.388964e+002,2.537893e-002
8.408250e+002,2.531212e-002
8.427534e+002,2.512057e-002
8.446819e+002,2.500452e-002
8.466104e+002,2.490769e-002
8.485389e+002,2.478844e-002
8.504674e+002,2.462959e-002
8.523959e+002,2.454516e-002
8.543244e+002,2.450785e-002
8.562529e+002,2.459663e-002
8.581814e+002,2.466420e-002
8.601099e+002,2.476981e-002
8.620384e+002,2.484920e-002
8.639669e+002,2.490808e-002
8.658954e+002,2.502540e-002
8.678239e+002,2.520834e-002
8.697524e+002,2.528258e-002
8.716809e+002,2.550407e-002
8.736094e+002,2.562247e-002
8.755378e+002,2.579342e-002
8.774664e+002,2.607213e-002
8.793949e+002,2.632131e-002
8.813234e+002,2.660849e-002
8.832518e+002,2.702822e-002
8.851804e+002,2.753523e-002
8.871089e+002,2.825339e-002
8.890374e+002,2.910501e-002
8.909658e+002,2.985608e-002
8.928943e+002,3.041939e-002
8.948229e+002,3.083019e-002
8.967513e+002,3.096317e-002
8.986798e+002,3.080742e-002
9.006083e+002,3.047202e-002
9.025369e+002,2.996793e-002
9.044653e+002,2.941135e-002
9.063938e+002,2.901315e-002
9.083223e+002,2.877436e-002
9.102509e+002,2.871775e-002
9.121793e+002,2.874391e-002
9.141078e+002,2.882148e-002
9.160364e+002,2.891199e-002
9.179648e+002,2.909810e-002
9.198933e+002,2.930361e-002
9.218218e+002,2.964428e-002
9.237504e+002,3.000042e-002
9.256788e+002,3.029690e-002
9.276073e+002,3.069539e-002
9.295358e+002,3.111599e-002
9.314644e+002,3.154085e-002
9.333928e+002,3.199334e-002
9.353213e+002,3.235412e-002
9.372498e+002,3.290949e-002
9.391783e+002,3.362446e-002
9.411068e+002,3.436976e-002
9.430353e+002,3.514743e-002
9.449637e+002,3.600856e-002
9.468923e+002,3.683301e-002
9.488208e+002,3.776551e-002
9.507493e+002,3.870444e-002
9.526777e+002,3.968638e-002
9.546063e+002,4.072076e-002
9.565348e+002,4.180158e-002
9.584633e+002,4.287539e-002
9.603917e+002,4.386778e-002
9.623203e+002,4.488988e-002
9.642488e+002,4.584869e-002
9.661772e+002,4.676309e-002
9.681057e+002,4.757612e-002
9.700343e+002,4.847386e-002
9.719628e+002,4.926791e-002
9.738912e+002,5.014328e-002
9.758197e+002,5.117133e-002
9.777483e+002,5.219341e-002
9.796768e+002,5.321955e-002
9.816052e+002,5.432080e-002
9.835337e+002,5.534333e-002
9.854623e+002,5.634843e-002
9.873907e+002,5.699298e-002
9.893192e+002,5.735045e-002
9.912477e+002,5.751640e-002
9.931763e+002,5.762426e-002
9.951047e+002,5.771855e-002
9.970332e+002,5.786889e-002
9.989617e+002,5.822190e-002
1.000890e+003,5.886567e-002
1.002819e+003,5.951818e-002
1.004747e+003,6.012628e-002
1.006676e+003,6.071747e-002
1.008604e+003,6.131420e-002
1.010533e+003,6.200499e-002
1.012461e+003,6.274647e-002
1.014390e+003,6.359947e-002
1.016318e+003,6.456164e-002
1.018247e+003,6.554362e-002
1.020175e+003,6.643836e-002
1.022104e+003,6.733433e-002
1.024032e+003,6.827868e-002
1.025961e+003,6.911156e-002
1.027889e+003,6.983083e-002
1.029818e+003,7.047334e-002
1.031746e+003,7.091539e-002
1.033675e+003,7.101324e-002
1.035603e+003,7.082419e-002
1.037532e+003,7.036950e-002
1.039460e+003,6.963074e-002
1.041389e+003,6.874062e-002
1.043317e+003,6.787084e-002
1.045246e+003,6.713384e-002
1.047174e+003,6.641037e-002
1.049103e+003,6.567446e-002
1.051031e+003,6.493175e-002
1.052960e+003,6.407708e-002
1.054888e+003,6.309024e-002
1.056817e+003,6.202724e-002
1.058745e+003,6.096882e-002
1.060674e+003,5.999007e-002
1.062602e+003,5.893633e-002
1.064531e+003,5.773914e-002
1.066459e+003,5.667925e-002
1.068388e+003,5.583135e-002
1.070316e+003,5.509624e-002
1.072245e+003,5.441202e-002
1.074173e+003,5.374328e-002
1.076102e+003,5.303895e-002
1.078030e+003,5.226792e-002
1.079959e+003,5.141571e-002
1.081887e+003,5.050848e-002
1.083816e+003,4.969456e-002
1.085744e+003,4.907822e-002
1.087673e+003,4.847175e-002
1.089601e+003,4.790646e-002
1.091530e+003,4.742704e-002
1.093458e+003,4.693387e-002
1.095387e+003,4.637031e-002
1.097315e+003,4.594577e-002
1.099244e+003,4.559189e-002
1.101172e+003,4.532361e-002
1.103101e+003,4.513663e-002
1.105029e+003,4.479509e-002
1.106958e+003,4.419293e-002
1.108886e+003,4.342711e-002
1.110815e+003,4.250051e-002
1.112743e+003,4.147457e-002
1.114672e+003,4.041519e-002
1.116600e+003,3.937358e-002
1.118529e+003,3.840549e-002
1.120457e+003,3.764069e-002
1.122386e+003,3.685621e-002
1.124314e+003,3.598602e-002
1.126243e+003,3.507439e-002
1.128171e+003,3.410066e-002
1.130100e+003,3.313293e-002
1.132028e+003,3.218955e-002
1.133957e+003,3.127321e-002
1.135885e+003,3.052616e-002
1.137814e+003,2.992970e-002
1.139742e+003,2.960239e-002
1.141671e+003,2.947964e-002
1.143599e+003,2.956795e-002
1.145528e+003,2.979877e-002
1.147456e+003,3.008091e-002
1.149385e+003,3.047245e-002
1.151313e+003,3.090337e-002
1.153242e+003,3.133325e-002
1.155170e+003,3.169733e-002
1.157099e+003,3.202815e-002
1.159027e+003,3.226157e-002
1.160956e+003,3.227120e-002
1.162884e+003,3.201656e-002
1.164813e+003,3.149033e-002
1.166741e+003,3.068231e-002
1.168670e+003,2.965858e-002
1.170598e+003,2.854171e-002
1.172526e+003,2.739789e-002
1.174455e+003,2.630300e-002
1.176384e+003,2.531314e-002
1.178312e+003,2.437749e-002
1.180240e+003,2.351934e-002
1.182169e+003,2.284451e-002
1.184098e+003,2.234793e-002
1.186026e+003,2.195560e-002
1.187954e+003,2.167882e-002
1.189883e+003,2.152863e-002
1.191812e+003,2.150934e-002
1.193740e+003,2.158730e-002
1.195668e+003,2.182789e-002
1.197597e+003,2.215099e-002
1.199526e+003,2.249873e-002
1.201454e+003,2.270903e-002
1.203382e+003,2.281318e-002
1.205311e+003,2.285467e-002
1.207240e+003,2.288946e-002
1.209168e+003,2.291758e-002
1.211096e+003,2.303733e-002
1.213025e+003,2.322709e-002
1.214953e+003,2.350664e-002
1.216882e+003,2.382512e-002
1.218810e+003,2.418691e-002
1.220739e+003,2.459200e-002
1.222667e+003,2.499992e-002
1.224596e+003,2.542625e-002
1.226524e+003,2.584244e-002
1.228453e+003,2.624538e-002
1.230381e+003,2.659673e-002
1.232310e+003,2.686161e-002
1.234238e+003,2.705495e-002
1.236167e+003,2.717416e-002
1.238095e+003,2.716986e-002
1.240024e+003,2.710351e-002
1.241952e+003,2.696701e-002
1.243881e+003,2.674164e-002
1.245809e+003,2.650406e-002
1.247738e+003,2.621613e-002
1.249666e+003,2.585264e-002
1.251595e+003,2.545094e-002
1.253523e+003,2.504822e-002
1.255452e+003,2.463275e-002
1.257380e+003,2.424353e-002
1.259309e+003,2.375102e-002
1.261237e+003,2.329071e-002
1.263166e+003,2.283742e-002
1.265094e+003,2.234347e-002
1.267023e+003,2.185186e-002
1.268951e+003,2.136700e-002
1.270880e+003,2.089339e-002
1.272808e+003,2.046808e-002
1.274737e+003,2.011187e-002
1.276665e+003,1.981715e-002
1.278594e+003,1.953324e-002
1.280522e+003,1.931093e-002
1.282451e+003,1.910490e-002
1.284379e+003,1.892147e-002
1.286308e+003,1.877700e-002
1.288236e+003,1.865755e-002
1.290165e+003,1.858554e-002
1.292093e+003,1.857371e-002
1.294022e+003,1.861580e-002
1.295950e+003,1.873988e-002
1.297879e+003,1.893483e-002
1.299807e+003,1.913929e-002
1.301736e+003,1.936182e-002
1.303664e+003,1.958925e-002
1.305593e+003,1.980134e-002
1.307521e+003,2.009309e-002
1.309450e+003,2.040741e-002
1.311378e+003,2.069383e-002
1.313307e+003,2.085946e-002
1.315235e+003,2.099370e-002
1.317164e+003,2.107540e-002
1.319092e+003,2.106093e-002
1.321021e+003,2.097923e-002
1.322949e+003,2.087079e-002
1.324878e+003,2.074131e-002
1.326806e+003,2.063831e-002
1.328735e+003,2.056350e-002
1.330663e+003,2.051775e-002
1.332592e+003,2.048538e-002
1.334520e+003,2.042401e-002
1.336449e+003,2.028765e-002
1.338377e+003,2.011520e-002
1.340306e+003,1.997467e-002
1.342234e+003,1.989079e-002
1.344163e+003,1.987913e-002
1.346091e+003,1.987278e-002
1.348020e+003,1.993116e-002
1.349948e+003,2.009174e-002
1.351877e+003,2.026345e-002
1.353805e+003,2.043029e-002
1.355734e+003,2.064004e-002
1.357662e+003,2.087333e-002
1.359591e+003,2.111397e-002
1.361519e+003,2.129583e-002
1.363448e+003,2.144194e-002
1.365376e+003,2.154579e-002
1.367305e+003,2.156185e-002
1.369233e+003,2.148020e-002
1.371162e+003,2.136275e-002
1.373090e+003,2.119308e-002
1.375019e+003,2.092739e-002
1.376947e+003,2.062611e-002
1.378876e+003,2.026897e-002
1.380804e+003,1.982645e-002
1.382733e+003,1.935455e-002
1.384661e+003,1.898450e-002
1.386590e+003,1.860636e-002
1.388518e+003,1.827952e-002
1.390447e+003,1.806099e-002
1.392375e+003,1.794319e-002
1.394304e+003,1.784568e-002
1.396232e+003,1.774999e-002
1.398161e+003,1.770989e-002
1.400089e+003,1.768190e-002
1.402018e+003,1.770081e-002
1.403946e+003,1.773619e-002
1.405875e+003,1.780878e-002
1.407803e+003,1.794136e-002
1.409732e+003,1.808842e-002
1.411660e+003,1.826767e-002
1.413589e+003,1.846687e-002
1.415517e+003,1.862275e-002
1.417446e+003,1.882665e-002
1.419374e+003,1.900599e-002
1.421303e+003,1.909057e-002
1.423231e+003,1.914670e-002
1.425160e+003,1.910231e-002
1.427088e+003,1.895321e-002
1.429017e+003,1.875700e-002
1.430945e+003,1.857364e-002
1.432874e+003,1.842507e-002
1.434802e+003,1.827569e-002
1.436731e+003,1.807813e-002
1.438659e+003,1.786005e-002
1.440588e+003,1.776394e-002
1.442516e+003,1.772317e-002
1.444445e+003,1.765001e-002
1.446373e+003,1.768048e-002
1.448302e+003,1.773280e-002
1.450230e+003,1.776849e-002
1.452159e+003,1.775983e-002
1.454087e+003,1.774364e-002
1.456016e+003,1.774029e-002
1.457944e+003,1.758480e-002
1.459873e+003,1.741152e-002
1.461801e+003,1.727603e-002
1.463730e+003,1.707024e-002
1.465658e+003,1.670778e-002
1.467587e+003,1.625195e-002
1.469515e+003,1.574409e-002
1.471444e+003,1.525049e-002
1.473372e+003,1.479587e-002
1.475301e+003,1.439365e-002
1.477229e+003,1.413257e-002
1.479158e+003,1.393682e-002
1.481086e+003,1.379567e-002
1.483015e+003,1.379779e-002
1.484943e+003,1.396193e-002
1.486872e+003,1.412179e-002
1.488800e+003,1.432649e-002
1.490729e+003,1.460219e-002
1.492657e+003,1.486393e-002
1.494586e+003,1.514761e-002
1.496514e+003,1.537573e-002
1.498443e+003,1.557825e-002
1.500371e+003,1.575196e-002
1.502300e+003,1.586725e-002
1.504228e+003,1.604156e-002
1.506157e+003,1.618674e-002
1.508085e+003,1.622481e-002
1.510014e+003,1.628143e-002
1.511942e+003,1.634218e-002
1.513871e+003,1.632949e-002
1.515799e+003,1.622127e-002
1.517728e+003,1.595527e-002
1.519656e+003,1.564725e-002
1.521585e+003,1.536928e-002
1.523513e+003,1.516051e-002
1.525442e+003,1.503060e-002
1.527370e+003,1.492387e-002
1.529299e+003,1.485381e-002
1.531227e+003,1.482899e-002
1.533156e+003,1.484514e-002
1.535084e+003,1.479090e-002
1.537013e+003,1.474383e-002
1.538941e+003,1.477554e-002
1.540870e+003,1.475504e-002
1.542798e+003,1.475384e-002
1.544727e+003,1.473328e-002
1.546655e+003,1.467004e-002
1.548584e+003,1.463628e-002
1.550512e+003,1.457573e-002
1.552441e+003,1.454041e-002
1.554369e+003,1.454901e-002
1.556298e+003,1.448607e-002
1.558226e+003,1.446791e-002
1.560155e+003,1.446737e-002
1.562083e+003,1.447922e-002
1.564012e+003,1.450615e-002
1.565940e+003,1.452619e-002
1.567869e+003,1.463330e-002
1.569797e+003,1.471326e-002
1.571726e+003,1.479584e-002
1.573654e+003,1.496553e-002
1.575583e+003,1.516968e-002
1.577511e+003,1.540780e-002
1.579440e+003,1.562867e-002
1.581368e+003,1.587941e-002
1.583297e+003,1.614602e-002
1.585225e+003,1.642146e-002
1.587154e+003,1.668179e-002
1.589082e+003,1.694644e-002
1.591010e+003,1.720543e-002
1.592939e+003,1.742573e-002
1.594868e+003,1.758845e-002
1.596796e+003,1.770364e-002
1.598724e+003,1.783132e-002
1.600653e+003,1.794467e-002
1.602582e+003,1.802155e-002
1.604510e+003,1.813986e-002
1.606438e+003,1.816878e-002
1.608367e+003,1.821656e-002
1.610296e+003,1.836890e-002
1.612224e+003,1.851787e-002
1.614152e+003,1.868882e-002
1.616081e+003,1.893396e-002
1.618010e+003,1.913513e-002
1.619938e+003,1.934197e-002
1.621866e+003,1.952870e-002
1.623795e+003,1.970067e-002
1.625724e+003,1.983786e-002
1.627652e+003,1.987143e-002
1.629580e+003,1.980696e-002
1.631509e+003,1.972977e-002
1.633438e+003,1.966725e-002
1.635366e+003,1.962236e-002
1.637294e+003,1.950534e-002
1.639223e+003,1.939747e-002
1.641151e+003,1.940132e-002
1.643080e+003,1.942100e-002
1.645008e+003,1.942439e-002
1.646937e+003,1.939318e-002
1.648865e+003,1.936785e-002
1.650794e+003,1.936113e-002
1.652722e+003,1.934789e-002
1.654651e+003,1.920470e-002
1.656579e+003,1.893915e-002
1.658508e+003,1.855666e-002
1.660436e+003,1.819977e-002
1.662365e+003,1.786415e-002
1.664293e+003,1.748827e-002
1.666222e+003,1.705756e-002
1.668150e+003,1.673960e-002
1.670079e+003,1.643512e-002
1.672007e+003,1.609626e-002
1.673936e+003,1.581233e-002
1.675864e+003,1.550737e-002
1.677793e+003,1.521826e-002
1.679721e+003,1.497908e-002
1.681650e+003,1.474798e-002
1.683578e+003,1.459043e-002
1.685507e+003,1.440972e-002
1.687435e+003,1.424003e-002
1.689364e+003,1.410272e-002
1.691292e+003,1.399423e-002
1.693221e+003,1.391544e-002
1.695149e+003,1.385919e-002
1.697078e+003,1.377088e-002
1.699006e+003,1.364691e-002
1.700935e+003,1.358226e-002
1.702863e+003,1.353324e-002
1.704792e+003,1.349649e-002
1.706720e+003,1.352271e-002
1.708649e+003,1.366709e-002
1.710577e+003,1.375720e-002
1.712506e+003,1.389850e-002
1.714434e+003,1.407740e-002
1.716363e+003,1.425749e-002
1.718291e+003,1.444370e-002
1.720220e+003,1.454438e-002
1.722148e+003,1.469153e-002
1.724077e+003,1.481997e-002
1.726005e+003,1.487576e-002
1.727934e+003,1.493522e-002
1.729862e+003,1.495459e-002
1.731791e+003,1.483485e-002
1.733719e+003,1.465942e-002
1.735648e+003,1.446689e-002
1.737576e+003,1.419138e-002
1.739505e+003,1.384469e-002
1.741433e+003,1.340145e-002
1.743362e+003,1.292743e-002
1.745290e+003,1.251466e-002
1.747219e+003,1.210306e-002
1.749147e+003,1.175453e-002
1.751076e+003,1.145029e-002
1.753004e+003,1.116255e-002
1.754933e+003,1.087687e-002
1.756861e+003,1.061867e-002
1.758790e+003,1.035252e-002
1.760718e+003,1.012960e-002
1.762647e+003,9.987072e-003
1.764575e+003,9.746584e-003
1.766504e+003,9.621325e-003
1.768432e+003,9.562351e-003
1.770361e+003,9.444662e-003
1.772289e+003,9.350060e-003
1.774218e+003,9.303919e-003
1.776146e+003,9.230501e-003
1.778075e+003,9.172798e-003
1.780003e+003,9.267632e-003
1.781932e+003,9.261200e-003
1.783860e+003,9.247627e-003
1.785789e+003,9.274164e-003
1.787717e+003,9.207554e-003
1.789646e+003,9.158990e-003
1.791574e+003,9.172561e-003
1.793503e+003,9.234732e-003
1.795431e+003,9.293764e-003
1.797360e+003,9.237541e-003
1.799288e+003,9.170361e-003
1.801217e+003,9.151816e-003
1.803145e+003,9.100147e-003
1.805074e+003,9.079237e-003
1.807002e+003,9.143797e-003
1.808931e+003,9.117944e-003
1.810859e+003,9.132562e-003
1.812788e+003,9.082790e-003
1.814716e+003,8.985831e-003
1.816645e+003,8.984545e-003
1.818573e+003,9.060155e-003
1.820502e+003,9.003388e-003
1.822430e+003,8.864207e-003
1.824359e+003,8.960361e-003
1.826287e+003,9.015634e-003
1.828216e+003,8.923222e-003
1.830144e+003,8.791370e-003
1.832073e+003,8.789815e-003
1.834001e+003,8.819165e-003
1.835930e+003,8.845506e-003
1.837858e+003,8.901475e-003
1.839787e+003,8.837492e-003
1.841715e+003,8.810204e-003
1.843644e+003,8.811320e-003
1.845572e+003,8.756411e-003
1.847501e+003,8.785149e-003
1.849429e+003,8.822005e-003
1.851358e+003,8.695627e-003
1.853286e+003,8.597369e-003
1.855215e+003,8.708439e-003
1.857143e+003,8.674398e-003
1.859072e+003,8.610043e-003
1.861000e+003,8.557593e-003
1.862929e+003,8.527855e-003
1.864857e+003,8.584797e-003
1.866786e+003,8.650500e-003
1.868714e+003,8.691571e-003
1.870643e+003,8.663480e-003
1.872571e+003,8.635798e-003
1.874500e+003,8.570435e-003
1.876428e+003,8.710028e-003
1.878357e+003,8.730345e-003
1.880285e+003,8.503797e-003
1.882214e+003,8.236370e-003
1.884142e+003,8.272504e-003
1.886071e+003,8.468353e-003
1.887999e+003,8.536270e-003
1.889928e+003,8.455110e-003
1.891856e+003,8.300028e-003
1.893785e+003,8.267438e-003
1.895713e+003,8.163773e-003
1.897642e+003,8.196187e-003
1.899570e+003,8.165495e-003
1.901499e+003,7.967285e-003
1.903427e+003,7.954698e-003
1.905356e+003,8.062598e-003
1.907284e+003,8.227726e-003
1.909213e+003,8.184505e-003
1.911141e+003,8.058683e-003
1.913070e+003,7.945451e-003
1.914998e+003,7.962797e-003
1.916927e+003,7.823139e-003
1.918855e+003,7.774866e-003
1.920784e+003,7.642654e-003
1.922712e+003,7.641339e-003
1.924641e+003,7.552254e-003
1.926569e+003,7.240264e-003
1.928498e+003,6.918566e-003
1.930426e+003,6.838717e-003
1.932355e+003,6.639194e-003
1.934283e+003,6.609554e-003
1.936212e+003,6.621396e-003
1.938140e+003,6.683270e-003
1.940069e+003,6.440434e-003
1.941997e+003,5.867235e-003
1.943926e+003,5.672286e-003
1.945854e+003,5.506350e-003
1.947783e+003,5.099362e-003
1.949711e+003,4.469542e-003
1.951640e+003,4.119148e-003
1.953568e+003,3.705336e-003
1.955497e+003,3.661895e-003
1.957425e+003,3.314623e-003
1.959354e+003,2.862185e-003
1.961282e+003,2.237664e-003
1.963211e+003,1.538385e-003
1.965139e+003,1.487446e-003
1.967068e+003,6.366731e-004
1.968996e+003,-8.415955e-006
1.970925e+003,1.169648e-005
1.972853e+003,-2.343270e-004
1.974782e+003,-8.870196e-004
1.976710e+003,-1.666753e-003
1.978639e+003,-1.292919e-003
1.980567e+003,-2.355191e-004
1.982496e+003,1.117856e-003
1.984424e+003,1.167056e-003
1.986353e+003,1.551353e-003
1.988281e+003,2.264542e-003
1.990210e+003,2.297051e-003
1.992138e+003,1.666988e-003
1.994067e+003,1.596280e-003
1.995995e+003,2.056155e-003
1.997924e+003,1.775234e-003
1.999852e+003,1.372890e-003
2.001781e+003,1.327056e-003
2.003709e+003,7.516331e-004
2.005638e+003,-2.208816e-004
2.007566e+003,-6.157570e-004
2.009495e+003,-5.561631e-004
2.011423e+003,-4.399959e-004
2.013352e+003,-3.902099e-004
2.015280e+003,-2.542624e-004
2.017208e+003,-1.253010e-003
2.019137e+003,-2.076145e-003
2.021066e+003,-2.773720e-003
2.022994e+003,-2.312025e-003
2.024922e+003,-2.005241e-003
2.026851e+003,-2.544779e-003
2.028780e+003,-2.559437e-003
2.030708e+003,-1.390230e-003
2.032636e+003,-1.453607e-003
2.034565e+003,-1.866961e-003
2.036494e+003,-2.010287e-003
2.038422e+003,-8.894003e-004
2.040350e+003,1.083950e-004
2.042279e+003,1.535891e-003
2.044208e+003,2.498088e-003
2.046136e+003,2.487691e-003
2.048064e+003,2.381033e-003
2.049993e+003,2.822030e-003
2.051921e+003,3.757973e-003
2.053850e+003,4.057704e-003
2.055778e+003,4.450393e-003
2.057707e+003,4.896916e-003
2.059635e+003,4.902378e-003
2.061564e+003,5.073079e-003
2.063492e+003,5.168463e-003
2.065421e+003,5.159813e-003
2.067349e+003,5.693066e-003
2.069278e+003,5.555681e-003
2.071206e+003,5.332359e-003
2.073135e+003,5.307538e-003
2.075063e+003,5.623042e-003
2.076992e+003,6.065766e-003
2.078920e+003,6.075611e-003
2.080849e+003,6.039257e-003
2.082777e+003,6.450187e-003
2.084706e+003,6.677012e-003
2.086634e+003,6.606392e-003
2.088563e+003,6.538339e-003
2.090491e+003,6.664327e-003
2.092420e+003,6.664563e-003
2.094348e+003,6.741889e-003
2.096277e+003,6.928363e-003
2.098205e+003,6.583987e-003
2.100134e+003,6.490074e-003
2.102062e+003,6.621127e-003
2.103991e+003,6.458998e-003
2.105919e+003,6.435256e-003
2.107848e+003,6.732702e-003
2.109776e+003,6.501677e-003
2.111705e+003,6.541737e-003
2.113633e+003,6.854976e-003
2.115562e+003,6.819330e-003
2.117490e+003,6.871739e-003
2.119419e+003,6.809704e-003
2.121347e+003,6.323656e-003
2.123276e+003,5.954900e-003
2.125204e+003,5.989132e-003
2.127133e+003,5.880300e-003
2.129061e+003,5.575482e-003
2.130990e+003,5.157264e-003
2.132918e+003,4.568711e-003
2.134847e+003,3.874197e-003
2.136775e+003,3.535473e-003
2.138704e+003,3.523781e-003
2.140632e+003,2.376769e-003
2.142561e+003,1.211046e-003
2.144489e+003,4.854861e-004
2.146418e+003,3.103449e-004
2.148346e+003,-3.645202e-004
2.150275e+003,-1.573913e-004
2.152203e+003,-6.434500e-004
2.154132e+003,-3.884277e-003
2.156060e+003,-6.272320e-003
2.157989e+003,-8.741813e-003
2.159917e+003,-9.260239e-003
2.161846e+003,-6.763657e-003
2.163774e+003,-4.489373e-003
2.165703e+003,-3.670179e-003
2.167631e+003,-2.466472e-003
2.169560e+003,-9.030565e-004
2.171488e+003,-5.076811e-004
2.173417e+003,-1.376170e-004
2.175345e+003,-8.837460e-004
2.177274e+003,-1.374178e-003
2.179202e+003,-1.380421e-003
2.181131e+003,-1.383790e-003
2.183059e+003,-5.342228e-004
2.184988e+003,5.358760e-004
2.186916e+003,5.068489e-004
2.188845e+003,7.402485e-004
2.190773e+003,1.140346e-003
2.192702e+003,1.125496e-003
2.194630e+003,1.441434e-003
2.196559e+003,1.564721e-003
2.198487e+003,2.438740e-003
2.200416e+003,2.598342e-003
2.202344e+003,2.629043e-003
2.204273e+003,2.531448e-003
2.206201e+003,2.454801e-003
2.208130e+003,2.656445e-003
2.210058e+003,3.001190e-003
2.211987e+003,3.628282e-003
2.213915e+003,4.096235e-003
2.215844e+003,3.736517e-003
2.217772e+003,3.791931e-003
2.219701e+003,4.180265e-003
2.221629e+003,4.216230e-003
2.223558e+003,4.443899e-003
2.225486e+003,4.488155e-003
2.227415e+003,4.768023e-003
2.229343e+003,5.216180e-003
2.231272e+003,5.163714e-003
2.233200e+003,5.309789e-003
2.235129e+003,5.565039e-003
2.237057e+003,5.663839e-003
2.238986e+003,5.538634e-003
2.240914e+003,5.602825e-003
2.242843e+003,5.934675e-003
2.244771e+003,6.380729e-003
2.246700e+003,6.475942e-003
2.248628e+003,6.429023e-003
2.250557e+003,6.700706e-003
2.252485e+003,6.963041e-003
2.254414e+003,6.873074e-003
2.256342e+003,6.931365e-003
2.258271e+003,7.097356e-003
2.260199e+003,7.155464e-003
2.262128e+003,7.539890e-003
2.264056e+003,7.717281e-003
2.265985e+003,7.495408e-003
2.267913e+003,7.629062e-003
2.269842e+003,7.877599e-003
2.271770e+003,8.043959e-003
2.273699e+003,8.215234e-003
2.275627e+003,8.418754e-003
2.277556e+003,8.373197e-003
2.279484e+003,8.368379e-003
2.281413e+003,8.714455e-003
2.283341e+003,8.773819e-003
2.285270e+003,8.629110e-003
2.287198e+003,8.857288e-003
2.289127e+003,9.021039e-003
2.291055e+003,9.141430e-003
2.292984e+003,9.039557e-003
2.294912e+003,9.124895e-003
2.296841e+003,9.407828e-003
2.298769e+003,9.432158e-003
2.300698e+003,9.378511e-003
2.302626e+003,9.315110e-003
2.304555e+003,9.298634e-003
2.306483e+003,9.251791e-003
2.308412e+003,9.390019e-003
2.310340e+003,9.402798e-003
2.312269e+003,9.436347e-003
2.314197e+003,9.388795e-003
2.316125e+003,9.279566e-003
2.318054e+003,9.301146e-003
2.319983e+003,9.463722e-003
2.321911e+003,9.448934e-003
2.323840e+003,9.611808e-003
2.325768e+003,9.677866e-003
2.327697e+003,9.648105e-003
2.329625e+003,9.667601e-003
2.331553e+003,9.639128e-003
2.333482e+003,9.469811e-003
2.335411e+003,9.339189e-003
2.337339e+003,8.711552e-003
2.339268e+003,8.807527e-003
2.341196e+003,8.964987e-003
2.343125e+003,9.085521e-003
2.345053e+003,8.960512e-003
2.346981e+003,9.103680e-003
2.348910e+003,9.215596e-003
2.350839e+003,9.258234e-003
2.352767e+003,9.230484e-003
2.354696e+003,9.650982e-003
2.356624e+003,9.528845e-003
2.358552e+003,9.715709e-003
2.360481e+003,9.808573e-003
2.362409e+003,9.734613e-003
2.364338e+003,9.994316e-003
2.366267e+003,1.010049e-002
2.368195e+003,9.988723e-003
2.370124e+003,1.028767e-002
2.372052e+003,1.035745e-002
2.373980e+003,1.031517e-002
2.375909e+003,1.036194e-002
2.377838e+003,1.037802e-002
2.379766e+003,1.037774e-002
2.381695e+003,1.031641e-002
2.383623e+003,1.034205e-002
2.385552e+003,1.030174e-002
2.387480e+003,1.026134e-002
2.389408e+003,1.031059e-002
2.391337e+003,1.035607e-002
2.393266e+003,1.035447e-002
2.395194e+003,1.030429e-002
2.397123e+003,1.025930e-002
2.399051e+003,1.016805e-002
2.400979e+003,1.009687e-002
2.402908e+003,1.003088e-002
2.404836e+003,9.968831e-003
2.406765e+003,1.010898e-002
2.408694e+003,1.007520e-002
2.410622e+003,1.004000e-002
2.412551e+003,1.002979e-002
2.414479e+003,1.004081e-002
2.416407e+003,1.009887e-002
2.418336e+003,1.004800e-002
2.420264e+003,9.916861e-003
2.422193e+003,9.899165e-003
2.424122e+003,9.980732e-003
2.426050e+003,1.002020e-002
2.427979e+003,1.006611e-002
2.429907e+003,1.011522e-002
2.431835e+003,1.006638e-002
2.433764e+003,1.007903e-002
2.435692e+003,1.011359e-002
2.437621e+003,1.003902e-002
2.439550e+003,1.013401e-002
2.441478e+003,1.022169e-002
2.443406e+003,1.024194e-002
2.445335e+003,1.014974e-002
2.447263e+003,9.991921e-003
2.449192e+003,9.996532e-003
2.451121e+003,1.011576e-002
2.453049e+003,1.008693e-002
2.454978e+003,9.968188e-003
2.456906e+003,9.929404e-003
2.458834e+003,9.813311e-003
2.460763e+003,9.793824e-003
2.462691e+003,9.839916e-003
2.464620e+003,9.860524e-003
2.466549e+003,9.852084e-003
2.468477e+003,9.808159e-003
2.470406e+003,9.795247e-003
2.472334e+003,9.736215e-003
2.474262e+003,9.785927e-003
2.476191e+003,9.855202e-003
2.478119e+003,9.895064e-003
2.480048e+003,9.805922e-003
2.481977e+003,9.720730e-003
2.483905e+003,9.708024e-003
2.485833e+003,9.927878e-003
2.487762e+003,9.975647e-003
2.489690e+003,9.957610e-003
2.491619e+003,9.914895e-003
2.493547e+003,9.894013e-003
2.495476e+003,9.857744e-003
2.497405e+003,9.797992e-003
2.499333e+003,9.879472e-003
2.501261e+003,9.913233e-003
2.503190e+003,9.921844e-003
2.505118e+003,1.004136e-002
2.507047e+003,9.976053e-003
2.508975e+003,1.008405e-002
2.510904e+003,1.026328e-002
2.512833e+003,1.027570e-002
2.514761e+003,1.014903e-002
2.516689e+003,1.014293e-002
2.518618e+003,1.017779e-002
2.520546e+003,1.015812e-002
2.522475e+003,1.007361e-002
2.524403e+003,1.006289e-002
2.526332e+003,9.979409e-003
2.528260e+003,9.932455e-003
2.530189e+003,9.997244e-003
2.532117e+003,1.010060e-002
2.534046e+003,1.014384e-002
2.535974e+003,1.021660e-002
2.537903e+003,1.022942e-002
2.539831e+003,1.017183e-002
2.541760e+003,1.018190e-002
2.543688e+003,1.023488e-002
2.545617e+003,1.032659e-002
2.547545e+003,1.036650e-002
2.549474e+003,1.026671e-002
2.551402e+003,1.016938e-002
2.553331e+003,1.022603e-002
2.555259e+003,1.026040e-002
2.557188e+003,1.018183e-002
2.559116e+003,1.018936e-002
2.561045e+003,1.029751e-002
2.562973e+003,1.031417e-002
2.564902e+003,1.024371e-002
2.566830e+003,1.027790e-002
2.568759e+003,1.029517e-002
2.570687e+003,1.031696e-002
2.572616e+003,1.034383e-002
2.574544e+003,1.036582e-002
2.576473e+003,1.038547e-002
2.578401e+003,1.050555e-002
2.580330e+003,1.040559e-002
2.582258e+003,1.040871e-002
2.584187e+003,1.051977e-002
2.586115e+003,1.058631e-002
2.588044e+003,1.061962e-002
2.589972e+003,1.060203e-002
2.591901e+003,1.048756e-002
2.593829e+003,1.056058e-002
2.595758e+003,1.068047e-002
2.597686e+003,1.069110e-002
2.599615e+003,1.069191e-002
2.601543e+003,1.069718e-002
2.603472e+003,1.078110e-002
2.605400e+003,1.082129e-002
2.607329e+003,1.085906e-002
2.609257e+003,1.084979e-002
2.611186e+003,1.088410e-002
2.613114e+003,1.101003e-002
2.615043e+003,1.104065e-002
2.616971e+003,1.106897e-002
2.618900e+003,1.114365e-002
2.620828e+003,1.118101e-002
2.622757e+003,1.118397e-002
2.624685e+003,1.118995e-002
2.626614e+003,1.120991e-002
2.628542e+003,1.124510e-002
2.630471e+003,1.135800e-002
2.632399e+003,1.140423e-002
2.634328e+003,1.142804e-002
2.636256e+003,1.146237e-002
2.638185e+003,1.148155e-002
2.640113e+003,1.154120e-002
2.642042e+003,1.159428e-002
2.643970e+003,1.163390e-002
2.645899e+003,1.163631e-002
2.647827e+003,1.167304e-002
2.649756e+003,1.169142e-002
2.651684e+003,1.169557e-002
2.653613e+003,1.170190e-002
2.655541e+003,1.174431e-002
2.657470e+003,1.178404e-002
2.659398e+003,1.180018e-002
2.661327e+003,1.181125e-002
2.663255e+003,1.182207e-002
2.665184e+003,1.186171e-002
2.667112e+003,1.190135e-002
2.669041e+003,1.189433e-002
2.670969e+003,1.186620e-002
2.672898e+003,1.188415e-002
2.674826e+003,1.189818e-002
2.676755e+003,1.190628e-002
2.678683e+003,1.187172e-002
2.680612e+003,1.190002e-002
2.682540e+003,1.190918e-002
2.684469e+003,1.186341e-002
2.686397e+003,1.189498e-002
2.688326e+003,1.191841e-002
2.690254e+003,1.190673e-002
2.692183e+003,1.189781e-002
2.694111e+003,1.191916e-002
2.696040e+003,1.193193e-002
2.697968e+003,1.190141e-002
2.699897e+003,1.196306e-002
2.701825e+003,1.199099e-002
2.703754e+003,1.195805e-002
2.705682e+003,1.189287e-002
2.707611e+003,1.193734e-002
2.709539e+003,1.201585e-002
2.711468e+003,1.198683e-002
2.713396e+003,1.197082e-002
2.715325e+003,1.197477e-002
2.717253e+003,1.198826e-002
2.719182e+003,1.197219e-002
2.721110e+003,1.192692e-002
2.723039e+003,1.194392e-002
2.724967e+003,1.194882e-002
2.726896e+003,1.194334e-002
2.728824e+003,1.195182e-002
2.730753e+003,1.195682e-002
2.732681e+003,1.195945e-002
2.734610e+003,1.199678e-002
2.736538e+003,1.200083e-002
2.738467e+003,1.197089e-002
2.740395e+003,1.197103e-002
2.742324e+003,1.198629e-002
2.744252e+003,1.202563e-002
2.746181e+003,1.201470e-002
2.748109e+003,1.196282e-002
2.750038e+003,1.197079e-002
2.751966e+003,1.198908e-002
2.753895e+003,1.202498e-002
2.755823e+003,1.207298e-002
2.757752e+003,1.213257e-002
2.759680e+003,1.208889e-002
2.761609e+003,1.204941e-002
2.763537e+003,1.206201e-002
2.765466e+003,1.201916e-002
2.767394e+003,1.207925e-002
2.769323e+003,1.213581e-002
2.771251e+003,1.215526e-002
2.773180e+003,1.221609e-002
2.775108e+003,1.223238e-002
2.777037e+003,1.218365e-002
2.778965e+003,1.222839e-002
2.780894e+003,1.229138e-002
2.782822e+003,1.231435e-002
2.784750e+003,1.236549e-002
2.786679e+003,1.237858e-002
2.788608e+003,1.239116e-002
2.790536e+003,1.241223e-002
2.792465e+003,1.240609e-002
2.794393e+003,1.242293e-002
2.796322e+003,1.243251e-002
2.798250e+003,1.239109e-002
2.800178e+003,1.247463e-002
2.802107e+003,1.253908e-002
2.804036e+003,1.259726e-002
2.805964e+003,1.262435e-002
2.807893e+003,1.260682e-002
2.809821e+003,1.260282e-002
2.811750e+003,1.265004e-002
2.813678e+003,1.267275e-002
2.815606e+003,1.268221e-002
2.817535e+003,1.275713e-002
2.819464e+003,1.282476e-002
2.821392e+003,1.286432e-002
2.823321e+003,1.293794e-002
2.825249e+003,1.296457e-002
2.827177e+003,1.297116e-002
2.829106e+003,1.305054e-002
2.831034e+003,1.307946e-002
2.832963e+003,1.311245e-002
2.834892e+003,1.324664e-002
2.836820e+003,1.334141e-002
2.838749e+003,1.338542e-002
2.840677e+003,1.346864e-002
2.842605e+003,1.361006e-002
2.844534e+003,1.376144e-002
2.846462e+003,1.390527e-002
2.848391e+003,1.402298e-002
2.850320e+003,1.417375e-002
2.852248e+003,1.425465e-002
2.854177e+003,1.427499e-002
2.856105e+003,1.426109e-002
2.858033e+003,1.431899e-002
2.859962e+003,1.434694e-002
2.861890e+003,1.436338e-002
2.863819e+003,1.443832e-002
2.865748e+003,1.446558e-002
2.867676e+003,1.444674e-002
2.869604e+003,1.451091e-002
2.871533e+003,1.454205e-002
2.873461e+003,1.456583e-002
2.875390e+003,1.458608e-002
2.877319e+003,1.458498e-002
2.879247e+003,1.450652e-002
2.881176e+003,1.454651e-002
2.883104e+003,1.459252e-002
2.885032e+003,1.459849e-002
2.886961e+003,1.464488e-002
2.888889e+003,1.469753e-002
2.890818e+003,1.467319e-002
2.892747e+003,1.469958e-002
2.894675e+003,1.472015e-002
2.896604e+003,1.476115e-002
2.898532e+003,1.476996e-002
2.900460e+003,1.474102e-002
2.902389e+003,1.470702e-002
2.904317e+003,1.475144e-002
2.906246e+003,1.477901e-002
2.908175e+003,1.480732e-002
2.910103e+003,1.484130e-002
2.912031e+003,1.482830e-002
2.913960e+003,1.482971e-002
2.915888e+003,1.488457e-002
2.917817e+003,1.490003e-002
2.919745e+003,1.485083e-002
2.921674e+003,1.483756e-002
2.923603e+003,1.479837e-002
2.925531e+003,1.473612e-002
2.927459e+003,1.466301e-002
2.929388e+003,1.464530e-002
2.931316e+003,1.459496e-002
2.933245e+003,1.452780e-002
2.935173e+003,1.443417e-002
2.937102e+003,1.432218e-002
2.939031e+003,1.418201e-002
2.940959e+003,1.406363e-002
2.942887e+003,1.395043e-002
2.944816e+003,1.383731e-002
2.946744e+003,1.373996e-002
2.948673e+003,1.365640e-002
2.950601e+003,1.356291e-002
2.952530e+003,1.351114e-002
2.954458e+003,1.338553e-002
2.956387e+003,1.332286e-002
2.958315e+003,1.325199e-002
2.960244e+003,1.315163e-002
2.962172e+003,1.309899e-002
2.964101e+003,1.302767e-002
2.966029e+003,1.296109e-002
2.967958e+003,1.290086e-002
2.969886e+003,1.288225e-002
2.971815e+003,1.281988e-002
2.973743e+003,1.274545e-002
2.975672e+003,1.265842e-002
2.977600e+003,1.263347e-002
2.979529e+003,1.259943e-002
2.981457e+003,1.248585e-002
2.983386e+003,1.244745e-002
2.985314e+003,1.244004e-002
2.987243e+003,1.237123e-002
2.989171e+003,1.232365e-002
2.991100e+003,1.236626e-002
2.993028e+003,1.236639e-002
2.994957e+003,1.231099e-002
2.996885e+003,1.228447e-002
2.998814e+003,1.232431e-002
3.000742e+003,1.232878e-002
3.002671e+003,1.233602e-002
3.004599e+003,1.233728e-002
3.006528e+003,1.228887e-002
3.008456e+003,1.225981e-002
3.010385e+003,1.229327e-002
3.012313e+003,1.236762e-002
3.014242e+003,1.240978e-002
3.016170e+003,1.238948e-002
3.018099e+003,1.236584e-002
3.020027e+003,1.235772e-002
3.021956e+003,1.239681e-002
3.023884e+003,1.244435e-002
3.025813e+003,1.244299e-002
3.027741e+003,1.244499e-002
3.029670e+003,1.247144e-002
3.031598e+003,1.250957e-002
3.033527e+003,1.259356e-002
3.035455e+003,1.260302e-002
3.037384e+003,1.253667e-002
3.039312e+003,1.255923e-002
3.041241e+003,1.264994e-002
3.043169e+003,1.273976e-002
3.045098e+003,1.278360e-002
3.047026e+003,1.274212e-002
3.048955e+003,1.273699e-002
3.050883e+003,1.283334e-002
3.052812e+003,1.294078e-002
3.054740e+003,1.297901e-002
3.056669e+003,1.291757e-002
3.058597e+003,1.289585e-002
3.060526e+003,1.304179e-002
3.062454e+003,1.310555e-002
3.064383e+003,1.310683e-002
3.066311e+003,1.314975e-002
3.068240e+003,1.316820e-002
3.070168e+003,1.314244e-002
3.072097e+003,1.313309e-002
3.074025e+003,1.321853e-002
3.075954e+003,1.320178e-002
3.077882e+003,1.324834e-002
3.079811e+003,1.330303e-002
3.081739e+003,1.336844e-002
3.083668e+003,1.335670e-002
3.085596e+003,1.339971e-002
3.087525e+003,1.347808e-002
3.089453e+003,1.345624e-002
3.091382e+003,1.352703e-002
3.093310e+003,1.355311e-002
3.095239e+003,1.351238e-002
3.097167e+003,1.354441e-002
3.099096e+003,1.354619e-002
3.101024e+003,1.354596e-002
3.102953e+003,1.353226e-002
3.104881e+003,1.356112e-002
3.106810e+003,1.367027e-002
3.108738e+003,1.371912e-002
3.110667e+003,1.381308e-002
3.112595e+003,1.385395e-002
3.114524e+003,1.385094e-002
3.116452e+003,1.393201e-002
3.118381e+003,1.394218e-002
3.120309e+003,1.393443e-002
3.122238e+003,1.399990e-002
3.124166e+003,1.399888e-002
3.126095e+003,1.403748e-002
3.128023e+003,1.413895e-002
3.129952e+003,1.416668e-002
3.131880e+003,1.414553e-002
3.133809e+003,1.422962e-002
3.135737e+003,1.436405e-002
3.137666e+003,1.445733e-002
3.139594e+003,1.447493e-002
3.141523e+003,1.448753e-002
3.143451e+003,1.456357e-002
3.145380e+003,1.458049e-002
3.147308e+003,1.453904e-002
3.149237e+003,1.458813e-002
3.151165e+003,1.464189e-002
3.153094e+003,1.470608e-002
3.155022e+003,1.475581e-002
3.156951e+003,1.479233e-002
3.158879e+003,1.484789e-002
3.160808e+003,1.487105e-002
3.162736e+003,1.497876e-002
3.164665e+003,1.502691e-002
3.166593e+003,1.505792e-002
3.168522e+003,1.517930e-002
3.170450e+003,1.518431e-002
3.172379e+003,1.516416e-002
3.174307e+003,1.519463e-002
3.176236e+003,1.524328e-002
3.178164e+003,1.536302e-002
3.180093e+003,1.542972e-002
3.182021e+003,1.544937e-002
3.183950e+003,1.549719e-002
3.185878e+003,1.562254e-002
3.187807e+003,1.566226e-002
3.189735e+003,1.580252e-002
3.191664e+003,1.586848e-002
3.193592e+003,1.588420e-002
3.195521e+003,1.597865e-002
3.197449e+003,1.600506e-002
3.199378e+003,1.602968e-002
3.201306e+003,1.609799e-002
3.203235e+003,1.608869e-002
3.205163e+003,1.611341e-002
3.207092e+003,1.624943e-002
3.209020e+003,1.635238e-002
3.210948e+003,1.643415e-002
3.212877e+003,1.643057e-002
3.214806e+003,1.651877e-002
3.216734e+003,1.653540e-002
3.218663e+003,1.652970e-002
3.220591e+003,1.661255e-002
3.222520e+003,1.670169e-002
3.224448e+003,1.674711e-002
3.226376e+003,1.682606e-002
3.228305e+003,1.689957e-002
3.230234e+003,1.696909e-002
3.232162e+003,1.702477e-002
3.234091e+003,1.710594e-002
3.236019e+003,1.708702e-002
3.237948e+003,1.713297e-002
3.239876e+003,1.726679e-002
3.241804e+003,1.723379e-002
3.243733e+003,1.721289e-002
3.245662e+003,1.729980e-002
3.247590e+003,1.745047e-002
3.249519e+003,1.759538e-002
3.251447e+003,1.759274e-002
3.253375e+003,1.773945e-002
3.255304e+003,1.789940e-002
3.257232e+003,1.793775e-002
3.259161e+003,1.793695e-002
3.261090e+003,1.792817e-002
3.263018e+003,1.800050e-002
3.264947e+003,1.805750e-002
3.266875e+003,1.807339e-002
3.268803e+003,1.819287e-002
3.270732e+003,1.824262e-002
3.272660e+003,1.834159e-002
3.274589e+003,1.840418e-002
3.276518e+003,1.846449e-002
3.278446e+003,1.839706e-002
3.280375e+003,1.837289e-002
3.282303e+003,1.835734e-002
3.284231e+003,1.835849e-002
3.286160e+003,1.847829e-002
3.288088e+003,1.861158e-002
3.290017e+003,1.858005e-002
3.291946e+003,1.846501e-002
3.293874e+003,1.854319e-002
3.295802e+003,1.852407e-002
3.297731e+003,1.853113e-002
3.299659e+003,1.848825e-002
3.301588e+003,1.848405e-002
3.303516e+003,1.849483e-002
3.305445e+003,1.841903e-002
3.307374e+003,1.839131e-002
3.309302e+003,1.846534e-002
3.311230e+003,1.848716e-002
3.313159e+003,1.843535e-002
3.315087e+003,1.851200e-002
3.317016e+003,1.858578e-002
3.318944e+003,1.851259e-002
3.320873e+003,1.847342e-002
3.322802e+003,1.854618e-002
3.324730e+003,1.853700e-002
3.326658e+003,1.853332e-002
3.328587e+003,1.855458e-002
3.330515e+003,1.854164e-002
3.332444e+003,1.853227e-002
3.334372e+003,1.856100e-002
3.336301e+003,1.847737e-002
3.338229e+003,1.839741e-002
3.340158e+003,1.836589e-002
3.342086e+003,1.841141e-002
3.344015e+003,1.837846e-002
3.345943e+003,1.832032e-002
3.347872e+003,1.825091e-002
3.349800e+003,1.824578e-002
3.351729e+003,1.826236e-002
3.353657e+003,1.821217e-002
3.355586e+003,1.812558e-002
3.357514e+003,1.805681e-002
3.359443e+003,1.805350e-002
3.361371e+003,1.805298e-002
3.363300e+003,1.805023e-002
3.365229e+003,1.801905e-002
3.367157e+003,1.789350e-002
3.369085e+003,1.781044e-002
3.371014e+003,1.772506e-002
3.372942e+003,1.766899e-002
3.374871e+003,1.766173e-002
3.376799e+003,1.762810e-002
3.378728e+003,1.760713e-002
3.380656e+003,1.760193e-002
3.382585e+003,1.753800e-002
3.384513e+003,1.745188e-002
3.386442e+003,1.733155e-002
3.388370e+003,1.729154e-002
3.390299e+003,1.725167e-002
3.392227e+003,1.720612e-002
3.394156e+003,1.719843e-002
3.396084e+003,1.708490e-002
3.398013e+003,1.708534e-002
3.399941e+003,1.711202e-002
3.401870e+003,1.711899e-002
3.403798e+003,1.697360e-002
3.405727e+003,1.693492e-002
3.407655e+003,1.684231e-002
3.409584e+003,1.673385e-002
3.411512e+003,1.672085e-002
3.413441e+003,1.665582e-002
3.415369e+003,1.656757e-002
3.417298e+003,1.654668e-002
3.419226e+003,1.649203e-002
3.421155e+003,1.638827e-002
3.423083e+003,1.622370e-002
3.425012e+003,1.610509e-002
3.426940e+003,1.607505e-002
3.428869e+003,1.603319e-002
3.430797e+003,1.589151e-002
3.432726e+003,1.581700e-002
3.434654e+003,1.575569e-002
3.436583e+003,1.571369e-002
3.438511e+003,1.562050e-002
3.440440e+003,1.548659e-002
3.442368e+003,1.533023e-002
3.444297e+003,1.526589e-002
3.446225e+003,1.517709e-002
3.448154e+003,1.506166e-002
3.450082e+003,1.501366e-002
3.452011e+003,1.486124e-002
3.453939e+003,1.473332e-002
3.455868e+003,1.466581e-002
3.457796e+003,1.461893e-002
3.459725e+003,1.463027e-002
3.461653e+003,1.451640e-002
3.463582e+003,1.435525e-002
3.465510e+003,1.412357e-002
3.467439e+003,1.411848e-002
3.469367e+003,1.408730e-002
3.471296e+003,1.390910e-002
3.473224e+003,1.381334e-002
3.475153e+003,1.385736e-002
3.477081e+003,1.374624e-002
3.479010e+003,1.364917e-002
3.480938e+003,1.353943e-002
3.482867e+003,1.348242e-002
3.484795e+003,1.343845e-002
3.486724e+003,1.333247e-002
3.488652e+003,1.324294e-002
3.490581e+003,1.326515e-002
3.492509e+003,1.318853e-002
3.494438e+003,1.301988e-002
3.496366e+003,1.284458e-002
3.498295e+003,1.278393e-002
3.500223e+003,1.266588e-002
3.502152e+003,1.255572e-002
3.504080e+003,1.254984e-002
3.506009e+003,1.248555e-002
3.507937e+003,1.238063e-002
3.509866e+003,1.232312e-002
3.511794e+003,1.226793e-002
3.513723e+003,1.218923e-002
3.515651e+003,1.213661e-002
3.517580e+003,1.202889e-002
3.519508e+003,1.192863e-002
3.521437e+003,1.180857e-002
3.523365e+003,1.172667e-002
3.525294e+003,1.174594e-002
3.527222e+003,1.173622e-002
3.529151e+003,1.154886e-002
3.531079e+003,1.138447e-002
3.533008e+003,1.126951e-002
3.534936e+003,1.114738e-002
3.536865e+003,1.113048e-002
3.538793e+003,1.113551e-002
3.540722e+003,1.103884e-002
3.542650e+003,1.089869e-002
3.544579e+003,1.081766e-002
3.546507e+003,1.093413e-002
3.548436e+003,1.087288e-002
3.550364e+003,1.065269e-002
3.552293e+003,1.048738e-002
3.554221e+003,1.049021e-002
3.556150e+003,1.047204e-002
3.558078e+003,1.029326e-002
3.560007e+003,1.024047e-002
3.561935e+003,1.024396e-002
3.563864e+003,1.016181e-002
3.565792e+003,1.011904e-002
3.567721e+003,1.006690e-002
3.569649e+003,9.896332e-003
3.571578e+003,9.816248e-003
3.573506e+003,9.877751e-003
3.575435e+003,9.852497e-003
3.577363e+003,9.800475e-003
3.579292e+003,9.690879e-003
3.581220e+003,9.557267e-003
3.583149e+003,9.566811e-003
3.585077e+003,9.581256e-003
3.587006e+003,9.570479e-003
3.588934e+003,9.563181e-003
3.590863e+003,9.594734e-003
3.592791e+003,9.564535e-003
3.594720e+003,9.511526e-003
3.596648e+003,9.444280e-003
3.598577e+003,9.487883e-003
3.600505e+003,9.413059e-003
3.602434e+003,9.341875e-003
3.604362e+003,9.184818e-003
3.606291e+003,9.063273e-003
3.608219e+003,9.065177e-003
3.610148e+003,9.013225e-003
3.612076e+003,8.925792e-003
3.614005e+003,8.842343e-003
3.615933e+003,8.867713e-003
3.617862e+003,8.967254e-003
3.619790e+003,9.016817e-003
3.621719e+003,9.028345e-003
3.623647e+003,9.016667e-003
3.625576e+003,9.006290e-003
3.627504e+003,9.000393e-003
3.629433e+003,9.005878e-003
3.631361e+003,8.899061e-003
3.633290e+003,8.747150e-003
3.635218e+003,8.627739e-003
3.637146e+003,8.590387e-003
3.639075e+003,8.404681e-003
3.641004e+003,8.286708e-003
3.642932e+003,8.201092e-003
3.644861e+003,8.189394e-003
3.646789e+003,8.223405e-003
3.648718e+003,8.164652e-003
3.650646e+003,8.037075e-003
3.652574e+003,8.032361e-003
3.654503e+003,8.099858e-003
3.656432e+003,8.030828e-003
3.658360e+003,8.049597e-003
3.660289e+003,8.005958e-003
3.662217e+003,8.023142e-003
3.664146e+003,8.049847e-003
3.666074e+003,8.036550e-003
3.668002e+003,7.897492e-003
3.669931e+003,7.869275e-003
3.671860e+003,7.882444e-003
3.673788e+003,7.896150e-003
3.675717e+003,7.908341e-003
3.677645e+003,8.004876e-003
3.679573e+003,7.990988e-003
3.681502e+003,7.867624e-003
3.683430e+003,7.956120e-003
3.685359e+003,8.098608e-003
3.687288e+003,8.147942e-003
3.689216e+003,8.133197e-003
3.691145e+003,8.185026e-003
3.693073e+003,8.266790e-003
3.695001e+003,8.375463e-003
3.696930e+003,8.483524e-003
3.698858e+003,8.452978e-003
3.700787e+003,8.440817e-003
3.702716e+003,8.476319e-003
3.704644e+003,8.436366e-003
3.706573e+003,8.398551e-003
3.708501e+003,8.348153e-003
3.710429e+003,8.280342e-003
3.712358e+003,8.058746e-003
3.714286e+003,8.007247e-003
3.716215e+003,8.083490e-003
3.718144e+003,8.297691e-003
3.720072e+003,8.542820e-003
3.722000e+003,8.587201e-003
3.723929e+003,8.634897e-003
3.725857e+003,8.721796e-003
3.727786e+003,8.875387e-003
3.729714e+003,8.806759e-003
3.731643e+003,8.667916e-003
3.733572e+003,8.728595e-003
3.735500e+003,8.665320e-003
3.737428e+003,8.541407e-003
3.739357e+003,8.393724e-003
3.741285e+003,8.285028e-003
3.743214e+003,8.204260e-003
3.745142e+003,8.142143e-003
3.747071e+003,8.055490e-003
3.749000e+003,8.125825e-003
3.750928e+003,8.071551e-003
3.752856e+003,8.029545e-003
3.754785e+003,8.034653e-003
3.756713e+003,8.054852e-003
3.758642e+003,8.037702e-003
3.760570e+003,8.038255e-003
3.762499e+003,8.079771e-003
3.764427e+003,8.141876e-003
3.766356e+003,8.059229e-003
3.768284e+003,8.037447e-003
3.770213e+003,8.061623e-003
3.772141e+003,8.040084e-003
3.774070e+003,8.058815e-003
3.775998e+003,8.098198e-003
3.777927e+003,8.114575e-003
3.779855e+003,8.078992e-003
3.781784e+003,8.003914e-003
3.783712e+003,8.010596e-003
3.785641e+003,8.082444e-003
3.787569e+003,8.116130e-003
3.789498e+003,8.159305e-003
3.791426e+003,8.187804e-003
3.793355e+003,8.097325e-003
3.795283e+003,8.020265e-003
3.797212e+003,8.107373e-003
3.799140e+003,8.153669e-003
3.801069e+003,8.141336e-003
3.802997e+003,8.131146e-003
3.804926e+003,8.158589e-003
3.806854e+003,8.141361e-003
3.808783e+003,8.109394e-003
3.810711e+003,8.092609e-003
3.812640e+003,8.060179e-003
3.814568e+003,8.077934e-003
3.816497e+003,8.064685e-003
3.818425e+003,8.056142e-003
3.820354e+003,8.091701e-003
3.822282e+003,8.142517e-003
3.824211e+003,8.180883e-003
3.826139e+003,8.199112e-003
3.828068e+003,8.196077e-003
3.829996e+003,8.246406e-003
3.831925e+003,8.203829e-003
3.833853e+003,8.099136e-003
3.835782e+003,8.057186e-003
3.837710e+003,8.218559e-003
3.839639e+003,8.328524e-003
3.841567e+003,8.318750e-003
3.843496e+003,8.322974e-003
3.845424e+003,8.191111e-003
3.847353e+003,8.141980e-003
3.849281e+003,8.112045e-003
3.851210e+003,8.040167e-003
3.853138e+003,8.017031e-003
3.855067e+003,8.072047e-003
3.856995e+003,8.165370e-003
3.858924e+003,8.220686e-003
3.860852e+003,8.139309e-003
3.862781e+003,8.195800e-003
3.864709e+003,8.265069e-003
3.866638e+003,8.260086e-003
3.868566e+003,8.226684e-003
3.870495e+003,8.236958e-003
3.872423e+003,8.252669e-003
3.874352e+003,8.282399e-003
3.876280e+003,8.197705e-003
3.878209e+003,8.165181e-003
3.880137e+003,8.226445e-003
3.882066e+003,8.270543e-003
3.883994e+003,8.246801e-003
3.885923e+003,8.316970e-003
3.887851e+003,8.351603e-003
3.889780e+003,8.271738e-003
3.891708e+003,8.182514e-003
3.893637e+003,8.135326e-003
3.895565e+003,8.090622e-003
3.897494e+003,8.097735e-003
3.899422e+003,8.129378e-003
3.901351e+003,8.149433e-003
3.903279e+003,8.217202e-003
3.905208e+003,8.239850e-003
3.907136e+003,8.277076e-003
3.909065e+003,8.249160e-003
3.910993e+003,8.216263e-003
3.912922e+003,8.167969e-003
3.914850e+003,8.180693e-003
3.916779e+003,8.209962e-003
3.918707e+003,8.256982e-003
3.920636e+003,8.213133e-003
3.922564e+003,8.177872e-003
3.924493e+003,8.227951e-003
3.926421e+003,8.224695e-003
3.928350e+003,8.116666e-003
3.930278e+003,8.095502e-003
3.932207e+003,8.206739e-003
3.934135e+003,8.266360e-003
3.936064e+003,8.215171e-003
3.937992e+003,8.230714e-003
3.939921e+003,8.257305e-003
3.941849e+003,8.246182e-003
3.943778e+003,8.192961e-003
3.945706e+003,8.162966e-003
3.947635e+003,8.145270e-003
3.949563e+003,8.195661e-003
3.951492e+003,8.218420e-003
3.953420e+003,8.146242e-003
3.955349e+003,8.085713e-003
3.957277e+003,8.070066e-003
3.959206e+003,8.097139e-003
3.961134e+003,8.153553e-003
3.963063e+003,8.173208e-003
3.964991e+003,8.196438e-003
3.966920e+003,8.163434e-003
3.968848e+003,8.121102e-003
3.970777e+003,8.116435e-003
3.972705e+003,8.227986e-003
3.974634e+003,8.247876e-003
3.976562e+003,8.191680e-003
3.978491e+003,8.245050e-003
3.980419e+003,8.213623e-003
3.982348e+003,8.215400e-003
3.984276e+003,8.206440e-003
3.986205e+003,8.295025e-003
3.988133e+003,8.301084e-003
3.990062e+003,8.285825e-003
3.991990e+003,8.268345e-003
3.993919e+003,8.204984e-003
3.995847e+003,8.226546e-003
3.997776e+003,8.202448e-003
3.999704e+003,8.202400e-003
4.001633e+003,0.000000e+000
