3.991989e+002,4.317312e-002
4.011274e+002,4.832293e-002
4.030559e+002,4.832293e-002
4.049844e+002,4.840470e-002
4.069129e+002,4.811810e-002
4.088414e+002,4.650003e-002
4.107699e+002,4.713196e-002
4.126984e+002,4.757062e-002
4.146269e+002,4.735881e-002
4.165554e+002,4.789237e-002
4.184839e+002,4.905168e-002
4.204124e+002,4.951253e-002
4.223409e+002,4.830899e-002
4.242694e+002,4.813799e-002
4.261979e+002,4.980772e-002
4.281264e+002,5.092680e-002
4.300549e+002,5.043238e-002
4.319834e+002,4.962870e-002
4.339119e+002,5.007817e-002
4.358404e+002,5.100390e-002
4.377689e+002,5.081797e-002
4.396974e+002,5.088963e-002
4.416259e+002,5.062114e-002
4.435544e+002,5.042492e-002
4.454829e+002,5.057720e-002
4.474114e+002,5.045508e-002
4.493399e+002,5.009444e-002
4.512684e+002,5.025702e-002
4.531969e+002,4.995991e-002
4.551254e+002,4.995063e-002
4.570539e+002,5.009117e-002
4.589824e+002,5.023791e-002
4.609109e+002,5.018087e-002
4.628394e+002,5.002361e-002
4.647679e+002,4.974320e-002
4.666964e+002,4.933427e-002
4.686249e+002,4.818215e-002
4.705533e+002,4.772168e-002
4.724819e+002,4.742154e-002
4.744103e+002,4.694252e-002
4.763389e+002,4.594069e-002
4.782673e+002,4.491840e-002
4.801959e+002,4.443269e-002
4.821243e+002,4.405152e-002
4.840529e+002,4.346445e-002
4.859813e+002,4.294464e-002
4.879099e+002,4.222315e-002
4.898383e+002,4.152499e-002
4.917668e+002,4.124537e-002
4.936953e+002,4.090834e-002
4.956238e+002,4.076592e-002
4.975523e+002,4.035309e-002
4.994808e+002,4.020256e-002
5.014093e+002,4.020348e-002
5.033378e+002,3.979713e-002
5.052663e+002,3.938198e-002
5.071948e+002,3.904768e-002
5.091233e+002,3.951265e-002
5.110518e+002,3.956840e-002
5.129803e+002,3.945053e-002
5.149088e+002,3.933218e-002
5.168373e+002,3.944857e-002
5.187658e+002,3.963607e-002
5.206943e+002,3.978069e-002
5.226228e+002,3.995943e-002
5.245513e+002,4.003794e-002
5.264798e+002,3.983283e-002
5.284083e+002,3.999217e-002
5.303368e+002,3.998355e-002
5.322653e+002,3.954909e-002
5.341938e+002,3.925447e-002
5.361223e+002,3.915608e-002
5.380508e+002,3.899854e-002
5.399792e+002,3.839928e-002
5.419078e+002,3.792273e-002
5.438363e+002,3.788980e-002
5.457648e+002,3.892174e-002
5.476932e+002,3.869677e-002
5.496218e+002,3.867771e-002
5.515503e+002,3.911763e-002
5.534788e+002,3.911082e-002
5.554072e+002,3.895895e-002
5.573358e+002,3.896791e-002
5.592643e+002,3.907926e-002
5.611927e+002,3.888294e-002
5.631212e+002,3.869183e-002
5.650497e+002,3.836495e-002
5.669783e+002,3.806943e-002
5.689067e+002,3.796966e-002
5.708352e+002,3.774060e-002
5.727637e+002,3.766211e-002
5.746923e+002,3.756962e-002
5.766207e+002,3.767404e-002
5.785492e+002,3.734536e-002
5.804777e+002,3.724918e-002
5.824063e+002,3.729750e-002
5.843347e+002,3.718362e-002
5.862632e+002,3.685725e-002
5.881917e+002,3.683184e-002
5.901202e+002,3.674441e-002
5.920487e+002,3.682677e-002
5.939772e+002,3.664663e-002
5.959057e+002,3.656390e-002
5.978342e+002,3.628310e-002
5.997627e+002,3.618550e-002
6.016912e+002,3.612236e-002
6.036197e+002,3.564789e-002
6.055482e+002,3.529840e-002
6.074767e+002,3.539402e-002
6.094052e+002,3.551595e-002
6.113337e+002,3.517982e-002
6.132622e+002,3.464496e-002
6.151907e+002,3.420736e-002
6.171192e+002,3.404776e-002
6.190477e+002,3.389015e-002
6.209762e+002,3.364939e-002
6.229047e+002,3.338134e-002
6.248332e+002,3.294500e-002
6.267617e+002,3.256116e-002
6.286902e+002,3.222407e-002
6.306187e+002,3.199264e-002
6.325472e+002,3.171248e-002
6.344756e+002,3.153563e-002
6.364042e+002,3.127664e-002
6.383326e+002,3.115956e-002
6.402612e+002,3.090834e-002
6.421896e+002,3.070884e-002
6.441182e+002,3.057044e-002
6.460466e+002,3.074085e-002
6.479752e+002,3.062137e-002
6.499036e+002,3.040992e-002
6.518322e+002,3.009402e-002
6.537606e+002,3.018769e-002
6.556891e+002,3.036325e-002
6.576177e+002,3.028319e-002
6.595461e+002,3.001590e-002
6.614746e+002,3.007367e-002
6.634031e+002,3.023160e-002
6.653317e+002,3.015239e-002
6.672601e+002,2.985893e-002
6.691886e+002,2.965573e-002
6.711171e+002,2.931633e-002
6.730457e+002,2.888745e-002
6.749741e+002,2.827653e-002
6.769026e+002,2.780586e-002
6.788311e+002,2.736096e-002
6.807596e+002,2.689107e-002
6.826881e+002,2.671298e-002
6.846166e+002,2.668348e-002
6.865451e+002,2.659677e-002
6.884736e+002,2.631333e-002
6.904021e+002,2.617055e-002
6.923306e+002,2.618545e-002
6.942591e+002,2.613734e-002
6.961876e+002,2.624581e-002
6.981161e+002,2.634080e-002
7.000446e+002,2.626172e-002
7.019731e+002,2.603048e-002
7.039016e+002,2.590277e-002
7.058301e+002,2.580234e-002
7.077585e+002,2.564842e-002
7.096871e+002,2.547989e-002
7.116156e+002,2.525648e-002
7.135441e+002,2.503685e-002
7.154725e+002,2.494061e-002
7.174011e+002,2.479656e-002
7.193296e+002,2.470605e-002
7.212581e+002,2.448009e-002
7.231865e+002,2.434549e-002
7.251151e+002,2.413150e-002
7.270436e+002,2.386749e-002
7.289720e+002,2.365001e-002
7.309005e+002,2.365156e-002
7.328290e+002,2.358076e-002
7.347576e+002,2.339081e-002
7.366860e+002,2.320551e-002
7.386145e+002,2.304697e-002
7.405430e+002,2.303364e-002
7.424716e+002,2.306932e-002
7.444000e+002,2.290589e-002
7.463285e+002,2.268832e-002
7.482570e+002,2.270332e-002
7.501855e+002,2.253975e-002
7.521140e+002,2.231511e-002
7.540425e+002,2.233487e-002
7.559710e+002,2.225063e-002
7.578995e+002,2.206814e-002
7.598280e+002,2.206871e-002
7.617565e+002,2.202454e-002
7.636850e+002,2.196240e-002
7.656135e+002,2.192309e-002
7.675420e+002,2.184566e-002
7.694705e+002,2.184123e-002
7.713990e+002,2.184158e-002
7.733275e+002,2.188785e-002
7.752560e+002,2.190465e-002
7.771844e+002,2.196996e-002
7.791130e+002,2.204417e-002
7.810415e+002,2.202078e-002
7.829700e+002,2.201475e-002
7.848984e+002,2.199906e-002
7.868270e+002,2.196839e-002
7.887555e+002,2.189702e-002
7.906840e+002,2.174741e-002
7.926124e+002,2.169317e-002
7.945410e+002,2.173898e-002
7.964695e+002,2.166959e-002
7.983979e+002,2.148859e-002
8.003264e+002,2.152431e-002
8.022549e+002,2.159183e-002
8.041835e+002,2.151877e-002
8.061119e+002,2.140730e-002
8.080404e+002,2.129736e-002
8.099689e+002,2.116552e-002
8.118975e+002,2.105797e-002
8.138259e+002,2.101387e-002
8.157545e+002,2.095013e-002
8.176830e+002,2.094797e-002
8.196115e+002,2.085973e-002
8.215399e+002,2.074492e-002
8.234684e+002,2.067531e-002
8.253970e+002,2.058025e-002
8.273254e+002,2.060391e-002
8.292539e+002,2.061649e-002
8.311824e+002,2.071330e-002
8.331110e+002,2.068265e-002
8.350394e+002,2.055965e-002
8.369679e+002,2.051084e-002
8.388964e+002,2.039525e-002
8.408250e+002,2.026154e-002
8.427534e+002,2.019388e-002
8.446819e+002,2.020082e-002
8.466104e+002,2.026334e-002
8.485389e+002,2.026695e-002
8.504674e+002,2.027529e-002
8.523959e+002,2.017580e-002
8.543244e+002,2.012054e-002
8.562529e+002,2.025362e-002
8.581814e+002,2.042085e-002
8.601099e+002,2.039372e-002
8.620384e+002,2.039275e-002
8.639669e+002,2.051306e-002
8.658954e+002,2.061127e-002
8.678239e+002,2.071545e-002
8.697524e+002,2.073780e-002
8.716809e+002,2.087555e-002
8.736094e+002,2.101067e-002
8.755378e+002,2.107964e-002
8.774664e+002,2.127206e-002
8.793949e+002,2.148741e-002
8.813234e+002,2.176953e-002
8.832518e+002,2.206087e-002
8.851804e+002,2.237515e-002
8.871089e+002,2.275096e-002
8.890374e+002,2.326547e-002
8.909658e+002,2.372250e-002
8.928943e+002,2.408243e-002
8.948229e+002,2.425450e-002
8.967513e+002,2.430239e-002
8.986798e+002,2.438138e-002
9.006083e+002,2.426781e-002
9.025369e+002,2.397096e-002
9.044653e+002,2.369153e-002
9.063938e+002,2.353200e-002
9.083223e+002,2.346380e-002
9.102509e+002,2.344152e-002
9.121793e+002,2.347999e-002
9.141078e+002,2.353235e-002
9.160364e+002,2.368656e-002
9.179648e+002,2.389527e-002
9.198933e+002,2.411815e-002
9.218218e+002,2.435443e-002
9.237504e+002,2.462966e-002
9.256788e+002,2.480205e-002
9.276073e+002,2.507837e-002
9.295358e+002,2.533765e-002
9.314644e+002,2.566711e-002
9.333928e+002,2.591239e-002
9.353213e+002,2.614170e-002
9.372498e+002,2.647891e-002
9.391783e+002,2.690327e-002
9.411068e+002,2.726027e-002
9.430353e+002,2.762254e-002
9.449637e+002,2.814042e-002
9.468923e+002,2.860594e-002
9.488208e+002,2.904617e-002
9.507493e+002,2.962481e-002
9.526777e+002,3.012101e-002
9.546063e+002,3.066851e-002
9.565348e+002,3.122190e-002
9.584633e+002,3.188635e-002
9.603917e+002,3.246815e-002
9.623203e+002,3.301279e-002
9.642488e+002,3.352899e-002
9.661772e+002,3.401458e-002
9.681057e+002,3.455256e-002
9.700343e+002,3.506559e-002
9.719628e+002,3.556589e-002
9.738912e+002,3.617072e-002
9.758197e+002,3.684899e-002
9.777483e+002,3.754917e-002
9.796768e+002,3.822949e-002
9.816052e+002,3.903477e-002
9.835337e+002,3.986307e-002
9.854623e+002,4.064180e-002
9.873907e+002,4.123804e-002
9.893192e+002,4.174704e-002
9.912477e+002,4.210824e-002
9.931763e+002,4.230857e-002
9.951047e+002,4.243862e-002
9.970332e+002,4.273260e-002
9.989617e+002,4.308994e-002
1.000890e+003,4.357056e-002
1.002819e+003,4.409063e-002
1.004747e+003,4.454585e-002
1.006676e+003,4.499460e-002
1.008604e+003,4.547109e-002
1.010533e+003,4.606380e-002
1.012461e+003,4.668985e-002
1.014390e+003,4.733843e-002
1.016318e+003,4.803823e-002
1.018247e+003,4.868820e-002
1.020175e+003,4.931022e-002
1.022104e+003,4.993730e-002
1.024032e+003,5.057668e-002
1.025961e+003,5.113837e-002
1.027889e+003,5.163870e-002
1.029818e+003,5.209335e-002
1.031746e+003,5.246734e-002
1.033675e+003,5.265706e-002
1.035603e+003,5.264008e-002
1.037532e+003,5.238409e-002
1.039460e+003,5.198877e-002
1.041389e+003,5.149386e-002
1.043317e+003,5.107546e-002
1.045246e+003,5.070892e-002
1.047174e+003,5.041272e-002
1.049103e+003,5.006485e-002
1.051031e+003,4.975516e-002
1.052960e+003,4.939612e-002
1.054888e+003,4.895693e-002
1.056817e+003,4.832741e-002
1.058745e+003,4.771130e-002
1.060674e+003,4.709928e-002
1.062602e+003,4.632829e-002
1.064531e+003,4.547193e-002
1.066459e+003,4.480163e-002
1.068388e+003,4.417811e-002
1.070316e+003,4.363837e-002
1.072245e+003,4.324562e-002
1.074173e+003,4.285707e-002
1.076102e+003,4.229936e-002
1.078030e+003,4.160316e-002
1.079959e+003,4.087979e-002
1.081887e+003,4.023834e-002
1.083816e+003,3.967781e-002
1.085744e+003,3.926766e-002
1.087673e+003,3.882156e-002
1.089601e+003,3.846149e-002
1.091530e+003,3.812110e-002
1.093458e+003,3.775644e-002
1.095387e+003,3.743878e-002
1.097315e+003,3.723300e-002
1.099244e+003,3.702688e-002
1.101172e+003,3.682003e-002
1.103101e+003,3.654955e-002
1.105029e+003,3.619813e-002
1.106958e+003,3.574977e-002
1.108886e+003,3.513004e-002
1.110815e+003,3.440168e-002
1.112743e+003,3.361948e-002
1.114672e+003,3.271338e-002
1.116600e+003,3.191598e-002
1.118529e+003,3.116718e-002
1.120457e+003,3.052985e-002
1.122386e+003,2.990769e-002
1.124314e+003,2.929057e-002
1.126243e+003,2.858315e-002
1.128171e+003,2.787370e-002
1.130100e+003,2.719733e-002
1.132028e+003,2.655108e-002
1.133957e+003,2.601869e-002
1.135885e+003,2.552842e-002
1.137814e+003,2.511670e-002
1.139742e+003,2.494394e-002
1.141671e+003,2.493535e-002
1.143599e+003,2.499680e-002
1.145528e+003,2.517081e-002
1.147456e+003,2.533934e-002
1.149385e+003,2.544142e-002
1.151313e+003,2.560932e-002
1.153242e+003,2.579799e-002
1.155170e+003,2.591591e-002
1.157099e+003,2.598724e-002
1.159027e+003,2.594369e-002
1.160956e+003,2.571523e-002
1.162884e+003,2.538100e-002
1.164813e+003,2.489475e-002
1.166741e+003,2.424700e-002
1.168670e+003,2.350409e-002
1.170598e+003,2.268267e-002
1.172526e+003,2.185782e-002
1.174455e+003,2.115603e-002
1.176384e+003,2.050355e-002
1.178312e+003,1.989755e-002
1.180240e+003,1.935631e-002
1.182169e+003,1.893933e-002
1.184098e+003,1.861542e-002
1.186026e+003,1.836525e-002
1.187954e+003,1.823350e-002
1.189883e+003,1.816769e-002
1.191812e+003,1.814378e-002
1.193740e+003,1.821904e-002
1.195668e+003,1.836715e-002
1.197597e+003,1.849692e-002
1.199526e+003,1.864254e-002
1.201454e+003,1.874373e-002
1.203382e+003,1.877607e-002
1.205311e+003,1.875521e-002
1.207240e+003,1.872445e-002
1.209168e+003,1.866281e-002
1.211096e+003,1.862982e-002
1.213025e+003,1.869711e-002
1.214953e+003,1.880470e-002
1.216882e+003,1.889799e-002
1.218810e+003,1.899612e-002
1.220739e+003,1.913678e-002
1.222667e+003,1.926927e-002
1.224596e+003,1.948404e-002
1.226524e+003,1.971664e-002
1.228453e+003,1.992413e-002
1.230381e+003,2.006482e-002
1.232310e+003,2.012672e-002
1.234238e+003,2.017927e-002
1.236167e+003,2.021515e-002
1.238095e+003,2.015636e-002
1.240024e+003,2.011634e-002
1.241952e+003,1.999533e-002
1.243881e+003,1.983117e-002
1.245809e+003,1.966687e-002
1.247738e+003,1.949819e-002
1.249666e+003,1.927570e-002
1.251595e+003,1.902088e-002
1.253523e+003,1.875668e-002
1.255452e+003,1.852146e-002
1.257380e+003,1.830302e-002
1.259309e+003,1.803199e-002
1.261237e+003,1.776377e-002
1.263166e+003,1.747621e-002
1.265094e+003,1.715957e-002
1.267023e+003,1.687162e-002
1.268951e+003,1.665265e-002
1.270880e+003,1.639126e-002
1.272808e+003,1.610985e-002
1.274737e+003,1.590685e-002
1.276665e+003,1.575110e-002
1.278594e+003,1.560620e-002
1.280522e+003,1.550899e-002
1.282451e+003,1.540506e-002
1.284379e+003,1.528825e-002
1.286308e+003,1.519461e-002
1.288236e+003,1.511969e-002
1.290165e+003,1.505793e-002
1.292093e+003,1.504579e-002
1.294022e+003,1.509618e-002
1.295950e+003,1.513669e-002
1.297879e+003,1.524212e-002
1.299807e+003,1.541706e-002
1.301736e+003,1.555765e-002
1.303664e+003,1.571829e-002
1.305593e+003,1.588532e-002
1.307521e+003,1.609392e-002
1.309450e+003,1.631049e-002
1.311378e+003,1.645866e-002
1.313307e+003,1.656047e-002
1.315235e+003,1.665209e-002
1.317164e+003,1.669962e-002
1.319092e+003,1.668837e-002
1.321021e+003,1.659595e-002
1.322949e+003,1.651055e-002
1.324878e+003,1.644457e-002
1.326806e+003,1.635857e-002
1.328735e+003,1.627585e-002
1.330663e+003,1.623899e-002
1.332592e+003,1.623162e-002
1.334520e+003,1.621839e-002
1.336449e+003,1.618489e-002
1.338377e+003,1.609500e-002
1.340306e+003,1.597498e-002
1.342234e+003,1.586336e-002
1.344163e+003,1.582527e-002
1.346091e+003,1.582842e-002
1.348020e+003,1.584994e-002
1.349948e+003,1.590455e-002
1.351877e+003,1.600063e-002
1.353805e+003,1.608979e-002
1.355734e+003,1.621481e-002
1.357662e+003,1.635910e-002
1.359591e+003,1.647390e-002
1.361519e+003,1.663327e-002
1.363448e+003,1.679801e-002
1.365376e+003,1.689490e-002
1.367305e+003,1.698056e-002
1.369233e+003,1.698169e-002
1.371162e+003,1.690547e-002
1.373090e+003,1.676439e-002
1.375019e+003,1.663645e-002
1.376947e+003,1.651555e-002
1.378876e+003,1.635702e-002
1.380804e+003,1.613694e-002
1.382733e+003,1.585975e-002
1.384661e+003,1.561711e-002
1.386590e+003,1.546432e-002
1.388518e+003,1.527083e-002
1.390447e+003,1.512446e-002
1.392375e+003,1.503749e-002
1.394304e+003,1.495518e-002
1.396232e+003,1.493318e-002
1.398161e+003,1.494333e-002
1.400089e+003,1.493313e-002
1.402018e+003,1.496498e-002
1.403946e+003,1.496972e-002
1.405875e+003,1.496497e-002
1.407803e+003,1.503482e-002
1.409732e+003,1.510708e-002
1.411660e+003,1.515928e-002
1.413589e+003,1.526881e-002
1.415517e+003,1.532793e-002
1.417446e+003,1.535949e-002
1.419374e+003,1.543421e-002
1.421303e+003,1.547776e-002
1.423231e+003,1.549704e-002
1.425160e+003,1.547661e-002
1.427088e+003,1.543433e-002
1.429017e+003,1.532309e-002
1.430945e+003,1.526984e-002
1.432874e+003,1.523029e-002
1.434802e+003,1.515927e-002
1.436731e+003,1.506409e-002
1.438659e+003,1.494344e-002
1.440588e+003,1.484925e-002
1.442516e+003,1.479889e-002
1.444445e+003,1.476196e-002
1.446373e+003,1.475028e-002
1.448302e+003,1.474390e-002
1.450230e+003,1.474955e-002
1.452159e+003,1.468526e-002
1.454087e+003,1.464385e-002
1.456016e+003,1.458016e-002
1.457944e+003,1.445325e-002
1.459873e+003,1.434057e-002
1.461801e+003,1.424800e-002
1.463730e+003,1.408046e-002
1.465658e+003,1.385918e-002
1.467587e+003,1.358934e-002
1.469515e+003,1.330825e-002
1.471444e+003,1.296561e-002
1.473372e+003,1.268020e-002
1.475301e+003,1.243744e-002
1.477229e+003,1.227883e-002
1.479158e+003,1.213613e-002
1.481086e+003,1.201457e-002
1.483015e+003,1.201201e-002
1.484943e+003,1.212422e-002
1.486872e+003,1.222227e-002
1.488800e+003,1.232050e-002
1.490729e+003,1.247490e-002
1.492657e+003,1.264623e-002
1.494586e+003,1.283925e-002
1.496514e+003,1.303166e-002
1.498443e+003,1.323275e-002
1.500371e+003,1.343343e-002
1.502300e+003,1.359837e-002
1.504228e+003,1.373342e-002
1.506157e+003,1.386474e-002
1.508085e+003,1.402414e-002
1.510014e+003,1.413568e-002
1.511942e+003,1.423561e-002
1.513871e+003,1.431397e-002
1.515799e+003,1.427047e-002
1.517728e+003,1.410114e-002
1.519656e+003,1.396415e-002
1.521585e+003,1.390023e-002
1.523513e+003,1.383778e-002
1.525442e+003,1.375629e-002
1.527370e+003,1.370544e-002
1.529299e+003,1.367595e-002
1.531227e+003,1.364142e-002
1.533156e+003,1.365673e-002
1.535084e+003,1.364887e-002
1.537013e+003,1.361041e-002
1.538941e+003,1.360569e-002
1.540870e+003,1.353441e-002
1.542798e+003,1.350798e-002
1.544727e+003,1.350089e-002
1.546655e+003,1.340895e-002
1.548584e+003,1.331065e-002
1.550512e+003,1.322862e-002
1.552441e+003,1.318885e-002
1.554369e+003,1.314009e-002
1.556298e+003,1.303365e-002
1.558226e+003,1.290695e-002
1.560155e+003,1.290816e-002
1.562083e+003,1.289166e-002
1.564012e+003,1.285034e-002
1.565940e+003,1.277584e-002
1.567869e+003,1.276145e-002
1.569797e+003,1.275462e-002
1.571726e+003,1.283818e-002
1.573654e+003,1.289218e-002
1.575583e+003,1.297039e-002
1.577511e+003,1.309884e-002
1.579440e+003,1.320944e-002
1.581368e+003,1.332614e-002
1.583297e+003,1.344370e-002
1.585225e+003,1.357170e-002
1.587154e+003,1.376039e-002
1.589082e+003,1.397151e-002
1.591010e+003,1.413687e-002
1.592939e+003,1.426904e-002
1.594868e+003,1.438116e-002
1.596796e+003,1.452607e-002
1.598724e+003,1.462195e-002
1.600653e+003,1.474216e-002
1.602582e+003,1.487378e-002
1.604510e+003,1.501212e-002
1.606438e+003,1.510570e-002
1.608367e+003,1.519208e-002
1.610296e+003,1.536282e-002
1.612224e+003,1.558335e-002
1.614152e+003,1.580292e-002
1.616081e+003,1.601833e-002
1.618010e+003,1.622055e-002
1.619938e+003,1.644329e-002
1.621866e+003,1.664216e-002
1.623795e+003,1.678880e-002
1.625724e+003,1.693812e-002
1.627652e+003,1.701630e-002
1.629580e+003,1.702163e-002
1.631509e+003,1.698231e-002
1.633438e+003,1.692934e-002
1.635366e+003,1.686694e-002
1.637294e+003,1.679182e-002
1.639223e+003,1.666566e-002
1.641151e+003,1.660819e-002
1.643080e+003,1.654662e-002
1.645008e+003,1.649835e-002
1.646937e+003,1.640610e-002
1.648865e+003,1.633283e-002
1.650794e+003,1.628445e-002
1.652722e+003,1.624157e-002
1.654651e+003,1.613897e-002
1.656579e+003,1.596343e-002
1.658508e+003,1.574761e-002
1.660436e+003,1.552244e-002
1.662365e+003,1.529011e-002
1.664293e+003,1.504436e-002
1.666222e+003,1.478751e-002
1.668150e+003,1.456743e-002
1.670079e+003,1.435061e-002
1.672007e+003,1.413030e-002
1.673936e+003,1.389884e-002
1.675864e+003,1.363786e-002
1.677793e+003,1.341387e-002
1.679721e+003,1.321245e-002
1.681650e+003,1.296584e-002
1.683578e+003,1.278329e-002
1.685507e+003,1.263566e-002
1.687435e+003,1.242031e-002
1.689364e+003,1.227086e-002
1.691292e+003,1.211663e-002
1.693221e+003,1.196934e-002
1.695149e+003,1.186024e-002
1.697078e+003,1.170693e-002
1.699006e+003,1.148914e-002
1.700935e+003,1.135975e-002
1.702863e+003,1.130673e-002
1.704792e+003,1.117215e-002
1.706720e+003,1.110716e-002
1.708649e+003,1.119353e-002
1.710577e+003,1.121283e-002
1.712506e+003,1.121939e-002
1.714434e+003,1.127788e-002
1.716363e+003,1.136269e-002
1.718291e+003,1.147557e-002
1.720220e+003,1.148218e-002
1.722148e+003,1.150720e-002
1.724077e+003,1.155268e-002
1.726005e+003,1.160808e-002
1.727934e+003,1.163340e-002
1.729862e+003,1.159555e-002
1.731791e+003,1.151075e-002
1.733719e+003,1.142043e-002
1.735648e+003,1.129423e-002
1.737576e+003,1.108741e-002
1.739505e+003,1.085816e-002
1.741433e+003,1.058880e-002
1.743362e+003,1.035847e-002
1.745290e+003,1.020054e-002
1.747219e+003,1.003300e-002
1.749147e+003,9.846119e-003
1.751076e+003,9.677511e-003
1.753004e+003,9.486364e-003
1.754933e+003,9.278294e-003
1.756861e+003,9.183303e-003
1.758790e+003,9.104802e-003
1.760718e+003,8.960963e-003
1.762647e+003,8.892250e-003
1.764575e+003,8.804301e-003
1.766504e+003,8.704691e-003
1.768432e+003,8.665320e-003
1.770361e+003,8.670487e-003
1.772289e+003,8.626337e-003
1.774218e+003,8.564160e-003
1.776146e+003,8.573654e-003
1.778075e+003,8.554193e-003
1.780003e+003,8.567862e-003
1.781932e+003,8.543577e-003
1.783860e+003,8.551192e-003
1.785789e+003,8.539265e-003
1.787717e+003,8.502184e-003
1.789646e+003,8.479211e-003
1.791574e+003,8.444883e-003
1.793503e+003,8.486182e-003
1.795431e+003,8.530723e-003
1.797360e+003,8.543259e-003
1.799288e+003,8.482229e-003
1.801217e+003,8.479429e-003
1.803145e+003,8.502407e-003
1.805074e+003,8.479922e-003
1.807002e+003,8.489233e-003
1.808931e+003,8.503130e-003
1.810859e+003,8.482805e-003
1.812788e+003,8.418949e-003
1.814716e+003,8.411800e-003
1.816645e+003,8.489628e-003
1.818573e+003,8.549425e-003
1.820502e+003,8.497227e-003
1.822430e+003,8.418213e-003
1.824359e+003,8.392182e-003
1.826287e+003,8.325609e-003
1.828216e+003,8.302746e-003
1.830144e+003,8.286946e-003
1.832073e+003,8.229824e-003
1.834001e+003,8.372628e-003
1.835930e+003,8.434567e-003
1.837858e+003,8.341180e-003
1.839787e+003,8.257693e-003
1.841715e+003,8.277880e-003
1.843644e+003,8.338626e-003
1.845572e+003,8.303623e-003
1.847501e+003,8.273079e-003
1.849429e+003,8.225764e-003
1.851358e+003,8.110521e-003
1.853286e+003,8.103849e-003
1.855215e+003,8.163044e-003
1.857143e+003,8.140001e-003
1.859072e+003,8.198619e-003
1.861000e+003,8.181736e-003
1.862929e+003,8.138746e-003
1.864857e+003,8.172760e-003
1.866786e+003,8.125892e-003
1.868714e+003,8.165779e-003
1.870643e+003,8.135648e-003
1.872571e+003,8.212954e-003
1.874500e+003,8.224091e-003
1.876428e+003,8.184770e-003
1.878357e+003,8.096153e-003
1.880285e+003,8.215820e-003
1.882214e+003,8.186811e-003
1.884142e+003,8.141678e-003
1.886071e+003,8.009879e-003
1.887999e+003,8.028623e-003
1.889928e+003,8.053545e-003
1.891856e+003,7.980967e-003
1.893785e+003,7.916480e-003
1.895713e+003,7.863063e-003
1.897642e+003,7.990244e-003
1.899570e+003,7.778671e-003
1.901499e+003,7.558625e-003
1.903427e+003,7.637577e-003
1.905356e+003,7.651854e-003
1.907284e+003,7.587370e-003
1.909213e+003,7.587010e-003
1.911141e+003,7.580641e-003
1.913070e+003,7.560849e-003
1.914998e+003,7.479477e-003
1.916927e+003,7.276294e-003
1.918855e+003,7.256923e-003
1.920784e+003,7.455903e-003
1.922712e+003,7.511371e-003
1.924641e+003,7.641035e-003
1.926569e+003,7.586158e-003
1.928498e+003,7.394025e-003
1.930426e+003,7.199853e-003
1.932355e+003,6.829590e-003
1.934283e+003,6.933737e-003
1.936212e+003,7.120284e-003
1.938140e+003,6.694676e-003
1.940069e+003,6.722220e-003
1.941997e+003,6.602032e-003
1.943926e+003,6.120793e-003
1.945854e+003,6.148085e-003
1.947783e+003,6.330791e-003
1.949711e+003,5.511409e-003
1.951640e+003,5.624377e-003
1.953568e+003,5.613797e-003
1.955497e+003,5.586864e-003
1.957425e+003,5.868933e-003
1.959354e+003,5.373298e-003
1.961282e+003,4.214052e-003
1.963211e+003,3.553941e-003
1.965139e+003,3.461258e-003
1.967068e+003,2.987726e-003
1.968996e+003,3.102412e-003
1.970925e+003,2.537632e-003
1.972853e+003,2.257792e-003
1.974782e+003,1.804937e-003
1.976710e+003,2.263186e-003
1.978639e+003,2.813025e-003
1.980567e+003,3.253533e-003
1.982496e+003,3.467570e-003
1.984424e+003,3.484939e-003
1.986353e+003,4.060481e-003
1.988281e+003,4.359098e-003
1.990210e+003,4.482626e-003
1.992138e+003,4.107140e-003
1.994067e+003,4.467852e-003
1.995995e+003,5.382683e-003
1.997924e+003,4.853873e-003
1.999852e+003,3.679538e-003
2.001781e+003,3.777054e-003
2.003709e+003,3.874521e-003
2.005638e+003,2.590855e-003
2.007566e+003,2.169729e-003
2.009495e+003,2.623079e-003
2.011423e+003,2.508445e-003
2.013352e+003,2.223463e-003
2.015280e+003,3.042069e-003
2.017208e+003,3.328157e-003
2.019137e+003,2.583408e-003
2.021066e+003,1.295221e-003
2.022994e+003,1.649999e-003
2.024922e+003,2.445988e-003
2.026851e+003,1.655461e-003
2.028780e+003,1.462134e-003
2.030708e+003,2.682344e-003
2.032636e+003,2.958785e-003
2.034565e+003,2.593164e-003
2.036494e+003,2.789389e-003
2.038422e+003,2.712653e-003
2.040350e+003,3.548602e-003
2.042279e+003,4.195890e-003
2.044208e+003,3.929405e-003
2.046136e+003,4.170021e-003
2.048064e+003,4.452175e-003
2.049993e+003,4.619542e-003
2.051921e+003,5.315878e-003
2.053850e+003,5.521028e-003
2.055778e+003,5.575598e-003
2.057707e+003,5.773526e-003
2.059635e+003,5.938173e-003
2.061564e+003,6.092574e-003
2.063492e+003,6.399907e-003
2.065421e+003,6.477267e-003
2.067349e+003,6.332011e-003
2.069278e+003,6.235079e-003
2.071206e+003,6.555267e-003
2.073135e+003,6.499749e-003
2.075063e+003,6.429428e-003
2.076992e+003,6.595112e-003
2.078920e+003,6.503563e-003
2.080849e+003,6.796192e-003
2.082777e+003,7.083837e-003
2.084706e+003,7.054237e-003
2.086634e+003,6.966494e-003
2.088563e+003,7.116812e-003
2.090491e+003,7.040069e-003
2.092420e+003,7.154265e-003
2.094348e+003,7.239580e-003
2.096277e+003,7.174001e-003
2.098205e+003,6.903316e-003
2.100134e+003,6.720520e-003
2.102062e+003,6.549675e-003
2.103991e+003,6.546076e-003
2.105919e+003,6.699489e-003
2.107848e+003,6.604441e-003
2.109776e+003,6.276725e-003
2.111705e+003,6.759893e-003
2.113633e+003,7.132769e-003
2.115562e+003,7.038232e-003
2.117490e+003,6.688856e-003
2.119419e+003,6.625636e-003
2.121347e+003,6.897021e-003
2.123276e+003,6.881064e-003
2.125204e+003,6.736067e-003
2.127133e+003,6.287886e-003
2.129061e+003,6.229228e-003
2.130990e+003,6.043625e-003
2.132918e+003,5.506551e-003
2.134847e+003,5.218964e-003
2.136775e+003,4.747387e-003
2.138704e+003,4.534056e-003
2.140632e+003,3.993662e-003
2.142561e+003,3.322836e-003
2.144489e+003,2.819662e-003
2.146418e+003,2.376602e-003
2.148346e+003,2.431976e-003
2.150275e+003,2.331395e-003
2.152203e+003,1.868333e-003
2.154132e+003,2.283536e-004
2.156060e+003,-8.756114e-004
2.157989e+003,-2.804107e-003
2.159917e+003,-3.144671e-003
2.161846e+003,-1.298006e-003
2.163774e+003,2.789125e-004
2.165703e+003,1.690937e-003
2.167631e+003,2.125773e-003
2.169560e+003,1.878017e-003
2.171488e+003,2.202761e-003
2.173417e+003,3.239273e-003
2.175345e+003,3.621666e-003
2.177274e+003,3.616755e-003
2.179202e+003,2.970196e-003
2.181131e+003,3.102795e-003
2.183059e+003,3.519973e-003
2.184988e+003,3.918395e-003
2.186916e+003,3.181492e-003
2.188845e+003,2.937970e-003
2.190773e+003,3.335090e-003
2.192702e+003,3.736216e-003
2.194630e+003,3.895125e-003
2.196559e+003,3.402375e-003
2.198487e+003,3.803128e-003
2.200416e+003,4.633910e-003
2.202344e+003,4.926774e-003
2.204273e+003,4.145273e-003
2.206201e+003,4.163236e-003
2.208130e+003,4.381105e-003
2.210058e+003,4.662947e-003
2.211987e+003,4.985927e-003
2.213915e+003,4.977883e-003
2.215844e+003,5.182144e-003
2.217772e+003,5.603977e-003
2.219701e+003,5.416024e-003
2.221629e+003,4.993200e-003
2.223558e+003,5.444475e-003
2.225486e+003,5.929539e-003
2.227415e+003,6.493773e-003
2.229343e+003,6.297131e-003
2.231272e+003,5.714813e-003
2.233200e+003,5.628262e-003
2.235129e+003,5.978139e-003
2.237057e+003,6.482203e-003
2.238986e+003,6.373473e-003
2.240914e+003,6.197005e-003
2.242843e+003,6.534260e-003
2.244771e+003,6.582164e-003
2.246700e+003,6.329341e-003
2.248628e+003,6.442821e-003
2.250557e+003,6.999280e-003
2.252485e+003,7.306567e-003
2.254414e+003,7.103370e-003
2.256342e+003,7.235976e-003
2.258271e+003,7.286387e-003
2.260199e+003,7.292159e-003
2.262128e+003,7.603107e-003
2.264056e+003,8.001951e-003
2.265985e+003,7.970470e-003
2.267913e+003,7.947694e-003
2.269842e+003,7.765479e-003
2.271770e+003,7.810719e-003
2.273699e+003,8.018624e-003
2.275627e+003,8.158565e-003
2.277556e+003,7.991417e-003
2.279484e+003,8.150885e-003
2.281413e+003,8.293309e-003
2.283341e+003,8.301558e-003
2.285270e+003,8.295631e-003
2.287198e+003,8.603941e-003
2.289127e+003,8.684027e-003
2.291055e+003,8.650941e-003
2.292984e+003,8.714781e-003
2.294912e+003,9.050712e-003
2.296841e+003,9.179851e-003
2.298769e+003,9.066205e-003
2.300698e+003,9.063594e-003
2.302626e+003,9.031226e-003
2.304555e+003,9.059554e-003
2.306483e+003,9.186636e-003
2.308412e+003,9.405595e-003
2.310340e+003,9.324534e-003
2.312269e+003,9.422262e-003
2.314197e+003,9.363428e-003
2.316125e+003,9.138580e-003
2.318054e+003,9.248172e-003
2.319983e+003,9.571998e-003
2.321911e+003,9.552063e-003
2.323840e+003,9.572719e-003
2.325768e+003,9.615742e-003
2.327697e+003,9.580658e-003
2.329625e+003,9.326030e-003
2.331553e+003,9.064479e-003
2.333482e+003,8.886681e-003
2.335411e+003,8.715486e-003
2.337339e+003,8.302014e-003
2.339268e+003,8.294825e-003
2.341196e+003,8.159447e-003
2.343125e+003,8.333729e-003
2.345053e+003,8.366189e-003
2.346981e+003,8.588444e-003
2.348910e+003,8.654404e-003
2.350839e+003,8.693816e-003
2.352767e+003,8.810680e-003
2.354696e+003,9.262457e-003
2.356624e+003,9.293523e-003
2.358552e+003,9.302617e-003
2.360481e+003,9.271609e-003
2.362409e+003,8.917058e-003
2.364338e+003,9.049212e-003
2.366267e+003,9.185622e-003
2.368195e+003,9.175828e-003
2.370124e+003,9.615211e-003
2.372052e+003,9.517254e-003
2.373980e+003,9.225113e-003
2.375909e+003,9.277389e-003
2.377838e+003,9.378685e-003
2.379766e+003,9.583461e-003
2.381695e+003,9.637034e-003
2.383623e+003,9.671941e-003
2.385552e+003,9.718641e-003
2.387480e+003,9.689818e-003
2.389408e+003,9.667429e-003
2.391337e+003,9.733427e-003
2.393266e+003,9.796991e-003
2.395194e+003,9.781237e-003
2.397123e+003,9.752792e-003
2.399051e+003,9.575695e-003
2.400979e+003,9.314515e-003
2.402908e+003,9.235578e-003
2.404836e+003,9.122547e-003
2.406765e+003,9.097542e-003
2.408694e+003,9.006737e-003
2.410622e+003,8.995641e-003
2.412551e+003,9.012217e-003
2.414479e+003,8.943482e-003
2.416407e+003,8.896808e-003
2.418336e+003,8.953697e-003
2.420264e+003,9.017934e-003
2.422193e+003,9.099538e-003
2.424122e+003,9.163694e-003
2.426050e+003,9.255107e-003
2.427979e+003,9.334183e-003
2.429907e+003,9.389098e-003
2.431835e+003,9.425327e-003
2.433764e+003,9.382157e-003
2.435692e+003,9.386389e-003
2.437621e+003,9.479441e-003
2.439550e+003,9.495663e-003
2.441478e+003,9.442157e-003
2.443406e+003,9.453704e-003
2.445335e+003,9.395463e-003
2.447263e+003,9.284759e-003
2.449192e+003,9.232735e-003
2.451121e+003,9.365601e-003
2.453049e+003,9.306661e-003
2.454978e+003,9.165217e-003
2.456906e+003,9.013908e-003
2.458834e+003,8.978017e-003
2.460763e+003,9.072707e-003
2.462691e+003,9.248000e-003
2.464620e+003,9.259034e-003
2.466549e+003,9.142071e-003
2.468477e+003,9.264789e-003
2.470406e+003,9.267429e-003
2.472334e+003,9.067733e-003
2.474262e+003,8.962457e-003
2.476191e+003,8.962998e-003
2.478119e+003,9.078188e-003
2.480048e+003,9.059241e-003
2.481977e+003,8.958973e-003
2.483905e+003,8.947507e-003
2.485833e+003,9.021012e-003
2.487762e+003,9.227455e-003
2.489690e+003,9.242211e-003
2.491619e+003,9.175133e-003
2.493547e+003,9.114697e-003
2.495476e+003,9.158010e-003
2.497405e+003,9.203662e-003
2.499333e+003,9.281036e-003
2.501261e+003,9.249895e-003
2.503190e+003,9.208942e-003
2.505118e+003,9.301414e-003
2.507047e+003,9.253889e-003
2.508975e+003,9.308827e-003
2.510904e+003,9.324027e-003
2.512833e+003,9.378263e-003
2.514761e+003,9.441785e-003
2.516689e+003,9.496950e-003
2.518618e+003,9.552934e-003
2.520546e+003,9.508736e-003
2.522475e+003,9.426039e-003
2.524403e+003,9.428442e-003
2.526332e+003,9.338008e-003
2.528260e+003,9.321522e-003
2.530189e+003,9.456311e-003
2.532117e+003,9.540605e-003
2.534046e+003,9.541960e-003
2.535974e+003,9.510394e-003
2.537903e+003,9.417336e-003
2.539831e+003,9.423940e-003
2.541760e+003,9.586502e-003
2.543688e+003,9.544535e-003
2.545617e+003,9.553679e-003
2.547545e+003,9.674582e-003
2.549474e+003,9.705991e-003
2.551402e+003,9.651206e-003
2.553331e+003,9.714529e-003
2.555259e+003,9.729167e-003
2.557188e+003,9.667908e-003
2.559116e+003,9.652323e-003
2.561045e+003,9.768543e-003
2.562973e+003,9.805007e-003
2.564902e+003,9.710496e-003
2.566830e+003,9.888521e-003
2.568759e+003,9.981172e-003
2.570687e+003,9.926624e-003
2.572616e+003,9.808294e-003
2.574544e+003,9.795180e-003
2.576473e+003,9.830799e-003
2.578401e+003,9.922861e-003
2.580330e+003,9.930387e-003
2.582258e+003,1.006764e-002
2.584187e+003,1.010637e-002
2.586115e+003,1.004387e-002
2.588044e+003,1.001545e-002
2.589972e+003,9.985750e-003
2.591901e+003,9.969170e-003
2.593829e+003,9.995752e-003
2.595758e+003,1.003827e-002
2.597686e+003,9.995548e-003
2.599615e+003,1.004936e-002
2.601543e+003,1.013533e-002
2.603472e+003,1.016935e-002
2.605400e+003,1.015585e-002
2.607329e+003,1.025304e-002
2.609257e+003,1.032479e-002
2.611186e+003,1.032568e-002
2.613114e+003,1.037932e-002
2.615043e+003,1.034814e-002
2.616971e+003,1.038251e-002
2.618900e+003,1.046458e-002
2.620828e+003,1.046013e-002
2.622757e+003,1.044615e-002
2.624685e+003,1.047758e-002
2.626614e+003,1.048484e-002
2.628542e+003,1.046577e-002
2.630471e+003,1.057063e-002
2.632399e+003,1.063571e-002
2.634328e+003,1.062746e-002
2.636256e+003,1.056261e-002
2.638185e+003,1.059575e-002
2.640113e+003,1.066325e-002
2.642042e+003,1.064359e-002
2.643970e+003,1.060332e-002
2.645899e+003,1.061283e-002
2.647827e+003,1.068852e-002
2.649756e+003,1.071219e-002
2.651684e+003,1.069280e-002
2.653613e+003,1.068855e-002
2.655541e+003,1.072978e-002
2.657470e+003,1.078097e-002
2.659398e+003,1.076347e-002
2.661327e+003,1.078715e-002
2.663255e+003,1.083769e-002
2.665184e+003,1.084561e-002
2.667112e+003,1.083450e-002
2.669041e+003,1.086854e-002
2.670969e+003,1.091115e-002
2.672898e+003,1.090061e-002
2.674826e+003,1.093109e-002
2.676755e+003,1.089711e-002
2.678683e+003,1.087462e-002
2.680612e+003,1.088478e-002
2.682540e+003,1.088189e-002
2.684469e+003,1.083138e-002
2.686397e+003,1.081229e-002
2.688326e+003,1.083066e-002
2.690254e+003,1.085985e-002
2.692183e+003,1.088386e-002
2.694111e+003,1.086552e-002
2.696040e+003,1.089783e-002
2.697968e+003,1.087078e-002
2.699897e+003,1.090225e-002
2.701825e+003,1.096833e-002
2.703754e+003,1.100092e-002
2.705682e+003,1.095026e-002
2.707611e+003,1.098013e-002
2.709539e+003,1.104351e-002
2.711468e+003,1.099525e-002
2.713396e+003,1.100877e-002
2.715325e+003,1.102849e-002
2.717253e+003,1.099049e-002
2.719182e+003,1.093830e-002
2.721110e+003,1.093514e-002
2.723039e+003,1.097982e-002
2.724967e+003,1.098916e-002
2.726896e+003,1.097374e-002
2.728824e+003,1.096820e-002
2.730753e+003,1.100354e-002
2.732681e+003,1.102566e-002
2.734610e+003,1.101295e-002
2.736538e+003,1.102210e-002
2.738467e+003,1.100928e-002
2.740395e+003,1.099491e-002
2.742324e+003,1.096813e-002
2.744252e+003,1.096215e-002
2.746181e+003,1.098322e-002
2.748109e+003,1.100860e-002
2.750038e+003,1.101659e-002
2.751966e+003,1.100296e-002
2.753895e+003,1.102502e-002
2.755823e+003,1.103583e-002
2.757752e+003,1.103742e-002
2.759680e+003,1.109225e-002
2.761609e+003,1.110177e-002
2.763537e+003,1.110336e-002
2.765466e+003,1.108749e-002
2.767394e+003,1.110788e-002
2.769323e+003,1.110972e-002
2.771251e+003,1.113804e-002
2.773180e+003,1.118485e-002
2.775108e+003,1.125323e-002
2.777037e+003,1.122585e-002
2.778965e+003,1.121593e-002
2.780894e+003,1.123085e-002
2.782822e+003,1.128488e-002
2.784750e+003,1.134035e-002
2.786679e+003,1.133773e-002
2.788608e+003,1.136358e-002
2.790536e+003,1.138345e-002
2.792465e+003,1.137334e-002
2.794393e+003,1.138505e-002
2.796322e+003,1.141454e-002
2.798250e+003,1.142702e-002
2.800178e+003,1.140641e-002
2.802107e+003,1.141944e-002
2.804036e+003,1.146107e-002
2.805964e+003,1.149894e-002
2.807893e+003,1.153045e-002
2.809821e+003,1.154191e-002
2.811750e+003,1.155882e-002
2.813678e+003,1.162862e-002
2.815606e+003,1.166201e-002
2.817535e+003,1.166763e-002
2.819464e+003,1.167402e-002
2.821392e+003,1.169959e-002
2.823321e+003,1.173894e-002
2.825249e+003,1.173397e-002
2.827177e+003,1.178326e-002
2.829106e+003,1.182800e-002
2.831034e+003,1.181904e-002
2.832963e+003,1.189872e-002
2.834892e+003,1.200775e-002
2.836820e+003,1.202771e-002
2.838749e+003,1.208876e-002
2.840677e+003,1.216927e-002
2.842605e+003,1.227049e-002
2.844534e+003,1.234067e-002
2.846462e+003,1.242972e-002
2.848391e+003,1.255661e-002
2.850320e+003,1.266573e-002
2.852248e+003,1.266788e-002
2.854177e+003,1.272338e-002
2.856105e+003,1.275901e-002
2.858033e+003,1.279060e-002
2.859962e+003,1.283722e-002
2.861890e+003,1.287828e-002
2.863819e+003,1.294194e-002
2.865748e+003,1.299325e-002
2.867676e+003,1.304392e-002
2.869604e+003,1.306177e-002
2.871533e+003,1.307168e-002
2.873461e+003,1.309114e-002
2.875390e+003,1.312133e-002
2.877319e+003,1.314107e-002
2.879247e+003,1.312693e-002
2.881176e+003,1.312481e-002
2.883104e+003,1.314984e-002
2.885032e+003,1.317737e-002
2.886961e+003,1.318895e-002
2.888889e+003,1.326099e-002
2.890818e+003,1.327059e-002
2.892747e+003,1.328118e-002
2.894675e+003,1.326779e-002
2.896604e+003,1.327756e-002
2.898532e+003,1.329918e-002
2.900460e+003,1.325956e-002
2.902389e+003,1.322625e-002
2.904317e+003,1.330021e-002
2.906246e+003,1.338074e-002
2.908175e+003,1.336342e-002
2.910103e+003,1.336656e-002
2.912031e+003,1.335682e-002
2.913960e+003,1.338054e-002
2.915888e+003,1.340907e-002
2.917817e+003,1.336250e-002
2.919745e+003,1.332249e-002
2.921674e+003,1.327869e-002
2.923603e+003,1.327797e-002
2.925531e+003,1.327585e-002
2.927459e+003,1.327329e-002
2.929388e+003,1.323790e-002
2.931316e+003,1.323595e-002
2.933245e+003,1.317601e-002
2.935173e+003,1.307224e-002
2.937102e+003,1.301946e-002
2.939031e+003,1.297492e-002
2.940959e+003,1.287705e-002
2.942887e+003,1.280527e-002
2.944816e+003,1.270285e-002
2.946744e+003,1.260599e-002
2.948673e+003,1.253671e-002
2.950601e+003,1.248623e-002
2.952530e+003,1.248639e-002
2.954458e+003,1.242612e-002
2.956387e+003,1.237855e-002
2.958315e+003,1.230931e-002
2.960244e+003,1.225053e-002
2.962172e+003,1.222656e-002
2.964101e+003,1.217300e-002
2.966029e+003,1.215609e-002
2.967958e+003,1.215597e-002
2.969886e+003,1.207377e-002
2.971815e+003,1.199086e-002
2.973743e+003,1.194533e-002
2.975672e+003,1.187604e-002
2.977600e+003,1.185731e-002
2.979529e+003,1.182495e-002
2.981457e+003,1.178645e-002
2.983386e+003,1.176430e-002
2.985314e+003,1.170506e-002
2.987243e+003,1.161197e-002
2.989171e+003,1.161853e-002
2.991100e+003,1.171675e-002
2.993028e+003,1.171297e-002
2.994957e+003,1.165468e-002
2.996885e+003,1.159689e-002
2.998814e+003,1.158925e-002
3.000742e+003,1.160749e-002
3.002671e+003,1.167313e-002
3.004599e+003,1.165810e-002
3.006528e+003,1.163301e-002
3.008456e+003,1.162162e-002
3.010385e+003,1.160811e-002
3.012313e+003,1.159542e-002
3.014242e+003,1.167371e-002
3.016170e+003,1.172513e-002
3.018099e+003,1.174519e-002
3.020027e+003,1.179166e-002
3.021956e+003,1.179517e-002
3.023884e+003,1.184444e-002
3.025813e+003,1.177940e-002
3.027741e+003,1.178935e-002
3.029670e+003,1.189568e-002
3.031598e+003,1.188209e-002
3.033527e+003,1.192350e-002
3.035455e+003,1.193349e-002
3.037384e+003,1.197308e-002
3.039312e+003,1.195764e-002
3.041241e+003,1.199846e-002
3.043169e+003,1.208412e-002
3.045098e+003,1.208301e-002
3.047026e+003,1.211936e-002
3.048955e+003,1.216505e-002
3.050883e+003,1.216009e-002
3.052812e+003,1.219670e-002
3.054740e+003,1.227127e-002
3.056669e+003,1.223760e-002
3.058597e+003,1.227195e-002
3.060526e+003,1.235175e-002
3.062454e+003,1.241049e-002
3.064383e+003,1.239280e-002
3.066311e+003,1.238275e-002
3.068240e+003,1.242348e-002
3.070168e+003,1.239915e-002
3.072097e+003,1.237567e-002
3.074025e+003,1.243512e-002
3.075954e+003,1.243904e-002
3.077882e+003,1.254836e-002
3.079811e+003,1.263604e-002
3.081739e+003,1.266683e-002
3.083668e+003,1.253899e-002
3.085596e+003,1.252037e-002
3.087525e+003,1.265530e-002
3.089453e+003,1.268570e-002
3.091382e+003,1.265178e-002
3.093310e+003,1.265488e-002
3.095239e+003,1.268882e-002
3.097167e+003,1.279202e-002
3.099096e+003,1.286292e-002
3.101024e+003,1.288903e-002
3.102953e+003,1.287060e-002
3.104881e+003,1.282210e-002
3.106810e+003,1.285699e-002
3.108738e+003,1.291651e-002
3.110667e+003,1.298218e-002
3.112595e+003,1.295184e-002
3.114524e+003,1.293345e-002
3.116452e+003,1.307772e-002
3.118381e+003,1.315773e-002
3.120309e+003,1.310526e-002
3.122238e+003,1.312187e-002
3.124166e+003,1.322170e-002
3.126095e+003,1.327463e-002
3.128023e+003,1.332519e-002
3.129952e+003,1.339570e-002
3.131880e+003,1.338628e-002
3.133809e+003,1.340989e-002
3.135737e+003,1.348348e-002
3.137666e+003,1.352029e-002
3.139594e+003,1.355460e-002
3.141523e+003,1.359514e-002
3.143451e+003,1.363908e-002
3.145380e+003,1.367624e-002
3.147308e+003,1.368414e-002
3.149237e+003,1.371057e-002
3.151165e+003,1.371197e-002
3.153094e+003,1.381053e-002
3.155022e+003,1.392929e-002
3.156951e+003,1.403394e-002
3.158879e+003,1.408172e-002
3.160808e+003,1.408746e-002
3.162736e+003,1.409128e-002
3.164665e+003,1.412676e-002
3.166593e+003,1.421584e-002
3.168522e+003,1.425861e-002
3.170450e+003,1.429818e-002
3.172379e+003,1.429435e-002
3.174307e+003,1.436410e-002
3.176236e+003,1.444983e-002
3.178164e+003,1.452353e-002
3.180093e+003,1.459024e-002
3.182021e+003,1.454568e-002
3.183950e+003,1.451393e-002
3.185878e+003,1.459628e-002
3.187807e+003,1.472703e-002
3.189735e+003,1.479564e-002
3.191664e+003,1.485556e-002
3.193592e+003,1.492426e-002
3.195521e+003,1.502415e-002
3.197449e+003,1.500129e-002
3.199378e+003,1.500464e-002
3.201306e+003,1.511287e-002
3.203235e+003,1.513440e-002
3.205163e+003,1.516200e-002
3.207092e+003,1.526585e-002
3.209020e+003,1.524682e-002
3.210948e+003,1.530859e-002
3.212877e+003,1.534961e-002
3.214806e+003,1.536564e-002
3.216734e+003,1.541977e-002
3.218663e+003,1.541796e-002
3.220591e+003,1.555073e-002
3.222520e+003,1.566075e-002
3.224448e+003,1.565985e-002
3.226376e+003,1.570810e-002
3.228305e+003,1.580597e-002
3.230234e+003,1.591124e-002
3.232162e+003,1.596989e-002
3.234091e+003,1.598492e-002
3.236019e+003,1.602598e-002
3.237948e+003,1.605339e-002
3.239876e+003,1.606098e-002
3.241804e+003,1.608948e-002
3.243733e+003,1.611580e-002
3.245662e+003,1.612674e-002
3.247590e+003,1.620628e-002
3.249519e+003,1.630530e-002
3.251447e+003,1.640674e-002
3.253375e+003,1.647050e-002
3.255304e+003,1.659628e-002
3.257232e+003,1.664171e-002
3.259161e+003,1.665521e-002
3.261090e+003,1.670031e-002
3.263018e+003,1.676810e-002
3.264947e+003,1.686618e-002
3.266875e+003,1.691754e-002
3.268803e+003,1.689621e-002
3.270732e+003,1.690723e-002
3.272660e+003,1.702172e-002
3.274589e+003,1.705308e-002
3.276518e+003,1.701070e-002
3.278446e+003,1.700500e-002
3.280375e+003,1.705853e-002
3.282303e+003,1.710720e-002
3.284231e+003,1.709933e-002
3.286160e+003,1.714987e-002
3.288088e+003,1.715649e-002
3.290017e+003,1.714780e-002
3.291946e+003,1.715357e-002
3.293874e+003,1.720996e-002
3.295802e+003,1.713963e-002
3.297731e+003,1.703298e-002
3.299659e+003,1.702824e-002
3.301588e+003,1.704238e-002
3.303516e+003,1.705402e-002
3.305445e+003,1.703190e-002
3.307374e+003,1.704234e-002
3.309302e+003,1.705632e-002
3.311230e+003,1.708709e-002
3.313159e+003,1.707342e-002
3.315087e+003,1.716916e-002
3.317016e+003,1.717780e-002
3.318944e+003,1.706741e-002
3.320873e+003,1.697836e-002
3.322802e+003,1.704745e-002
3.324730e+003,1.721326e-002
3.326658e+003,1.724858e-002
3.328587e+003,1.712324e-002
3.330515e+003,1.715859e-002
3.332444e+003,1.719503e-002
3.334372e+003,1.715445e-002
3.336301e+003,1.713907e-002
3.338229e+003,1.710117e-002
3.340158e+003,1.704801e-002
3.342086e+003,1.703605e-002
3.344015e+003,1.697109e-002
3.345943e+003,1.696701e-002
3.347872e+003,1.701113e-002
3.349800e+003,1.701625e-002
3.351729e+003,1.684627e-002
3.353657e+003,1.672328e-002
3.355586e+003,1.672827e-002
3.357514e+003,1.671967e-002
3.359443e+003,1.663596e-002
3.361371e+003,1.657587e-002
3.363300e+003,1.662148e-002
3.365229e+003,1.660876e-002
3.367157e+003,1.644690e-002
3.369085e+003,1.638456e-002
3.371014e+003,1.638971e-002
3.372942e+003,1.629813e-002
3.374871e+003,1.628099e-002
3.376799e+003,1.632022e-002
3.378728e+003,1.625544e-002
3.380656e+003,1.624675e-002
3.382585e+003,1.628188e-002
3.384513e+003,1.617494e-002
3.386442e+003,1.604102e-002
3.388370e+003,1.604447e-002
3.390299e+003,1.601286e-002
3.392227e+003,1.590825e-002
3.394156e+003,1.585291e-002
3.396084e+003,1.586234e-002
3.398013e+003,1.587125e-002
3.399941e+003,1.580318e-002
3.401870e+003,1.582698e-002
3.403798e+003,1.578693e-002
3.405727e+003,1.575375e-002
3.407655e+003,1.568724e-002
3.409584e+003,1.555596e-002
3.411512e+003,1.546729e-002
3.413441e+003,1.540263e-002
3.415369e+003,1.535608e-002
3.417298e+003,1.532713e-002
3.419226e+003,1.521644e-002
3.421155e+003,1.517651e-002
3.423083e+003,1.511294e-002
3.425012e+003,1.502700e-002
3.426940e+003,1.500473e-002
3.428869e+003,1.492525e-002
3.430797e+003,1.484276e-002
3.432726e+003,1.480898e-002
3.434654e+003,1.469033e-002
3.436583e+003,1.462273e-002
3.438511e+003,1.463430e-002
3.440440e+003,1.453641e-002
3.442368e+003,1.444661e-002
3.444297e+003,1.435312e-002
3.446225e+003,1.433163e-002
3.448154e+003,1.416516e-002
3.450082e+003,1.406171e-002
3.452011e+003,1.397679e-002
3.453939e+003,1.385871e-002
3.455868e+003,1.386056e-002
3.457796e+003,1.389288e-002
3.459725e+003,1.375539e-002
3.461653e+003,1.361022e-002
3.463582e+003,1.354696e-002
3.465510e+003,1.346412e-002
3.467439e+003,1.348355e-002
3.469367e+003,1.345030e-002
3.471296e+003,1.323144e-002
3.473224e+003,1.319871e-002
3.475153e+003,1.323865e-002
3.477081e+003,1.316681e-002
3.479010e+003,1.297488e-002
3.480938e+003,1.289929e-002
3.482867e+003,1.285824e-002
3.484795e+003,1.281917e-002
3.486724e+003,1.282372e-002
3.488652e+003,1.272725e-002
3.490581e+003,1.263752e-002
3.492509e+003,1.259249e-002
3.494438e+003,1.253166e-002
3.496366e+003,1.234246e-002
3.498295e+003,1.229499e-002
3.500223e+003,1.228335e-002
3.502152e+003,1.212359e-002
3.504080e+003,1.206220e-002
3.506009e+003,1.206067e-002
3.507937e+003,1.201643e-002
3.509866e+003,1.198730e-002
3.511794e+003,1.191692e-002
3.513723e+003,1.174062e-002
3.515651e+003,1.161415e-002
3.517580e+003,1.156154e-002
3.519508e+003,1.152867e-002
3.521437e+003,1.149591e-002
3.523365e+003,1.144579e-002
3.525294e+003,1.143731e-002
3.527222e+003,1.132056e-002
3.529151e+003,1.123747e-002
3.531079e+003,1.125988e-002
3.533008e+003,1.114465e-002
3.534936e+003,1.099724e-002
3.536865e+003,1.092007e-002
3.538793e+003,1.087031e-002
3.540722e+003,1.089677e-002
3.542650e+003,1.083029e-002
3.544579e+003,1.075757e-002
3.546507e+003,1.084982e-002
3.548436e+003,1.087316e-002
3.550364e+003,1.068219e-002
3.552293e+003,1.053018e-002
3.554221e+003,1.055226e-002
3.556150e+003,1.046895e-002
3.558078e+003,1.033325e-002
3.560007e+003,1.030174e-002
3.561935e+003,1.028569e-002
3.563864e+003,1.014446e-002
3.565792e+003,1.002581e-002
3.567721e+003,1.003115e-002
3.569649e+003,1.008905e-002
3.571578e+003,1.002034e-002
3.573506e+003,9.906451e-003
3.575435e+003,9.953286e-003
3.577363e+003,9.937604e-003
3.579292e+003,9.749775e-003
3.581220e+003,9.633033e-003
3.583149e+003,9.541064e-003
3.585077e+003,9.435429e-003
3.587006e+003,9.448729e-003
3.588934e+003,9.415887e-003
3.590863e+003,9.395694e-003
3.592791e+003,9.419659e-003
3.594720e+003,9.408123e-003
3.596648e+003,9.324209e-003
3.598577e+003,9.201505e-003
3.600505e+003,9.033653e-003
3.602434e+003,8.924336e-003
3.604362e+003,8.990639e-003
3.606291e+003,8.953242e-003
3.608219e+003,8.978357e-003
3.610148e+003,9.055987e-003
3.612076e+003,9.033168e-003
3.614005e+003,9.027850e-003
3.615933e+003,9.009500e-003
3.617862e+003,8.997492e-003
3.619790e+003,8.799641e-003
3.621719e+003,8.738208e-003
3.623647e+003,8.767996e-003
3.625576e+003,8.718240e-003
3.627504e+003,8.754828e-003
3.629433e+003,8.761202e-003
3.631361e+003,8.674609e-003
3.633290e+003,8.634253e-003
3.635218e+003,8.572080e-003
3.637146e+003,8.622608e-003
3.639075e+003,8.581444e-003
3.641004e+003,8.534883e-003
3.642932e+003,8.489720e-003
3.644861e+003,8.500230e-003
3.646789e+003,8.554064e-003
3.648718e+003,8.550740e-003
3.650646e+003,8.488528e-003
3.652574e+003,8.555936e-003
3.654503e+003,8.513207e-003
3.656432e+003,8.421368e-003
3.658360e+003,8.437661e-003
3.660289e+003,8.469250e-003
3.662217e+003,8.502670e-003
3.664146e+003,8.499142e-003
3.666074e+003,8.398308e-003
3.668002e+003,8.373259e-003
3.669931e+003,8.319525e-003
3.671860e+003,8.255024e-003
3.673788e+003,8.175137e-003
3.675717e+003,8.316404e-003
3.677645e+003,8.387455e-003
3.679573e+003,8.311573e-003
3.681502e+003,8.223615e-003
3.683430e+003,8.169839e-003
3.685359e+003,8.175057e-003
3.687288e+003,8.188907e-003
3.689216e+003,8.177791e-003
3.691145e+003,8.203521e-003
3.693073e+003,8.241666e-003
3.695001e+003,8.092658e-003
3.696930e+003,8.004184e-003
3.698858e+003,8.106675e-003
3.700787e+003,8.087666e-003
3.702716e+003,8.161487e-003
3.704644e+003,8.194707e-003
3.706573e+003,8.068329e-003
3.708501e+003,8.100366e-003
3.710429e+003,8.199637e-003
3.712358e+003,8.172846e-003
3.714286e+003,8.236066e-003
3.716215e+003,8.361209e-003
3.718144e+003,8.421162e-003
3.720072e+003,8.356092e-003
3.722000e+003,8.263816e-003
3.723929e+003,8.261237e-003
3.725857e+003,8.166617e-003
3.727786e+003,8.135916e-003
3.729714e+003,8.146012e-003
3.731643e+003,8.145406e-003
3.733572e+003,8.300955e-003
3.735500e+003,8.299395e-003
3.737428e+003,8.219011e-003
3.739357e+003,8.228686e-003
3.741285e+003,8.294337e-003
3.743214e+003,8.312863e-003
3.745142e+003,8.297718e-003
3.747071e+003,8.276932e-003
3.749000e+003,8.357372e-003
3.750928e+003,8.290185e-003
3.752856e+003,8.341596e-003
3.754785e+003,8.331088e-003
3.756713e+003,8.408797e-003
3.758642e+003,8.481658e-003
3.760570e+003,8.421857e-003
3.762499e+003,8.440753e-003
3.764427e+003,8.445944e-003
3.766356e+003,8.378545e-003
3.768284e+003,8.432777e-003
3.770213e+003,8.447944e-003
3.772141e+003,8.371686e-003
3.774070e+003,8.317878e-003
3.775998e+003,8.349270e-003
3.777927e+003,8.401551e-003
3.779855e+003,8.398947e-003
3.781784e+003,8.311900e-003
3.783712e+003,8.284809e-003
3.785641e+003,8.422331e-003
3.787569e+003,8.378063e-003
3.789498e+003,8.371633e-003
3.791426e+003,8.417037e-003
3.793355e+003,8.325722e-003
3.795283e+003,8.303554e-003
3.797212e+003,8.427575e-003
3.799140e+003,8.447244e-003
3.801069e+003,8.464566e-003
3.802997e+003,8.443466e-003
3.804926e+003,8.438583e-003
3.806854e+003,8.343866e-003
3.808783e+003,8.313257e-003
3.810711e+003,8.363465e-003
3.812640e+003,8.459292e-003
3.814568e+003,8.553922e-003
3.816497e+003,8.589350e-003
3.818425e+003,8.476580e-003
3.820354e+003,8.399452e-003
3.822282e+003,8.386864e-003
3.824211e+003,8.318615e-003
3.826139e+003,8.341905e-003
3.828068e+003,8.439090e-003
3.829996e+003,8.465225e-003
3.831925e+003,8.527495e-003
3.833853e+003,8.374938e-003
3.835782e+003,8.262203e-003
3.837710e+003,8.350296e-003
3.839639e+003,8.378291e-003
3.841567e+003,8.474203e-003
3.843496e+003,8.514204e-003
3.845424e+003,8.410892e-003
3.847353e+003,8.446791e-003
3.849281e+003,8.487109e-003
3.851210e+003,8.428447e-003
3.853138e+003,8.364036e-003
3.855067e+003,8.388319e-003
3.856995e+003,8.384978e-003
3.858924e+003,8.380864e-003
3.860852e+003,8.400323e-003
3.862781e+003,8.470685e-003
3.864709e+003,8.368910e-003
3.866638e+003,8.451482e-003
3.868566e+003,8.487405e-003
3.870495e+003,8.460384e-003
3.872423e+003,8.429880e-003
3.874352e+003,8.382420e-003
3.876280e+003,8.376506e-003
3.878209e+003,8.490311e-003
3.880137e+003,8.511344e-003
3.882066e+003,8.547137e-003
3.883994e+003,8.554590e-003
3.885923e+003,8.526121e-003
3.887851e+003,8.569152e-003
3.889780e+003,8.502404e-003
3.891708e+003,8.405536e-003
3.893637e+003,8.508048e-003
3.895565e+003,8.514393e-003
3.897494e+003,8.499787e-003
3.899422e+003,8.540146e-003
3.901351e+003,8.507960e-003
3.903279e+003,8.545202e-003
3.905208e+003,8.484665e-003
3.907136e+003,8.566964e-003
3.909065e+003,8.661087e-003
3.910993e+003,8.556721e-003
3.912922e+003,8.414108e-003
3.914850e+003,8.514733e-003
3.916779e+003,8.530056e-003
3.918707e+003,8.507892e-003
3.920636e+003,8.490911e-003
3.922564e+003,8.526377e-003
3.924493e+003,8.601652e-003
3.926421e+003,8.560806e-003
3.928350e+003,8.512679e-003
3.930278e+003,8.505073e-003
3.932207e+003,8.474853e-003
3.934135e+003,8.525731e-003
3.936064e+003,8.572346e-003
3.937992e+003,8.577326e-003
3.939921e+003,8.487528e-003
3.941849e+003,8.459379e-003
3.943778e+003,8.476374e-003
3.945706e+003,8.478904e-003
3.947635e+003,8.535909e-003
3.949563e+003,8.550473e-003
3.951492e+003,8.531913e-003
3.953420e+003,8.527824e-003
3.955349e+003,8.473016e-003
3.957277e+003,8.472405e-003
3.959206e+003,8.534275e-003
3.961134e+003,8.531003e-003
3.963063e+003,8.512270e-003
3.964991e+003,8.524254e-003
3.966920e+003,8.505256e-003
3.968848e+003,8.454214e-003
3.970777e+003,8.358696e-003
3.972705e+003,8.406177e-003
3.974634e+003,8.475238e-003
3.976562e+003,8.526231e-003
3.978491e+003,8.576354e-003
3.980419e+003,8.603686e-003
3.982348e+003,8.567651e-003
3.984276e+003,8.538358e-003
3.986205e+003,8.572094e-003
3.988133e+003,8.479984e-003
3.990062e+003,8.480085e-003
3.991990e+003,8.564314e-003
3.993919e+003,8.510607e-003
3.995847e+003,8.491732e-003
3.997776e+003,8.487801e-003
3.999704e+003,8.488119e-003
4.001633e+003,0.000000e+000
