3.991989e+002,4.896012e-002
4.011274e+002,5.037112e-002
4.030559e+002,5.037112e-002
4.049844e+002,4.974364e-002
4.069129e+002,4.857802e-002
4.088414e+002,4.580620e-002
4.107699e+002,4.528837e-002
4.126984e+002,4.470008e-002
4.146269e+002,4.418793e-002
4.165554e+002,4.517351e-002
4.184839e+002,4.524910e-002
4.204124e+002,4.591865e-002
4.223409e+002,4.650922e-002
4.242694e+002,4.662684e-002
4.261979e+002,4.685966e-002
4.281264e+002,4.735623e-002
4.300549e+002,4.662186e-002
4.319834e+002,4.594655e-002
4.339119e+002,4.469597e-002
4.358404e+002,4.413992e-002
4.377689e+002,4.506293e-002
4.396974e+002,4.554499e-002
4.416259e+002,4.497211e-002
4.435544e+002,4.510500e-002
4.454829e+002,4.559776e-002
4.474114e+002,4.550991e-002
4.493399e+002,4.521487e-002
4.512684e+002,4.456450e-002
4.531969e+002,4.470809e-002
4.551254e+002,4.479442e-002
4.570539e+002,4.523560e-002
4.589824e+002,4.540796e-002
4.609109e+002,4.429349e-002
4.628394e+002,4.367966e-002
4.647679e+002,4.341172e-002
4.666964e+002,4.312544e-002
4.686249e+002,4.238195e-002
4.705533e+002,4.215242e-002
4.724819e+002,4.151127e-002
4.744103e+002,4.104338e-002
4.763389e+002,4.050390e-002
4.782673e+002,4.037667e-002
4.801959e+002,3.957281e-002
4.821243e+002,3.881706e-002
4.840529e+002,3.818947e-002
4.859813e+002,3.751348e-002
4.879099e+002,3.690563e-002
4.898383e+002,3.609371e-002
4.917668e+002,3.642334e-002
4.936953e+002,3.592236e-002
4.956238e+002,3.508375e-002
4.975523e+002,3.488747e-002
4.994808e+002,3.476370e-002
5.014093e+002,3.471302e-002
5.033378e+002,3.402276e-002
5.052663e+002,3.350916e-002
5.071948e+002,3.322669e-002
5.091233e+002,3.371621e-002
5.110518e+002,3.375454e-002
5.129803e+002,3.375426e-002
5.149088e+002,3.390748e-002
5.168373e+002,3.413229e-002
5.187658e+002,3.431090e-002
5.206943e+002,3.434638e-002
5.226228e+002,3.431072e-002
5.245513e+002,3.456817e-002
5.264798e+002,3.425549e-002
5.284083e+002,3.386794e-002
5.303368e+002,3.398746e-002
5.322653e+002,3.345127e-002
5.341938e+002,3.338293e-002
5.361223e+002,3.373370e-002
5.380508e+002,3.359456e-002
5.399792e+002,3.325730e-002
5.419078e+002,3.348329e-002
5.438363e+002,3.335912e-002
5.457648e+002,3.294124e-002
5.476932e+002,3.282950e-002
5.496218e+002,3.302279e-002
5.515503e+002,3.317579e-002
5.534788e+002,3.312773e-002
5.554072e+002,3.318192e-002
5.573358e+002,3.342021e-002
5.592643e+002,3.359896e-002
5.611927e+002,3.333738e-002
5.631212e+002,3.345899e-002
5.650497e+002,3.319554e-002
5.669783e+002,3.277611e-002
5.689067e+002,3.263476e-002
5.708352e+002,3.268677e-002
5.727637e+002,3.290202e-002
5.746923e+002,3.289641e-002
5.766207e+002,3.258388e-002
5.785492e+002,3.211017e-002
5.804777e+002,3.182812e-002
5.824063e+002,3.166564e-002
5.843347e+002,3.152831e-002
5.862632e+002,3.137093e-002
5.881917e+002,3.115101e-002
5.901202e+002,3.115715e-002
5.920487e+002,3.130941e-002
5.939772e+002,3.111559e-002
5.959057e+002,3.091022e-002
5.978342e+002,3.061069e-002
5.997627e+002,3.042931e-002
6.016912e+002,3.053785e-002
6.036197e+002,3.038843e-002
6.055482e+002,3.028365e-002
6.074767e+002,3.026043e-002
6.094052e+002,3.012635e-002
6.113337e+002,2.983220e-002
6.132622e+002,2.966339e-002
6.151907e+002,2.933964e-002
6.171192e+002,2.909310e-002
6.190477e+002,2.888160e-002
6.209762e+002,2.868235e-002
6.229047e+002,2.852899e-002
6.248332e+002,2.833191e-002
6.267617e+002,2.798778e-002
6.286902e+002,2.752335e-002
6.306187e+002,2.735229e-002
6.325472e+002,2.735173e-002
6.344756e+002,2.733064e-002
6.364042e+002,2.708250e-002
6.383326e+002,2.686055e-002
6.402612e+002,2.659396e-002
6.421896e+002,2.653168e-002
6.441182e+002,2.640803e-002
6.460466e+002,2.629952e-002
6.479752e+002,2.611131e-002
6.499036e+002,2.601103e-002
6.518322e+002,2.576719e-002
6.537606e+002,2.569038e-002
6.556891e+002,2.563195e-002
6.576177e+002,2.563433e-002
6.595461e+002,2.542035e-002
6.614746e+002,2.561338e-002
6.634031e+002,2.566012e-002
6.653317e+002,2.546511e-002
6.672601e+002,2.524122e-002
6.691886e+002,2.510007e-002
6.711171e+002,2.479803e-002
6.730457e+002,2.444578e-002
6.749741e+002,2.403672e-002
6.769026e+002,2.353652e-002
6.788311e+002,2.315984e-002
6.807596e+002,2.279923e-002
6.826881e+002,2.260445e-002
6.846166e+002,2.268847e-002
6.865451e+002,2.249737e-002
6.884736e+002,2.222887e-002
6.904021e+002,2.225183e-002
6.923306e+002,2.241902e-002
6.942591e+002,2.242951e-002
6.961876e+002,2.227803e-002
6.981161e+002,2.229185e-002
7.000446e+002,2.237528e-002
7.019731e+002,2.242154e-002
7.039016e+002,2.235992e-002
7.058301e+002,2.218447e-002
7.077585e+002,2.201837e-002
7.096871e+002,2.186859e-002
7.116156e+002,2.173998e-002
7.135441e+002,2.158760e-002
7.154725e+002,2.137705e-002
7.174011e+002,2.126028e-002
7.193296e+002,2.118037e-002
7.212581e+002,2.097340e-002
7.231865e+002,2.084139e-002
7.251151e+002,2.081640e-002
7.270436e+002,2.067521e-002
7.289720e+002,2.046132e-002
7.309005e+002,2.027089e-002
7.328290e+002,2.016326e-002
7.347576e+002,2.008287e-002
7.366860e+002,2.006016e-002
7.386145e+002,1.996893e-002
7.405430e+002,1.984402e-002
7.424716e+002,1.980799e-002
7.444000e+002,1.973811e-002
7.463285e+002,1.970727e-002
7.482570e+002,1.956825e-002
7.501855e+002,1.940796e-002
7.521140e+002,1.933433e-002
7.540425e+002,1.935596e-002
7.559710e+002,1.924684e-002
7.578995e+002,1.918249e-002
7.598280e+002,1.923864e-002
7.617565e+002,1.922527e-002
7.636850e+002,1.920058e-002
7.656135e+002,1.922714e-002
7.675420e+002,1.918811e-002
7.694705e+002,1.915677e-002
7.713990e+002,1.911069e-002
7.733275e+002,1.907146e-002
7.752560e+002,1.911245e-002
7.771844e+002,1.911210e-002
7.791130e+002,1.932406e-002
7.810415e+002,1.943174e-002
7.829700e+002,1.929998e-002
7.848984e+002,1.929950e-002
7.868270e+002,1.932687e-002
7.887555e+002,1.924263e-002
7.906840e+002,1.918195e-002
7.926124e+002,1.915161e-002
7.945410e+002,1.916512e-002
7.964695e+002,1.912367e-002
7.983979e+002,1.899966e-002
8.003264e+002,1.895802e-002
8.022549e+002,1.896806e-002
8.041835e+002,1.889434e-002
8.061119e+002,1.879817e-002
8.080404e+002,1.871386e-002
8.099689e+002,1.869456e-002
8.118975e+002,1.865706e-002
8.138259e+002,1.858571e-002
8.157545e+002,1.857738e-002
8.176830e+002,1.848526e-002
8.196115e+002,1.838590e-002
8.215399e+002,1.826062e-002
8.234684e+002,1.820084e-002
8.253970e+002,1.815544e-002
8.273254e+002,1.821314e-002
8.292539e+002,1.819445e-002
8.311824e+002,1.829303e-002
8.331110e+002,1.831806e-002
8.350394e+002,1.822147e-002
8.369679e+002,1.817658e-002
8.388964e+002,1.814159e-002
8.408250e+002,1.808856e-002
8.427534e+002,1.804908e-002
8.446819e+002,1.800632e-002
8.466104e+002,1.797662e-002
8.485389e+002,1.800052e-002
8.504674e+002,1.800356e-002
8.523959e+002,1.791046e-002
8.543244e+002,1.796177e-002
8.562529e+002,1.810711e-002
8.581814e+002,1.820305e-002
8.601099e+002,1.825239e-002
8.620384e+002,1.832296e-002
8.639669e+002,1.837477e-002
8.658954e+002,1.840751e-002
8.678239e+002,1.847109e-002
8.697524e+002,1.848882e-002
8.716809e+002,1.860214e-002
8.736094e+002,1.867287e-002
8.755378e+002,1.874631e-002
8.774664e+002,1.901105e-002
8.793949e+002,1.914081e-002
8.813234e+002,1.929077e-002
8.832518e+002,1.951782e-002
8.851804e+002,1.982048e-002
8.871089e+002,2.010236e-002
8.890374e+002,2.047253e-002
8.909658e+002,2.088536e-002
8.928943e+002,2.125487e-002
8.948229e+002,2.146976e-002
8.967513e+002,2.156007e-002
8.986798e+002,2.149611e-002
9.006083e+002,2.130815e-002
9.025369e+002,2.110781e-002
9.044653e+002,2.095806e-002
9.063938e+002,2.088393e-002
9.083223e+002,2.093914e-002
9.102509e+002,2.093716e-002
9.121793e+002,2.089575e-002
9.141078e+002,2.099360e-002
9.160364e+002,2.116511e-002
9.179648e+002,2.128100e-002
9.198933e+002,2.144775e-002
9.218218e+002,2.162362e-002
9.237504e+002,2.181099e-002
9.256788e+002,2.194295e-002
9.276073e+002,2.220002e-002
9.295358e+002,2.244611e-002
9.314644e+002,2.265422e-002
9.333928e+002,2.283753e-002
9.353213e+002,2.304879e-002
9.372498e+002,2.331253e-002
9.391783e+002,2.362338e-002
9.411068e+002,2.398833e-002
9.430353e+002,2.434767e-002
9.449637e+002,2.469089e-002
9.468923e+002,2.503249e-002
9.488208e+002,2.549585e-002
9.507493e+002,2.595414e-002
9.526777e+002,2.635732e-002
9.546063e+002,2.676983e-002
9.565348e+002,2.719271e-002
9.584633e+002,2.772725e-002
9.603917e+002,2.811656e-002
9.623203e+002,2.855615e-002
9.642488e+002,2.896767e-002
9.661772e+002,2.926756e-002
9.681057e+002,2.964389e-002
9.700343e+002,3.012470e-002
9.719628e+002,3.055715e-002
9.738912e+002,3.098581e-002
9.758197e+002,3.148535e-002
9.777483e+002,3.205426e-002
9.796768e+002,3.259028e-002
9.816052e+002,3.320940e-002
9.835337e+002,3.384731e-002
9.854623e+002,3.454754e-002
9.873907e+002,3.508797e-002
9.893192e+002,3.555967e-002
9.912477e+002,3.588182e-002
9.931763e+002,3.610079e-002
9.951047e+002,3.630492e-002
9.970332e+002,3.659263e-002
9.989617e+002,3.684146e-002
1.000890e+003,3.718896e-002
1.002819e+003,3.769966e-002
1.004747e+003,3.813691e-002
1.006676e+003,3.853505e-002
1.008604e+003,3.900348e-002
1.010533e+003,3.947590e-002
1.012461e+003,3.994196e-002
1.014390e+003,4.049563e-002
1.016318e+003,4.110289e-002
1.018247e+003,4.163153e-002
1.020175e+003,4.214110e-002
1.022104e+003,4.272708e-002
1.024032e+003,4.326642e-002
1.025961e+003,4.371499e-002
1.027889e+003,4.409829e-002
1.029818e+003,4.447287e-002
1.031746e+003,4.482404e-002
1.033675e+003,4.503408e-002
1.035603e+003,4.508021e-002
1.037532e+003,4.486945e-002
1.039460e+003,4.452470e-002
1.041389e+003,4.417004e-002
1.043317e+003,4.385894e-002
1.045246e+003,4.357137e-002
1.047174e+003,4.325840e-002
1.049103e+003,4.288201e-002
1.051031e+003,4.262308e-002
1.052960e+003,4.236098e-002
1.054888e+003,4.196888e-002
1.056817e+003,4.139995e-002
1.058745e+003,4.088124e-002
1.060674e+003,4.036304e-002
1.062602e+003,3.978779e-002
1.064531e+003,3.912145e-002
1.066459e+003,3.862888e-002
1.068388e+003,3.816824e-002
1.070316e+003,3.775991e-002
1.072245e+003,3.739461e-002
1.074173e+003,3.705658e-002
1.076102e+003,3.663870e-002
1.078030e+003,3.615664e-002
1.079959e+003,3.555679e-002
1.081887e+003,3.497760e-002
1.083816e+003,3.443138e-002
1.085744e+003,3.395227e-002
1.087673e+003,3.355039e-002
1.089601e+003,3.327260e-002
1.091530e+003,3.297976e-002
1.093458e+003,3.262757e-002
1.095387e+003,3.232927e-002
1.097315e+003,3.206282e-002
1.099244e+003,3.184919e-002
1.101172e+003,3.170742e-002
1.103101e+003,3.150013e-002
1.105029e+003,3.120983e-002
1.106958e+003,3.078455e-002
1.108886e+003,3.028983e-002
1.110815e+003,2.964400e-002
1.112743e+003,2.897507e-002
1.114672e+003,2.830781e-002
1.116600e+003,2.765658e-002
1.118529e+003,2.697487e-002
1.120457e+003,2.642848e-002
1.122386e+003,2.593564e-002
1.124314e+003,2.541985e-002
1.126243e+003,2.482956e-002
1.128171e+003,2.422443e-002
1.130100e+003,2.364685e-002
1.132028e+003,2.306371e-002
1.133957e+003,2.259194e-002
1.135885e+003,2.224295e-002
1.137814e+003,2.191329e-002
1.139742e+003,2.175661e-002
1.141671e+003,2.172376e-002
1.143599e+003,2.174546e-002
1.145528e+003,2.182315e-002
1.147456e+003,2.187625e-002
1.149385e+003,2.202556e-002
1.151313e+003,2.214388e-002
1.153242e+003,2.227793e-002
1.155170e+003,2.237424e-002
1.157099e+003,2.242040e-002
1.159027e+003,2.243152e-002
1.160956e+003,2.230353e-002
1.162884e+003,2.206477e-002
1.164813e+003,2.164037e-002
1.166741e+003,2.106128e-002
1.168670e+003,2.048642e-002
1.170598e+003,1.984993e-002
1.172526e+003,1.913451e-002
1.174455e+003,1.852018e-002
1.176384e+003,1.796025e-002
1.178312e+003,1.745777e-002
1.180240e+003,1.696828e-002
1.182169e+003,1.659792e-002
1.184098e+003,1.633362e-002
1.186026e+003,1.605414e-002
1.187954e+003,1.592219e-002
1.189883e+003,1.586634e-002
1.191812e+003,1.584262e-002
1.193740e+003,1.588664e-002
1.195668e+003,1.597459e-002
1.197597e+003,1.612863e-002
1.199526e+003,1.625253e-002
1.201454e+003,1.630810e-002
1.203382e+003,1.630913e-002
1.205311e+003,1.630254e-002
1.207240e+003,1.629692e-002
1.209168e+003,1.625827e-002
1.211096e+003,1.624302e-002
1.213025e+003,1.626571e-002
1.214953e+003,1.633910e-002
1.216882e+003,1.643843e-002
1.218810e+003,1.657255e-002
1.220739e+003,1.672644e-002
1.222667e+003,1.687961e-002
1.224596e+003,1.698280e-002
1.226524e+003,1.709937e-002
1.228453e+003,1.727182e-002
1.230381e+003,1.740695e-002
1.232310e+003,1.749625e-002
1.234238e+003,1.753154e-002
1.236167e+003,1.751928e-002
1.238095e+003,1.742741e-002
1.240024e+003,1.734870e-002
1.241952e+003,1.724925e-002
1.243881e+003,1.712526e-002
1.245809e+003,1.696346e-002
1.247738e+003,1.680344e-002
1.249666e+003,1.660694e-002
1.251595e+003,1.638700e-002
1.253523e+003,1.614710e-002
1.255452e+003,1.591762e-002
1.257380e+003,1.572454e-002
1.259309e+003,1.550632e-002
1.261237e+003,1.528778e-002
1.263166e+003,1.503281e-002
1.265094e+003,1.472367e-002
1.267023e+003,1.445684e-002
1.268951e+003,1.426112e-002
1.270880e+003,1.403187e-002
1.272808e+003,1.381243e-002
1.274737e+003,1.362751e-002
1.276665e+003,1.345859e-002
1.278594e+003,1.334897e-002
1.280522e+003,1.329084e-002
1.282451e+003,1.322020e-002
1.284379e+003,1.311475e-002
1.286308e+003,1.303937e-002
1.288236e+003,1.301112e-002
1.290165e+003,1.294558e-002
1.292093e+003,1.289961e-002
1.294022e+003,1.294799e-002
1.295950e+003,1.300443e-002
1.297879e+003,1.307174e-002
1.299807e+003,1.317499e-002
1.301736e+003,1.327853e-002
1.303664e+003,1.340435e-002
1.305593e+003,1.354777e-002
1.307521e+003,1.367423e-002
1.309450e+003,1.379327e-002
1.311378e+003,1.392655e-002
1.313307e+003,1.407149e-002
1.315235e+003,1.413963e-002
1.317164e+003,1.416185e-002
1.319092e+003,1.414158e-002
1.321021e+003,1.408718e-002
1.322949e+003,1.405069e-002
1.324878e+003,1.398782e-002
1.326806e+003,1.391424e-002
1.328735e+003,1.383933e-002
1.330663e+003,1.382071e-002
1.332592e+003,1.385848e-002
1.334520e+003,1.385064e-002
1.336449e+003,1.379570e-002
1.338377e+003,1.371933e-002
1.340306e+003,1.365775e-002
1.342234e+003,1.358068e-002
1.344163e+003,1.353757e-002
1.346091e+003,1.354066e-002
1.348020e+003,1.357118e-002
1.349948e+003,1.361884e-002
1.351877e+003,1.367641e-002
1.353805e+003,1.378066e-002
1.355734e+003,1.388603e-002
1.357662e+003,1.394768e-002
1.359591e+003,1.407944e-002
1.361519e+003,1.425140e-002
1.363448e+003,1.438132e-002
1.365376e+003,1.444159e-002
1.367305e+003,1.447591e-002
1.369233e+003,1.443193e-002
1.371162e+003,1.437337e-002
1.373090e+003,1.431415e-002
1.375019e+003,1.421580e-002
1.376947e+003,1.408549e-002
1.378876e+003,1.393104e-002
1.380804e+003,1.376806e-002
1.382733e+003,1.354317e-002
1.384661e+003,1.331455e-002
1.386590e+003,1.317679e-002
1.388518e+003,1.304001e-002
1.390447e+003,1.291685e-002
1.392375e+003,1.285264e-002
1.394304e+003,1.279426e-002
1.396232e+003,1.274020e-002
1.398161e+003,1.272036e-002
1.400089e+003,1.275291e-002
1.402018e+003,1.279271e-002
1.403946e+003,1.280143e-002
1.405875e+003,1.283485e-002
1.407803e+003,1.287350e-002
1.409732e+003,1.294020e-002
1.411660e+003,1.301184e-002
1.413589e+003,1.307106e-002
1.415517e+003,1.310311e-002
1.417446e+003,1.316736e-002
1.419374e+003,1.323150e-002
1.421303e+003,1.325929e-002
1.423231e+003,1.328392e-002
1.425160e+003,1.325983e-002
1.427088e+003,1.317167e-002
1.429017e+003,1.308647e-002
1.430945e+003,1.305918e-002
1.432874e+003,1.302177e-002
1.434802e+003,1.291696e-002
1.436731e+003,1.280133e-002
1.438659e+003,1.270943e-002
1.440588e+003,1.265880e-002
1.442516e+003,1.262670e-002
1.444445e+003,1.257544e-002
1.446373e+003,1.255218e-002
1.448302e+003,1.254791e-002
1.450230e+003,1.253134e-002
1.452159e+003,1.250632e-002
1.454087e+003,1.246710e-002
1.456016e+003,1.247318e-002
1.457944e+003,1.236515e-002
1.459873e+003,1.225721e-002
1.461801e+003,1.216995e-002
1.463730e+003,1.208331e-002
1.465658e+003,1.190837e-002
1.467587e+003,1.164811e-002
1.469515e+003,1.139163e-002
1.471444e+003,1.115051e-002
1.473372e+003,1.088496e-002
1.475301e+003,1.068025e-002
1.477229e+003,1.054996e-002
1.479158e+003,1.042880e-002
1.481086e+003,1.036281e-002
1.483015e+003,1.038809e-002
1.484943e+003,1.044477e-002
1.486872e+003,1.049078e-002
1.488800e+003,1.060242e-002
1.490729e+003,1.073730e-002
1.492657e+003,1.081378e-002
1.494586e+003,1.095623e-002
1.496514e+003,1.109815e-002
1.498443e+003,1.123685e-002
1.500371e+003,1.140989e-002
1.502300e+003,1.153241e-002
1.504228e+003,1.161797e-002
1.506157e+003,1.171015e-002
1.508085e+003,1.182406e-002
1.510014e+003,1.194034e-002
1.511942e+003,1.199744e-002
1.513871e+003,1.201122e-002
1.515799e+003,1.198968e-002
1.517728e+003,1.186611e-002
1.519656e+003,1.171469e-002
1.521585e+003,1.159220e-002
1.523513e+003,1.151977e-002
1.525442e+003,1.148717e-002
1.527370e+003,1.147591e-002
1.529299e+003,1.144365e-002
1.531227e+003,1.137939e-002
1.533156e+003,1.138369e-002
1.535084e+003,1.139979e-002
1.537013e+003,1.138521e-002
1.538941e+003,1.139265e-002
1.540870e+003,1.139524e-002
1.542798e+003,1.138982e-002
1.544727e+003,1.137961e-002
1.546655e+003,1.136541e-002
1.548584e+003,1.130203e-002
1.550512e+003,1.122389e-002
1.552441e+003,1.120198e-002
1.554369e+003,1.118974e-002
1.556298e+003,1.110656e-002
1.558226e+003,1.105560e-002
1.560155e+003,1.107712e-002
1.562083e+003,1.110571e-002
1.564012e+003,1.110727e-002
1.565940e+003,1.107178e-002
1.567869e+003,1.109602e-002
1.569797e+003,1.111321e-002
1.571726e+003,1.111411e-002
1.573654e+003,1.114843e-002
1.575583e+003,1.123711e-002
1.577511e+003,1.136557e-002
1.579440e+003,1.149399e-002
1.581368e+003,1.159672e-002
1.583297e+003,1.170178e-002
1.585225e+003,1.182271e-002
1.587154e+003,1.195343e-002
1.589082e+003,1.213173e-002
1.591010e+003,1.223433e-002
1.592939e+003,1.235054e-002
1.594868e+003,1.245985e-002
1.596796e+003,1.252657e-002
1.598724e+003,1.259359e-002
1.600653e+003,1.265591e-002
1.602582e+003,1.276572e-002
1.604510e+003,1.281628e-002
1.606438e+003,1.283853e-002
1.608367e+003,1.290316e-002
1.610296e+003,1.297224e-002
1.612224e+003,1.304665e-002
1.614152e+003,1.319463e-002
1.616081e+003,1.335017e-002
1.618010e+003,1.348331e-002
1.619938e+003,1.364624e-002
1.621866e+003,1.381166e-002
1.623795e+003,1.393254e-002
1.625724e+003,1.402381e-002
1.627652e+003,1.404881e-002
1.629580e+003,1.406008e-002
1.631509e+003,1.405820e-002
1.633438e+003,1.404103e-002
1.635366e+003,1.398871e-002
1.637294e+003,1.390228e-002
1.639223e+003,1.384966e-002
1.641151e+003,1.383887e-002
1.643080e+003,1.382424e-002
1.645008e+003,1.381615e-002
1.646937e+003,1.377327e-002
1.648865e+003,1.375114e-002
1.650794e+003,1.371228e-002
1.652722e+003,1.369086e-002
1.654651e+003,1.363895e-002
1.656579e+003,1.353148e-002
1.658508e+003,1.337904e-002
1.660436e+003,1.325526e-002
1.662365e+003,1.304019e-002
1.664293e+003,1.280943e-002
1.666222e+003,1.264244e-002
1.668150e+003,1.253317e-002
1.670079e+003,1.237933e-002
1.672007e+003,1.220093e-002
1.673936e+003,1.203869e-002
1.675864e+003,1.187438e-002
1.677793e+003,1.170723e-002
1.679721e+003,1.152582e-002
1.681650e+003,1.138671e-002
1.683578e+003,1.130474e-002
1.685507e+003,1.119694e-002
1.687435e+003,1.106614e-002
1.689364e+003,1.092508e-002
1.691292e+003,1.078570e-002
1.693221e+003,1.071505e-002
1.695149e+003,1.067316e-002
1.697078e+003,1.060377e-002
1.699006e+003,1.048834e-002
1.700935e+003,1.040662e-002
1.702863e+003,1.039744e-002
1.704792e+003,1.033450e-002
1.706720e+003,1.031145e-002
1.708649e+003,1.036833e-002
1.710577e+003,1.036272e-002
1.712506e+003,1.040029e-002
1.714434e+003,1.046113e-002
1.716363e+003,1.053318e-002
1.718291e+003,1.067649e-002
1.720220e+003,1.076814e-002
1.722148e+003,1.083585e-002
1.724077e+003,1.083352e-002
1.726005e+003,1.083776e-002
1.727934e+003,1.089069e-002
1.729862e+003,1.091633e-002
1.731791e+003,1.085719e-002
1.733719e+003,1.077425e-002
1.735648e+003,1.069074e-002
1.737576e+003,1.052665e-002
1.739505e+003,1.032294e-002
1.741433e+003,1.006929e-002
1.743362e+003,9.833628e-003
1.745290e+003,9.683010e-003
1.747219e+003,9.513282e-003
1.749147e+003,9.286574e-003
1.751076e+003,9.131968e-003
1.753004e+003,9.007666e-003
1.754933e+003,8.921303e-003
1.756861e+003,8.840094e-003
1.758790e+003,8.720423e-003
1.760718e+003,8.617193e-003
1.762647e+003,8.525112e-003
1.764575e+003,8.409132e-003
1.766504e+003,8.347735e-003
1.768432e+003,8.326266e-003
1.770361e+003,8.289248e-003
1.772289e+003,8.242593e-003
1.774218e+003,8.281985e-003
1.776146e+003,8.333256e-003
1.778075e+003,8.287445e-003
1.780003e+003,8.273554e-003
1.781932e+003,8.209087e-003
1.783860e+003,8.204256e-003
1.785789e+003,8.247578e-003
1.787717e+003,8.209761e-003
1.789646e+003,8.175002e-003
1.791574e+003,8.254104e-003
1.793503e+003,8.290076e-003
1.795431e+003,8.266823e-003
1.797360e+003,8.214896e-003
1.799288e+003,8.203841e-003
1.801217e+003,8.258075e-003
1.803145e+003,8.236445e-003
1.805074e+003,8.236544e-003
1.807002e+003,8.245852e-003
1.808931e+003,8.273245e-003
1.810859e+003,8.270367e-003
1.812788e+003,8.239513e-003
1.814716e+003,8.248490e-003
1.816645e+003,8.272114e-003
1.818573e+003,8.371312e-003
1.820502e+003,8.353166e-003
1.822430e+003,8.327142e-003
1.824359e+003,8.390134e-003
1.826287e+003,8.331602e-003
1.828216e+003,8.257092e-003
1.830144e+003,8.199877e-003
1.832073e+003,8.143870e-003
1.834001e+003,8.178060e-003
1.835930e+003,8.256929e-003
1.837858e+003,8.355263e-003
1.839787e+003,8.397629e-003
1.841715e+003,8.415832e-003
1.843644e+003,8.454296e-003
1.845572e+003,8.426483e-003
1.847501e+003,8.349820e-003
1.849429e+003,8.302141e-003
1.851358e+003,8.296927e-003
1.853286e+003,8.341825e-003
1.855215e+003,8.367691e-003
1.857143e+003,8.383326e-003
1.859072e+003,8.419481e-003
1.861000e+003,8.452144e-003
1.862929e+003,8.367716e-003
1.864857e+003,8.391208e-003
1.866786e+003,8.370823e-003
1.868714e+003,8.339051e-003
1.870643e+003,8.633360e-003
1.872571e+003,8.782127e-003
1.874500e+003,8.702266e-003
1.876428e+003,8.653635e-003
1.878357e+003,8.720709e-003
1.880285e+003,8.892872e-003
1.882214e+003,8.882811e-003
1.884142e+003,8.825769e-003
1.886071e+003,8.841781e-003
1.887999e+003,8.768023e-003
1.889928e+003,8.678854e-003
1.891856e+003,8.744337e-003
1.893785e+003,8.844529e-003
1.895713e+003,8.675787e-003
1.897642e+003,8.843631e-003
1.899570e+003,8.811077e-003
1.901499e+003,8.511946e-003
1.903427e+003,8.674764e-003
1.905356e+003,8.885597e-003
1.907284e+003,8.983401e-003
1.909213e+003,8.870136e-003
1.911141e+003,8.751782e-003
1.913070e+003,8.710677e-003
1.914998e+003,8.814257e-003
1.916927e+003,8.709879e-003
1.918855e+003,8.758011e-003
1.920784e+003,9.013633e-003
1.922712e+003,9.134661e-003
1.924641e+003,9.227037e-003
1.926569e+003,8.961323e-003
1.928498e+003,9.012745e-003
1.930426e+003,9.220851e-003
1.932355e+003,9.109400e-003
1.934283e+003,9.094562e-003
1.936212e+003,9.500076e-003
1.938140e+003,9.482857e-003
1.940069e+003,9.368653e-003
1.941997e+003,9.720536e-003
1.943926e+003,9.681285e-003
1.945854e+003,9.525529e-003
1.947783e+003,9.413941e-003
1.949711e+003,9.040203e-003
1.951640e+003,9.360261e-003
1.953568e+003,9.138703e-003
1.955497e+003,9.464119e-003
1.957425e+003,1.002789e-002
1.959354e+003,9.813313e-003
1.961282e+003,9.811687e-003
1.963211e+003,1.028844e-002
1.965139e+003,1.077950e-002
1.967068e+003,1.064694e-002
1.968996e+003,1.090433e-002
1.970925e+003,1.107292e-002
1.972853e+003,1.092436e-002
1.974782e+003,1.030338e-002
1.976710e+003,9.825033e-003
1.978639e+003,9.771095e-003
1.980567e+003,1.052295e-002
1.982496e+003,1.115897e-002
1.984424e+003,1.115904e-002
1.986353e+003,1.061083e-002
1.988281e+003,9.923227e-003
1.990210e+003,1.020076e-002
1.992138e+003,1.013991e-002
1.994067e+003,1.039255e-002
1.995995e+003,1.105081e-002
1.997924e+003,1.035585e-002
1.999852e+003,1.051093e-002
2.001781e+003,1.152684e-002
2.003709e+003,1.223475e-002
2.005638e+003,1.221490e-002
2.007566e+003,1.201924e-002
2.009495e+003,1.171484e-002
2.011423e+003,1.167995e-002
2.013352e+003,1.231014e-002
2.015280e+003,1.259546e-002
2.017208e+003,1.233776e-002
2.019137e+003,1.152349e-002
2.021066e+003,1.180639e-002
2.022994e+003,1.129998e-002
2.024922e+003,1.140724e-002
2.026851e+003,1.299075e-002
2.028780e+003,1.339264e-002
2.030708e+003,1.316383e-002
2.032636e+003,1.349099e-002
2.034565e+003,1.307839e-002
2.036494e+003,1.212463e-002
2.038422e+003,1.190442e-002
2.040350e+003,1.171758e-002
2.042279e+003,1.133252e-002
2.044208e+003,1.159822e-002
2.046136e+003,1.191981e-002
2.048064e+003,1.103693e-002
2.049993e+003,1.031825e-002
2.051921e+003,1.003175e-002
2.053850e+003,1.033366e-002
2.055778e+003,1.018089e-002
2.057707e+003,1.001576e-002
2.059635e+003,1.052186e-002
2.061564e+003,1.060939e-002
2.063492e+003,1.048356e-002
2.065421e+003,1.063916e-002
2.067349e+003,1.065729e-002
2.069278e+003,1.044895e-002
2.071206e+003,1.021206e-002
2.073135e+003,1.025902e-002
2.075063e+003,9.898433e-003
2.076992e+003,9.738544e-003
2.078920e+003,1.009787e-002
2.080849e+003,9.791237e-003
2.082777e+003,9.622278e-003
2.084706e+003,9.475131e-003
2.086634e+003,9.612133e-003
2.088563e+003,9.777213e-003
2.090491e+003,9.748445e-003
2.092420e+003,9.954052e-003
2.094348e+003,1.001497e-002
2.096277e+003,9.957022e-003
2.098205e+003,9.680240e-003
2.100134e+003,9.672956e-003
2.102062e+003,9.488652e-003
2.103991e+003,9.543790e-003
2.105919e+003,9.221464e-003
2.107848e+003,9.053760e-003
2.109776e+003,9.041107e-003
2.111705e+003,9.343900e-003
2.113633e+003,9.577797e-003
2.115562e+003,9.402201e-003
2.117490e+003,9.317358e-003
2.119419e+003,8.865594e-003
2.121347e+003,8.926131e-003
2.123276e+003,9.193137e-003
2.125204e+003,9.376469e-003
2.127133e+003,9.567533e-003
2.129061e+003,9.526922e-003
2.130990e+003,9.225288e-003
2.132918e+003,9.181123e-003
2.134847e+003,9.636671e-003
2.136775e+003,9.709108e-003
2.138704e+003,9.192156e-003
2.140632e+003,8.853859e-003
2.142561e+003,9.166605e-003
2.144489e+003,9.525770e-003
2.146418e+003,9.395632e-003
2.148346e+003,9.920285e-003
2.150275e+003,1.018421e-002
2.152203e+003,1.015181e-002
2.154132e+003,9.976629e-003
2.156060e+003,9.281544e-003
2.157989e+003,1.025914e-002
2.159917e+003,1.136304e-002
2.161846e+003,1.107610e-002
2.163774e+003,1.010233e-002
2.165703e+003,9.769864e-003
2.167631e+003,9.531020e-003
2.169560e+003,1.060957e-002
2.171488e+003,1.118301e-002
2.173417e+003,1.153034e-002
2.175345e+003,1.110493e-002
2.177274e+003,1.039697e-002
2.179202e+003,1.028995e-002
2.181131e+003,1.151238e-002
2.183059e+003,1.228214e-002
2.184988e+003,1.195124e-002
2.186916e+003,1.117737e-002
2.188845e+003,1.049268e-002
2.190773e+003,1.056116e-002
2.192702e+003,1.020459e-002
2.194630e+003,9.916352e-003
2.196559e+003,1.029212e-002
2.198487e+003,1.098835e-002
2.200416e+003,1.112597e-002
2.202344e+003,1.066247e-002
2.204273e+003,1.029439e-002
2.206201e+003,1.079537e-002
2.208130e+003,1.069161e-002
2.210058e+003,1.056577e-002
2.211987e+003,1.058363e-002
2.213915e+003,1.023807e-002
2.215844e+003,1.048352e-002
2.217772e+003,1.064930e-002
2.219701e+003,1.051835e-002
2.221629e+003,1.050633e-002
2.223558e+003,1.039269e-002
2.225486e+003,1.055990e-002
2.227415e+003,1.052999e-002
2.229343e+003,1.025063e-002
2.231272e+003,1.018364e-002
2.233200e+003,1.032260e-002
2.235129e+003,1.037712e-002
2.237057e+003,1.037898e-002
2.238986e+003,9.928137e-003
2.240914e+003,9.714189e-003
2.242843e+003,9.802017e-003
2.244771e+003,1.023494e-002
2.246700e+003,1.028680e-002
2.248628e+003,1.033841e-002
2.250557e+003,1.004464e-002
2.252485e+003,1.000458e-002
2.254414e+003,1.008356e-002
2.256342e+003,1.013539e-002
2.258271e+003,1.006830e-002
2.260199e+003,1.007103e-002
2.262128e+003,1.039344e-002
2.264056e+003,1.039871e-002
2.265985e+003,1.030355e-002
2.267913e+003,1.039214e-002
2.269842e+003,1.034806e-002
2.271770e+003,1.016072e-002
2.273699e+003,1.010333e-002
2.275627e+003,1.000702e-002
2.277556e+003,9.881815e-003
2.279484e+003,9.822414e-003
2.281413e+003,9.694188e-003
2.283341e+003,9.666461e-003
2.285270e+003,9.632057e-003
2.287198e+003,9.668773e-003
2.289127e+003,9.715118e-003
2.291055e+003,9.756469e-003
2.292984e+003,9.759177e-003
2.294912e+003,9.970035e-003
2.296841e+003,1.009708e-002
2.298769e+003,1.019902e-002
2.300698e+003,1.013728e-002
2.302626e+003,9.872776e-003
2.304555e+003,9.806716e-003
2.306483e+003,9.859724e-003
2.308412e+003,9.904221e-003
2.310340e+003,9.934221e-003
2.312269e+003,9.856771e-003
2.314197e+003,9.826820e-003
2.316125e+003,9.817143e-003
2.318054e+003,9.703563e-003
2.319983e+003,9.871203e-003
2.321911e+003,9.961338e-003
2.323840e+003,1.004700e-002
2.325768e+003,1.013772e-002
2.327697e+003,1.017573e-002
2.329625e+003,9.784477e-003
2.331553e+003,9.503290e-003
2.333482e+003,9.309430e-003
2.335411e+003,9.140457e-003
2.337339e+003,8.998333e-003
2.339268e+003,9.346306e-003
2.341196e+003,9.138009e-003
2.343125e+003,9.046670e-003
2.345053e+003,9.236353e-003
2.346981e+003,9.455518e-003
2.348910e+003,9.472567e-003
2.350839e+003,9.619767e-003
2.352767e+003,9.646161e-003
2.354696e+003,9.779959e-003
2.356624e+003,9.773119e-003
2.358552e+003,9.905807e-003
2.360481e+003,9.944255e-003
2.362409e+003,9.803703e-003
2.364338e+003,9.966659e-003
2.366267e+003,1.016303e-002
2.368195e+003,9.954796e-003
2.370124e+003,9.983716e-003
2.372052e+003,9.901438e-003
2.373980e+003,9.861857e-003
2.375909e+003,9.929333e-003
2.377838e+003,9.799845e-003
2.379766e+003,9.760149e-003
2.381695e+003,9.903722e-003
2.383623e+003,9.941906e-003
2.385552e+003,9.885326e-003
2.387480e+003,9.818685e-003
2.389408e+003,9.836618e-003
2.391337e+003,9.882155e-003
2.393266e+003,9.994873e-003
2.395194e+003,9.975282e-003
2.397123e+003,1.002047e-002
2.399051e+003,1.004002e-002
2.400979e+003,9.946252e-003
2.402908e+003,9.938184e-003
2.404836e+003,9.886319e-003
2.406765e+003,9.947168e-003
2.408694e+003,9.916420e-003
2.410622e+003,9.945473e-003
2.412551e+003,9.979952e-003
2.414479e+003,9.963000e-003
2.416407e+003,9.832866e-003
2.418336e+003,9.693115e-003
2.420264e+003,9.601203e-003
2.422193e+003,9.594496e-003
2.424122e+003,9.580980e-003
2.426050e+003,9.654593e-003
2.427979e+003,9.650663e-003
2.429907e+003,9.692912e-003
2.431835e+003,9.708396e-003
2.433764e+003,9.681968e-003
2.435692e+003,9.658285e-003
2.437621e+003,9.717613e-003
2.439550e+003,9.872794e-003
2.441478e+003,9.919946e-003
2.443406e+003,9.898555e-003
2.445335e+003,9.829883e-003
2.447263e+003,9.792130e-003
2.449192e+003,9.688405e-003
2.451121e+003,9.678445e-003
2.453049e+003,9.726117e-003
2.454978e+003,9.662453e-003
2.456906e+003,9.694741e-003
2.458834e+003,9.668415e-003
2.460763e+003,9.439820e-003
2.462691e+003,9.534103e-003
2.464620e+003,9.739569e-003
2.466549e+003,9.671025e-003
2.468477e+003,9.673430e-003
2.470406e+003,9.585993e-003
2.472334e+003,9.454821e-003
2.474262e+003,9.634639e-003
2.476191e+003,9.613805e-003
2.478119e+003,9.562283e-003
2.480048e+003,9.495798e-003
2.481977e+003,9.431220e-003
2.483905e+003,9.506263e-003
2.485833e+003,9.638738e-003
2.487762e+003,9.663876e-003
2.489690e+003,9.546736e-003
2.491619e+003,9.438059e-003
2.493547e+003,9.551376e-003
2.495476e+003,9.614618e-003
2.497405e+003,9.549751e-003
2.499333e+003,9.496848e-003
2.501261e+003,9.598798e-003
2.503190e+003,9.585519e-003
2.505118e+003,9.591921e-003
2.507047e+003,9.628574e-003
2.508975e+003,9.781115e-003
2.510904e+003,9.782233e-003
2.512833e+003,9.745331e-003
2.514761e+003,9.679494e-003
2.516689e+003,9.756072e-003
2.518618e+003,9.783995e-003
2.520546e+003,9.739942e-003
2.522475e+003,9.675090e-003
2.524403e+003,9.694708e-003
2.526332e+003,9.741366e-003
2.528260e+003,9.715545e-003
2.530189e+003,9.766238e-003
2.532117e+003,9.871641e-003
2.534046e+003,9.903030e-003
2.535974e+003,9.845779e-003
2.537903e+003,9.839543e-003
2.539831e+003,9.833816e-003
2.541760e+003,9.887776e-003
2.543688e+003,9.905166e-003
2.545617e+003,1.001776e-002
2.547545e+003,1.002756e-002
2.549474e+003,1.008520e-002
2.551402e+003,1.008354e-002
2.553331e+003,1.005472e-002
2.555259e+003,1.010426e-002
2.557188e+003,1.004532e-002
2.559116e+003,1.004777e-002
2.561045e+003,1.017393e-002
2.562973e+003,1.006804e-002
2.564902e+003,1.005163e-002
2.566830e+003,1.016735e-002
2.568759e+003,1.013597e-002
2.570687e+003,1.016256e-002
2.572616e+003,1.024713e-002
2.574544e+003,1.016226e-002
2.576473e+003,1.017634e-002
2.578401e+003,1.034339e-002
2.580330e+003,1.038686e-002
2.582258e+003,1.039728e-002
2.584187e+003,1.033541e-002
2.586115e+003,1.027750e-002
2.588044e+003,1.018329e-002
2.589972e+003,1.023112e-002
2.591901e+003,1.032975e-002
2.593829e+003,1.037220e-002
2.595758e+003,1.044829e-002
2.597686e+003,1.044401e-002
2.599615e+003,1.041506e-002
2.601543e+003,1.040983e-002
2.603472e+003,1.038537e-002
2.605400e+003,1.043403e-002
2.607329e+003,1.056940e-002
2.609257e+003,1.059972e-002
2.611186e+003,1.054438e-002
2.613114e+003,1.060543e-002
2.615043e+003,1.067188e-002
2.616971e+003,1.069500e-002
2.618900e+003,1.064577e-002
2.620828e+003,1.065381e-002
2.622757e+003,1.063765e-002
2.624685e+003,1.054836e-002
2.626614e+003,1.056635e-002
2.628542e+003,1.059847e-002
2.630471e+003,1.066801e-002
2.632399e+003,1.070913e-002
2.634328e+003,1.068356e-002
2.636256e+003,1.061453e-002
2.638185e+003,1.059721e-002
2.640113e+003,1.062553e-002
2.642042e+003,1.065181e-002
2.643970e+003,1.061330e-002
2.645899e+003,1.056638e-002
2.647827e+003,1.065259e-002
2.649756e+003,1.062916e-002
2.651684e+003,1.057406e-002
2.653613e+003,1.058149e-002
2.655541e+003,1.062509e-002
2.657470e+003,1.067466e-002
2.659398e+003,1.062441e-002
2.661327e+003,1.058848e-002
2.663255e+003,1.059796e-002
2.665184e+003,1.062760e-002
2.667112e+003,1.064573e-002
2.669041e+003,1.065572e-002
2.670969e+003,1.070431e-002
2.672898e+003,1.071559e-002
2.674826e+003,1.065986e-002
2.676755e+003,1.068400e-002
2.678683e+003,1.068410e-002
2.680612e+003,1.069402e-002
2.682540e+003,1.064366e-002
2.684469e+003,1.063147e-002
2.686397e+003,1.068505e-002
2.688326e+003,1.064821e-002
2.690254e+003,1.059572e-002
2.692183e+003,1.060101e-002
2.694111e+003,1.061174e-002
2.696040e+003,1.062838e-002
2.697968e+003,1.058675e-002
2.699897e+003,1.056995e-002
2.701825e+003,1.060607e-002
2.703754e+003,1.066560e-002
2.705682e+003,1.061843e-002
2.707611e+003,1.058030e-002
2.709539e+003,1.059582e-002
2.711468e+003,1.058180e-002
2.713396e+003,1.059035e-002
2.715325e+003,1.057144e-002
2.717253e+003,1.058248e-002
2.719182e+003,1.058394e-002
2.721110e+003,1.056323e-002
2.723039e+003,1.057019e-002
2.724967e+003,1.059853e-002
2.726896e+003,1.060539e-002
2.728824e+003,1.059137e-002
2.730753e+003,1.063208e-002
2.732681e+003,1.063802e-002
2.734610e+003,1.063222e-002
2.736538e+003,1.064478e-002
2.738467e+003,1.061409e-002
2.740395e+003,1.056822e-002
2.742324e+003,1.059134e-002
2.744252e+003,1.062043e-002
2.746181e+003,1.064889e-002
2.748109e+003,1.063246e-002
2.750038e+003,1.059629e-002
2.751966e+003,1.057361e-002
2.753895e+003,1.058370e-002
2.755823e+003,1.061884e-002
2.757752e+003,1.069596e-002
2.759680e+003,1.075186e-002
2.761609e+003,1.074045e-002
2.763537e+003,1.072374e-002
2.765466e+003,1.073348e-002
2.767394e+003,1.071188e-002
2.769323e+003,1.066797e-002
2.771251e+003,1.070886e-002
2.773180e+003,1.077210e-002
2.775108e+003,1.080800e-002
2.777037e+003,1.080872e-002
2.778965e+003,1.083335e-002
2.780894e+003,1.087547e-002
2.782822e+003,1.087439e-002
2.784750e+003,1.090163e-002
2.786679e+003,1.096443e-002
2.788608e+003,1.095569e-002
2.790536e+003,1.098702e-002
2.792465e+003,1.100854e-002
2.794393e+003,1.099542e-002
2.796322e+003,1.101261e-002
2.798250e+003,1.101520e-002
2.800178e+003,1.100055e-002
2.802107e+003,1.103770e-002
2.804036e+003,1.110646e-002
2.805964e+003,1.110034e-002
2.807893e+003,1.110547e-002
2.809821e+003,1.108909e-002
2.811750e+003,1.106404e-002
2.813678e+003,1.113991e-002
2.815606e+003,1.123350e-002
2.817535e+003,1.125547e-002
2.819464e+003,1.126129e-002
2.821392e+003,1.126832e-002
2.823321e+003,1.130209e-002
2.825249e+003,1.137617e-002
2.827177e+003,1.136219e-002
2.829106e+003,1.140467e-002
2.831034e+003,1.140610e-002
2.832963e+003,1.141107e-002
2.834892e+003,1.151105e-002
2.836820e+003,1.157832e-002
2.838749e+003,1.159772e-002
2.840677e+003,1.162787e-002
2.842605e+003,1.171017e-002
2.844534e+003,1.179058e-002
2.846462e+003,1.185561e-002
2.848391e+003,1.197399e-002
2.850320e+003,1.207005e-002
2.852248e+003,1.210112e-002
2.854177e+003,1.209901e-002
2.856105e+003,1.209097e-002
2.858033e+003,1.211277e-002
2.859962e+003,1.213673e-002
2.861890e+003,1.218658e-002
2.863819e+003,1.224813e-002
2.865748e+003,1.227877e-002
2.867676e+003,1.227573e-002
2.869604e+003,1.229237e-002
2.871533e+003,1.230382e-002
2.873461e+003,1.228616e-002
2.875390e+003,1.232247e-002
2.877319e+003,1.233924e-002
2.879247e+003,1.224629e-002
2.881176e+003,1.228262e-002
2.883104e+003,1.238263e-002
2.885032e+003,1.235938e-002
2.886961e+003,1.238127e-002
2.888889e+003,1.241577e-002
2.890818e+003,1.241311e-002
2.892747e+003,1.242887e-002
2.894675e+003,1.243947e-002
2.896604e+003,1.246450e-002
2.898532e+003,1.241929e-002
2.900460e+003,1.242975e-002
2.902389e+003,1.248810e-002
2.904317e+003,1.251964e-002
2.906246e+003,1.254174e-002
2.908175e+003,1.253969e-002
2.910103e+003,1.255221e-002
2.912031e+003,1.254859e-002
2.913960e+003,1.256019e-002
2.915888e+003,1.259082e-002
2.917817e+003,1.261991e-002
2.919745e+003,1.261207e-002
2.921674e+003,1.257642e-002
2.923603e+003,1.250232e-002
2.925531e+003,1.248083e-002
2.927459e+003,1.242450e-002
2.929388e+003,1.236228e-002
2.931316e+003,1.237016e-002
2.933245e+003,1.232744e-002
2.935173e+003,1.229172e-002
2.937102e+003,1.219871e-002
2.939031e+003,1.212441e-002
2.940959e+003,1.210911e-002
2.942887e+003,1.208040e-002
2.944816e+003,1.199409e-002
2.946744e+003,1.187331e-002
2.948673e+003,1.181131e-002
2.950601e+003,1.178487e-002
2.952530e+003,1.184838e-002
2.954458e+003,1.178296e-002
2.956387e+003,1.166246e-002
2.958315e+003,1.156967e-002
2.960244e+003,1.153585e-002
2.962172e+003,1.157235e-002
2.964101e+003,1.155229e-002
2.966029e+003,1.148750e-002
2.967958e+003,1.145043e-002
2.969886e+003,1.142259e-002
2.971815e+003,1.135697e-002
2.973743e+003,1.130746e-002
2.975672e+003,1.125732e-002
2.977600e+003,1.129547e-002
2.979529e+003,1.128814e-002
2.981457e+003,1.119730e-002
2.983386e+003,1.120849e-002
2.985314e+003,1.120749e-002
2.987243e+003,1.114528e-002
2.989171e+003,1.111569e-002
2.991100e+003,1.117683e-002
2.993028e+003,1.114764e-002
2.994957e+003,1.107931e-002
2.996885e+003,1.105475e-002
2.998814e+003,1.111362e-002
3.000742e+003,1.117360e-002
3.002671e+003,1.122230e-002
3.004599e+003,1.124009e-002
3.006528e+003,1.120961e-002
3.008456e+003,1.116751e-002
3.010385e+003,1.117634e-002
3.012313e+003,1.121552e-002
3.014242e+003,1.124250e-002
3.016170e+003,1.121507e-002
3.018099e+003,1.121028e-002
3.020027e+003,1.125148e-002
3.021956e+003,1.128390e-002
3.023884e+003,1.133022e-002
3.025813e+003,1.133606e-002
3.027741e+003,1.137330e-002
3.029670e+003,1.143448e-002
3.031598e+003,1.144665e-002
3.033527e+003,1.145438e-002
3.035455e+003,1.154458e-002
3.037384e+003,1.151880e-002
3.039312e+003,1.149165e-002
3.041241e+003,1.154962e-002
3.043169e+003,1.155797e-002
3.045098e+003,1.157571e-002
3.047026e+003,1.160696e-002
3.048955e+003,1.162308e-002
3.050883e+003,1.163101e-002
3.052812e+003,1.169056e-002
3.054740e+003,1.173200e-002
3.056669e+003,1.169858e-002
3.058597e+003,1.177656e-002
3.060526e+003,1.183989e-002
3.062454e+003,1.185825e-002
3.064383e+003,1.185859e-002
3.066311e+003,1.183685e-002
3.068240e+003,1.181945e-002
3.070168e+003,1.180470e-002
3.072097e+003,1.181827e-002
3.074025e+003,1.191597e-002
3.075954e+003,1.189508e-002
3.077882e+003,1.189473e-002
3.079811e+003,1.196858e-002
3.081739e+003,1.202983e-002
3.083668e+003,1.204656e-002
3.085596e+003,1.200765e-002
3.087525e+003,1.201836e-002
3.089453e+003,1.202696e-002
3.091382e+003,1.211906e-002
3.093310e+003,1.214412e-002
3.095239e+003,1.210914e-002
3.097167e+003,1.216344e-002
3.099096e+003,1.216498e-002
3.101024e+003,1.216807e-002
3.102953e+003,1.216118e-002
3.104881e+003,1.217566e-002
3.106810e+003,1.222093e-002
3.108738e+003,1.226277e-002
3.110667e+003,1.237723e-002
3.112595e+003,1.237281e-002
3.114524e+003,1.236465e-002
3.116452e+003,1.246250e-002
3.118381e+003,1.245799e-002
3.120309e+003,1.245375e-002
3.122238e+003,1.249934e-002
3.124166e+003,1.253202e-002
3.126095e+003,1.259779e-002
3.128023e+003,1.267709e-002
3.129952e+003,1.266086e-002
3.131880e+003,1.260945e-002
3.133809e+003,1.264340e-002
3.135737e+003,1.267596e-002
3.137666e+003,1.272464e-002
3.139594e+003,1.277357e-002
3.141523e+003,1.282052e-002
3.143451e+003,1.288149e-002
3.145380e+003,1.293932e-002
3.147308e+003,1.291611e-002
3.149237e+003,1.283643e-002
3.151165e+003,1.282873e-002
3.153094e+003,1.293983e-002
3.155022e+003,1.312674e-002
3.156951e+003,1.312667e-002
3.158879e+003,1.313189e-002
3.160808e+003,1.317377e-002
3.162736e+003,1.319631e-002
3.164665e+003,1.325048e-002
3.166593e+003,1.333847e-002
3.168522e+003,1.341001e-002
3.170450e+003,1.334400e-002
3.172379e+003,1.328806e-002
3.174307e+003,1.331563e-002
3.176236e+003,1.337594e-002
3.178164e+003,1.352712e-002
3.180093e+003,1.364661e-002
3.182021e+003,1.356170e-002
3.183950e+003,1.345419e-002
3.185878e+003,1.357082e-002
3.187807e+003,1.368119e-002
3.189735e+003,1.370590e-002
3.191664e+003,1.374129e-002
3.193592e+003,1.383500e-002
3.195521e+003,1.393132e-002
3.197449e+003,1.395428e-002
3.199378e+003,1.393403e-002
3.201306e+003,1.401677e-002
3.203235e+003,1.400197e-002
3.205163e+003,1.402070e-002
3.207092e+003,1.409781e-002
3.209020e+003,1.410310e-002
3.210948e+003,1.403747e-002
3.212877e+003,1.409756e-002
3.214806e+003,1.425044e-002
3.216734e+003,1.421612e-002
3.218663e+003,1.425355e-002
3.220591e+003,1.440116e-002
3.222520e+003,1.442406e-002
3.224448e+003,1.441690e-002
3.226376e+003,1.451018e-002
3.228305e+003,1.454566e-002
3.230234e+003,1.456782e-002
3.232162e+003,1.465978e-002
3.234091e+003,1.470952e-002
3.236019e+003,1.475171e-002
3.237948e+003,1.474293e-002
3.239876e+003,1.481781e-002
3.241804e+003,1.478971e-002
3.243733e+003,1.479223e-002
3.245662e+003,1.487420e-002
3.247590e+003,1.489577e-002
3.249519e+003,1.497934e-002
3.251447e+003,1.501047e-002
3.253375e+003,1.506220e-002
3.255304e+003,1.515101e-002
3.257232e+003,1.520926e-002
3.259161e+003,1.525172e-002
3.261090e+003,1.522272e-002
3.263018e+003,1.528018e-002
3.264947e+003,1.536162e-002
3.266875e+003,1.536363e-002
3.268803e+003,1.540186e-002
3.270732e+003,1.545099e-002
3.272660e+003,1.551496e-002
3.274589e+003,1.549097e-002
3.276518e+003,1.545069e-002
3.278446e+003,1.544454e-002
3.280375e+003,1.551241e-002
3.282303e+003,1.555349e-002
3.284231e+003,1.554797e-002
3.286160e+003,1.560287e-002
3.288088e+003,1.562268e-002
3.290017e+003,1.558548e-002
3.291946e+003,1.549566e-002
3.293874e+003,1.552408e-002
3.295802e+003,1.555526e-002
3.297731e+003,1.557402e-002
3.299659e+003,1.560673e-002
3.301588e+003,1.562101e-002
3.303516e+003,1.563021e-002
3.305445e+003,1.557254e-002
3.307374e+003,1.557470e-002
3.309302e+003,1.555794e-002
3.311230e+003,1.556664e-002
3.313159e+003,1.551098e-002
3.315087e+003,1.553962e-002
3.317016e+003,1.559386e-002
3.318944e+003,1.558806e-002
3.320873e+003,1.564724e-002
3.322802e+003,1.566655e-002
3.324730e+003,1.556844e-002
3.326658e+003,1.558453e-002
3.328587e+003,1.556360e-002
3.330515e+003,1.562783e-002
3.332444e+003,1.564110e-002
3.334372e+003,1.557044e-002
3.336301e+003,1.558304e-002
3.338229e+003,1.561708e-002
3.340158e+003,1.562936e-002
3.342086e+003,1.561381e-002
3.344015e+003,1.554119e-002
3.345943e+003,1.551932e-002
3.347872e+003,1.553338e-002
3.349800e+003,1.552096e-002
3.351729e+003,1.543844e-002
3.353657e+003,1.538638e-002
3.355586e+003,1.540869e-002
3.357514e+003,1.541007e-002
3.359443e+003,1.541228e-002
3.361371e+003,1.533941e-002
3.363300e+003,1.530397e-002
3.365229e+003,1.532602e-002
3.367157e+003,1.524864e-002
3.369085e+003,1.515459e-002
3.371014e+003,1.510698e-002
3.372942e+003,1.506102e-002
3.374871e+003,1.504364e-002
3.376799e+003,1.503165e-002
3.378728e+003,1.507836e-002
3.380656e+003,1.504871e-002
3.382585e+003,1.498641e-002
3.384513e+003,1.494240e-002
3.386442e+003,1.491649e-002
3.388370e+003,1.488601e-002
3.390299e+003,1.486911e-002
3.392227e+003,1.479879e-002
3.394156e+003,1.472368e-002
3.396084e+003,1.467904e-002
3.398013e+003,1.462796e-002
3.399941e+003,1.457658e-002
3.401870e+003,1.459389e-002
3.403798e+003,1.456009e-002
3.405727e+003,1.455144e-002
3.407655e+003,1.449142e-002
3.409584e+003,1.439564e-002
3.411512e+003,1.438817e-002
3.413441e+003,1.441058e-002
3.415369e+003,1.435415e-002
3.417298e+003,1.428581e-002
3.419226e+003,1.421486e-002
3.421155e+003,1.415863e-002
3.423083e+003,1.412537e-002
3.425012e+003,1.407320e-002
3.426940e+003,1.409875e-002
3.428869e+003,1.408024e-002
3.430797e+003,1.403719e-002
3.432726e+003,1.398626e-002
3.434654e+003,1.381246e-002
3.436583e+003,1.378311e-002
3.438511e+003,1.377494e-002
3.440440e+003,1.375235e-002
3.442368e+003,1.365216e-002
3.444297e+003,1.354493e-002
3.446225e+003,1.351212e-002
3.448154e+003,1.340793e-002
3.450082e+003,1.337066e-002
3.452011e+003,1.341824e-002
3.453939e+003,1.334159e-002
3.455868e+003,1.324217e-002
3.457796e+003,1.320003e-002
3.459725e+003,1.316242e-002
3.461653e+003,1.312264e-002
3.463582e+003,1.295574e-002
3.465510e+003,1.288633e-002
3.467439e+003,1.289797e-002
3.469367e+003,1.286589e-002
3.471296e+003,1.272597e-002
3.473224e+003,1.261994e-002
3.475153e+003,1.265015e-002
3.477081e+003,1.261429e-002
3.479010e+003,1.244900e-002
3.480938e+003,1.243187e-002
3.482867e+003,1.241247e-002
3.484795e+003,1.237289e-002
3.486724e+003,1.235394e-002
3.488652e+003,1.235066e-002
3.490581e+003,1.237503e-002
3.492509e+003,1.232133e-002
3.494438e+003,1.224355e-002
3.496366e+003,1.207718e-002
3.498295e+003,1.201455e-002
3.500223e+003,1.199725e-002
3.502152e+003,1.186587e-002
3.504080e+003,1.178892e-002
3.506009e+003,1.176857e-002
3.507937e+003,1.170989e-002
3.509866e+003,1.167290e-002
3.511794e+003,1.167010e-002
3.513723e+003,1.152358e-002
3.515651e+003,1.143858e-002
3.517580e+003,1.148801e-002
3.519508e+003,1.143103e-002
3.521437e+003,1.130544e-002
3.523365e+003,1.125332e-002
3.525294e+003,1.124485e-002
3.527222e+003,1.127679e-002
3.529151e+003,1.123186e-002
3.531079e+003,1.116542e-002
3.533008e+003,1.110942e-002
3.534936e+003,1.104582e-002
3.536865e+003,1.100260e-002
3.538793e+003,1.096246e-002
3.540722e+003,1.094677e-002
3.542650e+003,1.089614e-002
3.544579e+003,1.083024e-002
3.546507e+003,1.080162e-002
3.548436e+003,1.075387e-002
3.550364e+003,1.072034e-002
3.552293e+003,1.067017e-002
3.554221e+003,1.068848e-002
3.556150e+003,1.056584e-002
3.558078e+003,1.045962e-002
3.560007e+003,1.044965e-002
3.561935e+003,1.039547e-002
3.563864e+003,1.035499e-002
3.565792e+003,1.034307e-002
3.567721e+003,1.039653e-002
3.569649e+003,1.033344e-002
3.571578e+003,1.015756e-002
3.573506e+003,1.013055e-002
3.575435e+003,1.011441e-002
3.577363e+003,1.004146e-002
3.579292e+003,9.937147e-003
3.581220e+003,9.778721e-003
3.583149e+003,9.753329e-003
3.585077e+003,9.751440e-003
3.587006e+003,9.703177e-003
3.588934e+003,9.717306e-003
3.590863e+003,9.630472e-003
3.592791e+003,9.482243e-003
3.594720e+003,9.413655e-003
3.596648e+003,9.351081e-003
3.598577e+003,9.338248e-003
3.600505e+003,9.263848e-003
3.602434e+003,9.171433e-003
3.604362e+003,9.141142e-003
3.606291e+003,9.165096e-003
3.608219e+003,9.323686e-003
3.610148e+003,9.488328e-003
3.612076e+003,9.560688e-003
3.614005e+003,9.515563e-003
3.615933e+003,9.296359e-003
3.617862e+003,9.191273e-003
3.619790e+003,9.054046e-003
3.621719e+003,8.859785e-003
3.623647e+003,8.887114e-003
3.625576e+003,9.004718e-003
3.627504e+003,9.010039e-003
3.629433e+003,9.011666e-003
3.631361e+003,9.038757e-003
3.633290e+003,8.990059e-003
3.635218e+003,9.015142e-003
3.637146e+003,9.155545e-003
3.639075e+003,9.202207e-003
3.641004e+003,9.264728e-003
3.642932e+003,9.207541e-003
3.644861e+003,9.251446e-003
3.646789e+003,9.313620e-003
3.648718e+003,9.351227e-003
3.650646e+003,9.332556e-003
3.652574e+003,9.318134e-003
3.654503e+003,9.331225e-003
3.656432e+003,9.321708e-003
3.658360e+003,9.328106e-003
3.660289e+003,9.268940e-003
3.662217e+003,9.264260e-003
3.664146e+003,9.248380e-003
3.666074e+003,9.138169e-003
3.668002e+003,9.145015e-003
3.669931e+003,9.194463e-003
3.671860e+003,9.140491e-003
3.673788e+003,9.141130e-003
3.675717e+003,9.176242e-003
3.677645e+003,9.227568e-003
3.679573e+003,9.185562e-003
3.681502e+003,9.038798e-003
3.683430e+003,8.863322e-003
3.685359e+003,8.820270e-003
3.687288e+003,8.861986e-003
3.689216e+003,8.820684e-003
3.691145e+003,8.773346e-003
3.693073e+003,8.859371e-003
3.695001e+003,8.766518e-003
3.696930e+003,8.589787e-003
3.698858e+003,8.549049e-003
3.700787e+003,8.480540e-003
3.702716e+003,8.452657e-003
3.704644e+003,8.519156e-003
3.706573e+003,8.564833e-003
3.708501e+003,8.716945e-003
3.710429e+003,8.893335e-003
3.712358e+003,9.001033e-003
3.714286e+003,9.113706e-003
3.716215e+003,9.194906e-003
3.718144e+003,9.123901e-003
3.720072e+003,8.785555e-003
3.722000e+003,8.582111e-003
3.723929e+003,8.581695e-003
3.725857e+003,8.572708e-003
3.727786e+003,8.485257e-003
3.729714e+003,8.496160e-003
3.731643e+003,8.512609e-003
3.733572e+003,8.579730e-003
3.735500e+003,8.745185e-003
3.737428e+003,8.890328e-003
3.739357e+003,8.989770e-003
3.741285e+003,9.058592e-003
3.743214e+003,9.154765e-003
3.745142e+003,9.160114e-003
3.747071e+003,9.266410e-003
3.749000e+003,9.376517e-003
3.750928e+003,9.322591e-003
3.752856e+003,9.331319e-003
3.754785e+003,9.350835e-003
3.756713e+003,9.452640e-003
3.758642e+003,9.479703e-003
3.760570e+003,9.359638e-003
3.762499e+003,9.284003e-003
3.764427e+003,9.337816e-003
3.766356e+003,9.383751e-003
3.768284e+003,9.448921e-003
3.770213e+003,9.372482e-003
3.772141e+003,9.340568e-003
3.774070e+003,9.302923e-003
3.775998e+003,9.297902e-003
3.777927e+003,9.282927e-003
3.779855e+003,9.273613e-003
3.781784e+003,9.322445e-003
3.783712e+003,9.263713e-003
3.785641e+003,9.287403e-003
3.787569e+003,9.404428e-003
3.789498e+003,9.439350e-003
3.791426e+003,9.412595e-003
3.793355e+003,9.250055e-003
3.795283e+003,9.269898e-003
3.797212e+003,9.333295e-003
3.799140e+003,9.334410e-003
3.801069e+003,9.326831e-003
3.802997e+003,9.318015e-003
3.804926e+003,9.358925e-003
3.806854e+003,9.327272e-003
3.808783e+003,9.275666e-003
3.810711e+003,9.273574e-003
3.812640e+003,9.263889e-003
3.814568e+003,9.299317e-003
3.816497e+003,9.275432e-003
3.818425e+003,9.223664e-003
3.820354e+003,9.175482e-003
3.822282e+003,9.177958e-003
3.824211e+003,9.223089e-003
3.826139e+003,9.281851e-003
3.828068e+003,9.320959e-003
3.829996e+003,9.315867e-003
3.831925e+003,9.362865e-003
3.833853e+003,9.312418e-003
3.835782e+003,9.301963e-003
3.837710e+003,9.273728e-003
3.839639e+003,9.269521e-003
3.841567e+003,9.354561e-003
3.843496e+003,9.366828e-003
3.845424e+003,9.304746e-003
3.847353e+003,9.325384e-003
3.849281e+003,9.335806e-003
3.851210e+003,9.272286e-003
3.853138e+003,9.220620e-003
3.855067e+003,9.274710e-003
3.856995e+003,9.346691e-003
3.858924e+003,9.324270e-003
3.860852e+003,9.327844e-003
3.862781e+003,9.374366e-003
3.864709e+003,9.211781e-003
3.866638e+003,9.117866e-003
3.868566e+003,9.236027e-003
3.870495e+003,9.323388e-003
3.872423e+003,9.327210e-003
3.874352e+003,9.342246e-003
3.876280e+003,9.258972e-003
3.878209e+003,9.220367e-003
3.880137e+003,9.243689e-003
3.882066e+003,9.355710e-003
3.883994e+003,9.387473e-003
3.885923e+003,9.424788e-003
3.887851e+003,9.500114e-003
3.889780e+003,9.459220e-003
3.891708e+003,9.244516e-003
3.893637e+003,9.215451e-003
3.895565e+003,9.229134e-003
3.897494e+003,9.228799e-003
3.899422e+003,9.285216e-003
3.901351e+003,9.372538e-003
3.903279e+003,9.354014e-003
3.905208e+003,9.266996e-003
3.907136e+003,9.316947e-003
3.909065e+003,9.411399e-003
3.910993e+003,9.401618e-003
3.912922e+003,9.357150e-003
3.914850e+003,9.395468e-003
3.916779e+003,9.372437e-003
3.918707e+003,9.389023e-003
3.920636e+003,9.367006e-003
3.922564e+003,9.403092e-003
3.924493e+003,9.390487e-003
3.926421e+003,9.326253e-003
3.928350e+003,9.358472e-003
3.930278e+003,9.394126e-003
3.932207e+003,9.407349e-003
3.934135e+003,9.409162e-003
3.936064e+003,9.329349e-003
3.937992e+003,9.339188e-003
3.939921e+003,9.391939e-003
3.941849e+003,9.363521e-003
3.943778e+003,9.361194e-003
3.945706e+003,9.372176e-003
3.947635e+003,9.364844e-003
3.949563e+003,9.349049e-003
3.951492e+003,9.434067e-003
3.953420e+003,9.456199e-003
3.955349e+003,9.388464e-003
3.957277e+003,9.349318e-003
3.959206e+003,9.319033e-003
3.961134e+003,9.341891e-003
3.963063e+003,9.312289e-003
3.964991e+003,9.336000e-003
3.966920e+003,9.373344e-003
3.968848e+003,9.356449e-003
3.970777e+003,9.274925e-003
3.972705e+003,9.298235e-003
3.974634e+003,9.305855e-003
3.976562e+003,9.347988e-003
3.978491e+003,9.329948e-003
3.980419e+003,9.302362e-003
3.982348e+003,9.233554e-003
3.984276e+003,9.226350e-003
3.986205e+003,9.401071e-003
3.988133e+003,9.381649e-003
3.990062e+003,9.327205e-003
3.991990e+003,9.362923e-003
3.993919e+003,9.323727e-003
3.995847e+003,9.264561e-003
3.997776e+003,9.242089e-003
3.999704e+003,9.242415e-003
4.001633e+003,0.000000e+000
