3.991989e+002,5.782059e-002
4.011274e+002,6.122988e-002
4.030559e+002,6.122988e-002
4.049844e+002,6.246253e-002
4.069129e+002,6.117491e-002
4.088414e+002,6.125636e-002
4.107699e+002,6.173287e-002
4.126984e+002,6.159771e-002
4.146269e+002,6.212652e-002
4.165554e+002,6.348945e-002
4.184839e+002,6.445117e-002
4.204124e+002,6.532678e-002
4.223409e+002,6.596667e-002
4.242694e+002,6.605487e-002
4.261979e+002,6.660864e-002
4.281264e+002,6.718742e-002
4.300549e+002,6.697015e-002
4.319834e+002,6.673938e-002
4.339119e+002,6.629495e-002
4.358404e+002,6.693330e-002
4.377689e+002,6.840222e-002
4.396974e+002,6.863339e-002
4.416259e+002,6.825052e-002
4.435544e+002,6.807365e-002
4.454829e+002,6.746405e-002
4.474114e+002,6.746622e-002
4.493399e+002,6.775453e-002
4.512684e+002,6.721614e-002
4.531969e+002,6.725432e-002
4.551254e+002,6.728026e-002
4.570539e+002,6.705843e-002
4.589824e+002,6.703557e-002
4.609109e+002,6.669092e-002
4.628394e+002,6.659156e-002
4.647679e+002,6.645112e-002
4.666964e+002,6.677137e-002
4.686249e+002,6.654347e-002
4.705533e+002,6.601972e-002
4.724819e+002,6.558113e-002
4.744103e+002,6.505144e-002
4.763389e+002,6.450536e-002
4.782673e+002,6.423060e-002
4.801959e+002,6.333163e-002
4.821243e+002,6.230866e-002
4.840529e+002,6.183000e-002
4.859813e+002,6.172420e-002
4.879099e+002,6.170341e-002
4.898383e+002,6.111919e-002
4.917668e+002,6.054396e-002
4.936953e+002,5.966636e-002
4.956238e+002,5.947400e-002
4.975523e+002,5.947447e-002
4.994808e+002,5.925267e-002
5.014093e+002,5.915092e-002
5.033378e+002,5.918480e-002
5.052663e+002,5.908180e-002
5.071948e+002,5.870760e-002
5.091233e+002,5.867391e-002
5.110518e+002,5.872609e-002
5.129803e+002,5.880101e-002
5.149088e+002,5.903924e-002
5.168373e+002,5.939587e-002
5.187658e+002,5.949058e-002
5.206943e+002,5.963854e-002
5.226228e+002,5.987968e-002
5.245513e+002,5.990506e-002
5.264798e+002,5.942667e-002
5.284083e+002,5.903355e-002
5.303368e+002,5.932334e-002
5.322653e+002,5.899861e-002
5.341938e+002,5.844570e-002
5.361223e+002,5.807291e-002
5.380508e+002,5.786967e-002
5.399792e+002,5.756083e-002
5.419078e+002,5.736511e-002
5.438363e+002,5.736431e-002
5.457648e+002,5.697685e-002
5.476932e+002,5.699465e-002
5.496218e+002,5.722993e-002
5.515503e+002,5.715602e-002
5.534788e+002,5.735085e-002
5.554072e+002,5.764336e-002
5.573358e+002,5.789367e-002
5.592643e+002,5.800473e-002
5.611927e+002,5.767088e-002
5.631212e+002,5.737668e-002
5.650497e+002,5.707105e-002
5.669783e+002,5.706542e-002
5.689067e+002,5.704487e-002
5.708352e+002,5.670098e-002
5.727637e+002,5.658588e-002
5.746923e+002,5.641535e-002
5.766207e+002,5.621414e-002
5.785492e+002,5.580230e-002
5.804777e+002,5.536275e-002
5.824063e+002,5.516983e-002
5.843347e+002,5.493363e-002
5.862632e+002,5.461890e-002
5.881917e+002,5.405005e-002
5.901202e+002,5.365250e-002
5.920487e+002,5.373809e-002
5.939772e+002,5.368403e-002
5.959057e+002,5.310562e-002
5.978342e+002,5.302119e-002
5.997627e+002,5.300715e-002
6.016912e+002,5.283714e-002
6.036197e+002,5.253378e-002
6.055482e+002,5.231395e-002
6.074767e+002,5.206926e-002
6.094052e+002,5.177053e-002
6.113337e+002,5.131134e-002
6.132622e+002,5.100355e-002
6.151907e+002,5.039050e-002
6.171192e+002,4.980387e-002
6.190477e+002,4.917959e-002
6.209762e+002,4.860691e-002
6.229047e+002,4.824957e-002
6.248332e+002,4.767572e-002
6.267617e+002,4.709274e-002
6.286902e+002,4.676562e-002
6.306187e+002,4.645757e-002
6.325472e+002,4.612593e-002
6.344756e+002,4.586706e-002
6.364042e+002,4.557844e-002
6.383326e+002,4.543583e-002
6.402612e+002,4.529214e-002
6.421896e+002,4.510527e-002
6.441182e+002,4.468615e-002
6.460466e+002,4.462946e-002
6.479752e+002,4.470626e-002
6.499036e+002,4.453565e-002
6.518322e+002,4.428574e-002
6.537606e+002,4.405994e-002
6.556891e+002,4.410170e-002
6.576177e+002,4.413484e-002
6.595461e+002,4.395249e-002
6.614746e+002,4.392456e-002
6.634031e+002,4.397625e-002
6.653317e+002,4.384688e-002
6.672601e+002,4.345959e-002
6.691886e+002,4.310675e-002
6.711171e+002,4.273662e-002
6.730457e+002,4.207630e-002
6.749741e+002,4.131449e-002
6.769026e+002,4.065263e-002
6.788311e+002,4.006353e-002
6.807596e+002,3.943117e-002
6.826881e+002,3.895210e-002
6.846166e+002,3.868263e-002
6.865451e+002,3.842429e-002
6.884736e+002,3.804345e-002
6.904021e+002,3.794501e-002
6.923306e+002,3.770212e-002
6.942591e+002,3.758050e-002
6.961876e+002,3.767969e-002
6.981161e+002,3.766652e-002
7.000446e+002,3.748795e-002
7.019731e+002,3.732581e-002
7.039016e+002,3.714745e-002
7.058301e+002,3.696633e-002
7.077585e+002,3.678246e-002
7.096871e+002,3.656064e-002
7.116156e+002,3.632470e-002
7.135441e+002,3.608989e-002
7.154725e+002,3.576182e-002
7.174011e+002,3.553530e-002
7.193296e+002,3.534854e-002
7.212581e+002,3.502906e-002
7.231865e+002,3.455630e-002
7.251151e+002,3.426526e-002
7.270436e+002,3.401622e-002
7.289720e+002,3.381141e-002
7.309005e+002,3.354225e-002
7.328290e+002,3.336945e-002
7.347576e+002,3.320025e-002
7.366860e+002,3.301330e-002
7.386145e+002,3.279928e-002
7.405430e+002,3.258944e-002
7.424716e+002,3.255870e-002
7.444000e+002,3.254867e-002
7.463285e+002,3.242336e-002
7.482570e+002,3.240626e-002
7.501855e+002,3.236822e-002
7.521140e+002,3.221296e-002
7.540425e+002,3.211035e-002
7.559710e+002,3.202463e-002
7.578995e+002,3.201773e-002
7.598280e+002,3.197697e-002
7.617565e+002,3.181964e-002
7.636850e+002,3.157944e-002
7.656135e+002,3.153878e-002
7.675420e+002,3.136840e-002
7.694705e+002,3.100193e-002
7.713990e+002,3.090034e-002
7.733275e+002,3.091464e-002
7.752560e+002,3.073202e-002
7.771844e+002,3.062748e-002
7.791130e+002,3.058819e-002
7.810415e+002,3.061286e-002
7.829700e+002,3.051236e-002
7.848984e+002,3.038129e-002
7.868270e+002,3.019786e-002
7.887555e+002,3.013287e-002
7.906840e+002,3.012438e-002
7.926124e+002,3.000944e-002
7.945410e+002,3.001402e-002
7.964695e+002,3.004807e-002
7.983979e+002,2.999310e-002
8.003264e+002,2.991167e-002
8.022549e+002,2.990017e-002
8.041835e+002,2.986222e-002
8.061119e+002,2.983454e-002
8.080404e+002,2.985910e-002
8.099689e+002,2.980572e-002
8.118975e+002,2.984356e-002
8.138259e+002,2.991596e-002
8.157545e+002,2.991351e-002
8.176830e+002,2.973479e-002
8.196115e+002,2.961002e-002
8.215399e+002,2.968224e-002
8.234684e+002,2.975246e-002
8.253970e+002,2.975888e-002
8.273254e+002,2.976907e-002
8.292539e+002,2.986006e-002
8.311824e+002,3.002893e-002
8.331110e+002,3.013237e-002
8.350394e+002,3.018568e-002
8.369679e+002,3.024184e-002
8.388964e+002,3.025307e-002
8.408250e+002,3.019268e-002
8.427534e+002,3.012413e-002
8.446819e+002,3.011898e-002
8.466104e+002,3.013851e-002
8.485389e+002,3.018852e-002
8.504674e+002,3.022077e-002
8.523959e+002,3.026738e-002
8.543244e+002,3.038285e-002
8.562529e+002,3.049957e-002
8.581814e+002,3.056313e-002
8.601099e+002,3.064465e-002
8.620384e+002,3.077666e-002
8.639669e+002,3.084381e-002
8.658954e+002,3.084317e-002
8.678239e+002,3.081863e-002
8.697524e+002,3.084314e-002
8.716809e+002,3.090970e-002
8.736094e+002,3.107965e-002
8.755378e+002,3.127125e-002
8.774664e+002,3.152877e-002
8.793949e+002,3.181098e-002
8.813234e+002,3.225318e-002
8.832518e+002,3.285469e-002
8.851804e+002,3.345035e-002
8.871089e+002,3.409338e-002
8.890374e+002,3.489335e-002
8.909658e+002,3.557808e-002
8.928943e+002,3.616003e-002
8.948229e+002,3.652756e-002
8.967513e+002,3.664587e-002
8.986798e+002,3.670301e-002
9.006083e+002,3.643711e-002
9.025369e+002,3.615758e-002
9.044653e+002,3.581727e-002
9.063938e+002,3.549207e-002
9.083223e+002,3.538105e-002
9.102509e+002,3.546449e-002
9.121793e+002,3.571555e-002
9.141078e+002,3.588492e-002
9.160364e+002,3.620237e-002
9.179648e+002,3.665243e-002
9.198933e+002,3.693044e-002
9.218218e+002,3.733117e-002
9.237504e+002,3.781709e-002
9.256788e+002,3.820525e-002
9.276073e+002,3.855971e-002
9.295358e+002,3.896908e-002
9.314644e+002,3.938371e-002
9.333928e+002,3.974726e-002
9.353213e+002,4.017546e-002
9.372498e+002,4.072917e-002
9.391783e+002,4.126406e-002
9.411068e+002,4.181358e-002
9.430353e+002,4.251545e-002
9.449637e+002,4.327637e-002
9.468923e+002,4.401725e-002
9.488208e+002,4.490575e-002
9.507493e+002,4.588128e-002
9.526777e+002,4.682166e-002
9.546063e+002,4.781641e-002
9.565348e+002,4.887404e-002
9.584633e+002,4.986984e-002
9.603917e+002,5.084524e-002
9.623203e+002,5.192621e-002
9.642488e+002,5.296408e-002
9.661772e+002,5.398240e-002
9.681057e+002,5.499728e-002
9.700343e+002,5.601975e-002
9.719628e+002,5.713086e-002
9.738912e+002,5.825373e-002
9.758197e+002,5.939694e-002
9.777483e+002,6.066154e-002
9.796768e+002,6.190113e-002
9.816052e+002,6.322245e-002
9.835337e+002,6.451389e-002
9.854623e+002,6.558269e-002
9.873907e+002,6.637728e-002
9.893192e+002,6.706969e-002
9.912477e+002,6.749814e-002
9.931763e+002,6.770290e-002
9.951047e+002,6.789509e-002
9.970332e+002,6.813927e-002
9.989617e+002,6.851163e-002
1.000890e+003,6.897440e-002
1.002819e+003,6.947055e-002
1.004747e+003,6.998542e-002
1.006676e+003,7.047752e-002
1.008604e+003,7.098651e-002
1.010533e+003,7.154255e-002
1.012461e+003,7.218182e-002
1.014390e+003,7.288727e-002
1.016318e+003,7.362940e-002
1.018247e+003,7.432014e-002
1.020175e+003,7.491339e-002
1.022104e+003,7.527186e-002
1.024032e+003,7.571495e-002
1.025961e+003,7.613584e-002
1.027889e+003,7.634456e-002
1.029818e+003,7.643238e-002
1.031746e+003,7.645822e-002
1.033675e+003,7.626137e-002
1.035603e+003,7.591301e-002
1.037532e+003,7.535820e-002
1.039460e+003,7.456202e-002
1.041389e+003,7.365979e-002
1.043317e+003,7.288637e-002
1.045246e+003,7.219247e-002
1.047174e+003,7.157061e-002
1.049103e+003,7.092491e-002
1.051031e+003,7.025243e-002
1.052960e+003,6.946184e-002
1.054888e+003,6.843920e-002
1.056817e+003,6.730980e-002
1.058745e+003,6.626380e-002
1.060674e+003,6.510120e-002
1.062602e+003,6.396113e-002
1.064531e+003,6.284846e-002
1.066459e+003,6.187557e-002
1.068388e+003,6.118143e-002
1.070316e+003,6.078443e-002
1.072245e+003,6.054782e-002
1.074173e+003,6.027099e-002
1.076102e+003,5.982310e-002
1.078030e+003,5.908360e-002
1.079959e+003,5.810750e-002
1.081887e+003,5.704984e-002
1.083816e+003,5.606446e-002
1.085744e+003,5.521839e-002
1.087673e+003,5.441228e-002
1.089601e+003,5.365172e-002
1.091530e+003,5.299971e-002
1.093458e+003,5.243029e-002
1.095387e+003,5.202063e-002
1.097315e+003,5.159142e-002
1.099244e+003,5.124507e-002
1.101172e+003,5.095312e-002
1.103101e+003,5.062358e-002
1.105029e+003,5.012639e-002
1.106958e+003,4.953354e-002
1.108886e+003,4.872371e-002
1.110815e+003,4.766685e-002
1.112743e+003,4.663518e-002
1.114672e+003,4.555461e-002
1.116600e+003,4.451167e-002
1.118529e+003,4.363628e-002
1.120457e+003,4.279758e-002
1.122386e+003,4.198300e-002
1.124314e+003,4.108800e-002
1.126243e+003,4.015907e-002
1.128171e+003,3.916612e-002
1.130100e+003,3.821979e-002
1.132028e+003,3.729885e-002
1.133957e+003,3.644940e-002
1.135885e+003,3.587257e-002
1.137814e+003,3.551051e-002
1.139742e+003,3.539439e-002
1.141671e+003,3.546201e-002
1.143599e+003,3.568609e-002
1.145528e+003,3.598588e-002
1.147456e+003,3.633209e-002
1.149385e+003,3.666642e-002
1.151313e+003,3.689877e-002
1.153242e+003,3.696006e-002
1.155170e+003,3.697366e-002
1.157099e+003,3.687460e-002
1.159027e+003,3.657139e-002
1.160956e+003,3.606385e-002
1.162884e+003,3.533645e-002
1.164813e+003,3.432070e-002
1.166741e+003,3.315571e-002
1.168670e+003,3.187383e-002
1.170598e+003,3.058559e-002
1.172526e+003,2.936604e-002
1.174455e+003,2.819550e-002
1.176384e+003,2.718859e-002
1.178312e+003,2.629973e-002
1.180240e+003,2.549567e-002
1.182169e+003,2.491029e-002
1.184098e+003,2.449025e-002
1.186026e+003,2.418963e-002
1.187954e+003,2.405154e-002
1.189883e+003,2.401059e-002
1.191812e+003,2.411735e-002
1.193740e+003,2.435716e-002
1.195668e+003,2.467437e-002
1.197597e+003,2.505137e-002
1.199526e+003,2.542140e-002
1.201454e+003,2.564847e-002
1.203382e+003,2.579307e-002
1.205311e+003,2.590985e-002
1.207240e+003,2.594518e-002
1.209168e+003,2.599125e-002
1.211096e+003,2.610933e-002
1.213025e+003,2.627382e-002
1.214953e+003,2.651350e-002
1.216882e+003,2.679474e-002
1.218810e+003,2.712774e-002
1.220739e+003,2.744652e-002
1.222667e+003,2.781531e-002
1.224596e+003,2.827665e-002
1.226524e+003,2.874152e-002
1.228453e+003,2.906338e-002
1.230381e+003,2.928679e-002
1.232310e+003,2.945564e-002
1.234238e+003,2.955608e-002
1.236167e+003,2.960278e-002
1.238095e+003,2.956884e-002
1.240024e+003,2.945677e-002
1.241952e+003,2.928877e-002
1.243881e+003,2.906204e-002
1.245809e+003,2.877908e-002
1.247738e+003,2.844551e-002
1.249666e+003,2.807376e-002
1.251595e+003,2.770376e-002
1.253523e+003,2.734712e-002
1.255452e+003,2.699751e-002
1.257380e+003,2.662052e-002
1.259309e+003,2.621644e-002
1.261237e+003,2.575487e-002
1.263166e+003,2.528884e-002
1.265094e+003,2.487020e-002
1.267023e+003,2.450207e-002
1.268951e+003,2.408478e-002
1.270880e+003,2.365772e-002
1.272808e+003,2.329728e-002
1.274737e+003,2.298756e-002
1.276665e+003,2.268123e-002
1.278594e+003,2.242204e-002
1.280522e+003,2.223128e-002
1.282451e+003,2.201088e-002
1.284379e+003,2.181662e-002
1.286308e+003,2.174288e-002
1.288236e+003,2.166359e-002
1.290165e+003,2.160159e-002
1.292093e+003,2.164270e-002
1.294022e+003,2.170980e-002
1.295950e+003,2.183910e-002
1.297879e+003,2.202564e-002
1.299807e+003,2.223554e-002
1.301736e+003,2.250048e-002
1.303664e+003,2.272996e-002
1.305593e+003,2.302032e-002
1.307521e+003,2.334716e-002
1.309450e+003,2.361670e-002
1.311378e+003,2.388849e-002
1.313307e+003,2.413832e-002
1.315235e+003,2.428355e-002
1.317164e+003,2.434144e-002
1.319092e+003,2.430372e-002
1.321021e+003,2.420250e-002
1.322949e+003,2.408663e-002
1.324878e+003,2.400256e-002
1.326806e+003,2.391231e-002
1.328735e+003,2.388138e-002
1.330663e+003,2.388273e-002
1.332592e+003,2.386277e-002
1.334520e+003,2.380534e-002
1.336449e+003,2.369716e-002
1.338377e+003,2.352885e-002
1.340306e+003,2.335807e-002
1.342234e+003,2.325034e-002
1.344163e+003,2.320169e-002
1.346091e+003,2.316526e-002
1.348020e+003,2.318087e-002
1.349948e+003,2.326166e-002
1.351877e+003,2.338612e-002
1.353805e+003,2.355736e-002
1.355734e+003,2.372520e-002
1.357662e+003,2.394491e-002
1.359591e+003,2.417715e-002
1.361519e+003,2.441149e-002
1.363448e+003,2.460781e-002
1.365376e+003,2.471399e-002
1.367305e+003,2.477833e-002
1.369233e+003,2.475984e-002
1.371162e+003,2.466539e-002
1.373090e+003,2.444411e-002
1.375019e+003,2.417183e-002
1.376947e+003,2.388975e-002
1.378876e+003,2.354228e-002
1.380804e+003,2.314317e-002
1.382733e+003,2.269189e-002
1.384661e+003,2.230290e-002
1.386590e+003,2.200099e-002
1.388518e+003,2.169868e-002
1.390447e+003,2.145159e-002
1.392375e+003,2.127636e-002
1.394304e+003,2.118042e-002
1.396232e+003,2.111973e-002
1.398161e+003,2.109230e-002
1.400089e+003,2.112478e-002
1.402018e+003,2.121225e-002
1.403946e+003,2.122971e-002
1.405875e+003,2.125245e-002
1.407803e+003,2.135831e-002
1.409732e+003,2.145038e-002
1.411660e+003,2.157759e-002
1.413589e+003,2.176605e-002
1.415517e+003,2.190996e-002
1.417446e+003,2.203746e-002
1.419374e+003,2.216175e-002
1.421303e+003,2.220602e-002
1.423231e+003,2.217218e-002
1.425160e+003,2.206270e-002
1.427088e+003,2.190316e-002
1.429017e+003,2.171981e-002
1.430945e+003,2.146719e-002
1.432874e+003,2.127169e-002
1.434802e+003,2.111600e-002
1.436731e+003,2.093057e-002
1.438659e+003,2.077097e-002
1.440588e+003,2.066606e-002
1.442516e+003,2.057826e-002
1.444445e+003,2.057065e-002
1.446373e+003,2.058055e-002
1.448302e+003,2.059641e-002
1.450230e+003,2.061821e-002
1.452159e+003,2.064490e-002
1.454087e+003,2.059103e-002
1.456016e+003,2.043184e-002
1.457944e+003,2.027799e-002
1.459873e+003,2.013172e-002
1.461801e+003,1.993620e-002
1.463730e+003,1.966123e-002
1.465658e+003,1.928809e-002
1.467587e+003,1.876843e-002
1.469515e+003,1.813458e-002
1.471444e+003,1.750474e-002
1.473372e+003,1.690482e-002
1.475301e+003,1.642948e-002
1.477229e+003,1.607591e-002
1.479158e+003,1.581468e-002
1.481086e+003,1.563275e-002
1.483015e+003,1.556290e-002
1.484943e+003,1.559665e-002
1.486872e+003,1.573581e-002
1.488800e+003,1.594254e-002
1.490729e+003,1.615090e-002
1.492657e+003,1.643352e-002
1.494586e+003,1.679415e-002
1.496514e+003,1.709199e-002
1.498443e+003,1.733216e-002
1.500371e+003,1.761650e-002
1.502300e+003,1.788624e-002
1.504228e+003,1.808810e-002
1.506157e+003,1.824095e-002
1.508085e+003,1.838749e-002
1.510014e+003,1.848161e-002
1.511942e+003,1.852696e-002
1.513871e+003,1.851643e-002
1.515799e+003,1.842195e-002
1.517728e+003,1.817695e-002
1.519656e+003,1.786784e-002
1.521585e+003,1.759320e-002
1.523513e+003,1.737719e-002
1.525442e+003,1.721689e-002
1.527370e+003,1.708399e-002
1.529299e+003,1.704235e-002
1.531227e+003,1.700307e-002
1.533156e+003,1.700262e-002
1.535084e+003,1.698669e-002
1.537013e+003,1.693982e-002
1.538941e+003,1.690467e-002
1.540870e+003,1.688942e-002
1.542798e+003,1.682482e-002
1.544727e+003,1.672992e-002
1.546655e+003,1.665978e-002
1.548584e+003,1.661402e-002
1.550512e+003,1.653515e-002
1.552441e+003,1.647338e-002
1.554369e+003,1.642874e-002
1.556298e+003,1.637411e-002
1.558226e+003,1.628613e-002
1.560155e+003,1.620269e-002
1.562083e+003,1.615379e-002
1.564012e+003,1.611992e-002
1.565940e+003,1.616528e-002
1.567869e+003,1.621901e-002
1.569797e+003,1.630475e-002
1.571726e+003,1.640994e-002
1.573654e+003,1.655092e-002
1.575583e+003,1.672383e-002
1.577511e+003,1.697462e-002
1.579440e+003,1.722883e-002
1.581368e+003,1.746409e-002
1.583297e+003,1.773100e-002
1.585225e+003,1.803875e-002
1.587154e+003,1.835757e-002
1.589082e+003,1.865714e-002
1.591010e+003,1.889116e-002
1.592939e+003,1.910814e-002
1.594868e+003,1.928178e-002
1.596796e+003,1.939054e-002
1.598724e+003,1.948984e-002
1.600653e+003,1.965174e-002
1.602582e+003,1.976768e-002
1.604510e+003,1.986205e-002
1.606438e+003,1.991226e-002
1.608367e+003,2.000032e-002
1.610296e+003,2.009783e-002
1.612224e+003,2.022485e-002
1.614152e+003,2.045383e-002
1.616081e+003,2.070313e-002
1.618010e+003,2.094741e-002
1.619938e+003,2.126847e-002
1.621866e+003,2.157222e-002
1.623795e+003,2.173153e-002
1.625724e+003,2.195868e-002
1.627652e+003,2.215378e-002
1.629580e+003,2.223372e-002
1.631509e+003,2.229610e-002
1.633438e+003,2.227956e-002
1.635366e+003,2.220875e-002
1.637294e+003,2.214286e-002
1.639223e+003,2.210508e-002
1.641151e+003,2.205278e-002
1.643080e+003,2.201527e-002
1.645008e+003,2.198343e-002
1.646937e+003,2.194049e-002
1.648865e+003,2.189169e-002
1.650794e+003,2.183469e-002
1.652722e+003,2.167916e-002
1.654651e+003,2.158987e-002
1.656579e+003,2.144985e-002
1.658508e+003,2.118178e-002
1.660436e+003,2.092772e-002
1.662365e+003,2.061662e-002
1.664293e+003,2.025002e-002
1.666222e+003,1.987471e-002
1.668150e+003,1.951174e-002
1.670079e+003,1.911008e-002
1.672007e+003,1.875303e-002
1.673936e+003,1.841620e-002
1.675864e+003,1.808434e-002
1.677793e+003,1.776913e-002
1.679721e+003,1.749720e-002
1.681650e+003,1.718317e-002
1.683578e+003,1.686158e-002
1.685507e+003,1.661893e-002
1.687435e+003,1.640882e-002
1.689364e+003,1.616256e-002
1.691292e+003,1.594686e-002
1.693221e+003,1.577972e-002
1.695149e+003,1.564841e-002
1.697078e+003,1.544953e-002
1.699006e+003,1.524237e-002
1.700935e+003,1.509183e-002
1.702863e+003,1.495227e-002
1.704792e+003,1.482650e-002
1.706720e+003,1.480195e-002
1.708649e+003,1.481790e-002
1.710577e+003,1.485967e-002
1.712506e+003,1.493675e-002
1.714434e+003,1.510685e-002
1.716363e+003,1.525517e-002
1.718291e+003,1.537951e-002
1.720220e+003,1.549616e-002
1.722148e+003,1.561752e-002
1.724077e+003,1.574371e-002
1.726005e+003,1.583413e-002
1.727934e+003,1.593347e-002
1.729862e+003,1.596452e-002
1.731791e+003,1.588560e-002
1.733719e+003,1.578321e-002
1.735648e+003,1.559792e-002
1.737576e+003,1.535987e-002
1.739505e+003,1.504979e-002
1.741433e+003,1.467675e-002
1.743362e+003,1.426960e-002
1.745290e+003,1.384283e-002
1.747219e+003,1.344393e-002
1.749147e+003,1.306050e-002
1.751076e+003,1.267628e-002
1.753004e+003,1.230232e-002
1.754933e+003,1.195040e-002
1.756861e+003,1.167072e-002
1.758790e+003,1.143764e-002
1.760718e+003,1.116342e-002
1.762647e+003,1.092432e-002
1.764575e+003,1.076347e-002
1.766504e+003,1.062498e-002
1.768432e+003,1.046304e-002
1.770361e+003,1.033574e-002
1.772289e+003,1.026826e-002
1.774218e+003,1.020879e-002
1.776146e+003,1.012927e-002
1.778075e+003,1.007196e-002
1.780003e+003,1.003418e-002
1.781932e+003,1.001256e-002
1.783860e+003,9.984588e-003
1.785789e+003,9.941426e-003
1.787717e+003,9.910647e-003
1.789646e+003,9.931420e-003
1.791574e+003,9.928633e-003
1.793503e+003,9.932684e-003
1.795431e+003,9.926611e-003
1.797360e+003,9.914104e-003
1.799288e+003,9.921672e-003
1.801217e+003,9.917244e-003
1.803145e+003,9.913191e-003
1.805074e+003,9.892200e-003
1.807002e+003,9.813314e-003
1.808931e+003,9.776114e-003
1.810859e+003,9.841166e-003
1.812788e+003,9.811163e-003
1.814716e+003,9.741608e-003
1.816645e+003,9.690773e-003
1.818573e+003,9.699855e-003
1.820502e+003,9.728813e-003
1.822430e+003,9.716040e-003
1.824359e+003,9.597944e-003
1.826287e+003,9.627755e-003
1.828216e+003,9.653131e-003
1.830144e+003,9.622415e-003
1.832073e+003,9.518140e-003
1.834001e+003,9.473806e-003
1.835930e+003,9.517523e-003
1.837858e+003,9.567735e-003
1.839787e+003,9.584746e-003
1.841715e+003,9.531647e-003
1.843644e+003,9.425405e-003
1.845572e+003,9.461067e-003
1.847501e+003,9.496339e-003
1.849429e+003,9.467483e-003
1.851358e+003,9.484999e-003
1.853286e+003,9.481342e-003
1.855215e+003,9.434963e-003
1.857143e+003,9.484160e-003
1.859072e+003,9.419551e-003
1.861000e+003,9.304225e-003
1.862929e+003,9.141679e-003
1.864857e+003,9.152242e-003
1.866786e+003,9.353101e-003
1.868714e+003,9.413670e-003
1.870643e+003,9.294462e-003
1.872571e+003,9.268641e-003
1.874500e+003,9.148869e-003
1.876428e+003,9.149179e-003
1.878357e+003,9.102639e-003
1.880285e+003,9.100080e-003
1.882214e+003,9.148102e-003
1.884142e+003,9.144536e-003
1.886071e+003,9.089980e-003
1.887999e+003,9.013735e-003
1.889928e+003,8.932387e-003
1.891856e+003,8.984903e-003
1.893785e+003,8.828361e-003
1.895713e+003,8.749246e-003
1.897642e+003,8.797363e-003
1.899570e+003,8.927536e-003
1.901499e+003,8.896442e-003
1.903427e+003,8.846973e-003
1.905356e+003,8.737360e-003
1.907284e+003,8.393951e-003
1.909213e+003,8.295442e-003
1.911141e+003,8.484048e-003
1.913070e+003,8.448080e-003
1.914998e+003,8.219119e-003
1.916927e+003,8.265299e-003
1.918855e+003,8.252581e-003
1.920784e+003,8.065910e-003
1.922712e+003,7.891532e-003
1.924641e+003,7.681479e-003
1.926569e+003,7.552671e-003
1.928498e+003,7.387451e-003
1.930426e+003,7.558250e-003
1.932355e+003,7.821574e-003
1.934283e+003,7.689066e-003
1.936212e+003,7.450644e-003
1.938140e+003,7.033386e-003
1.940069e+003,6.457231e-003
1.941997e+003,6.514735e-003
1.943926e+003,6.294511e-003
1.945854e+003,5.790790e-003
1.947783e+003,5.998862e-003
1.949711e+003,5.863443e-003
1.951640e+003,5.666711e-003
1.953568e+003,5.446871e-003
1.955497e+003,5.153779e-003
1.957425e+003,4.573677e-003
1.959354e+003,3.303602e-003
1.961282e+003,2.993525e-003
1.963211e+003,3.183785e-003
1.965139e+003,2.993912e-003
1.967068e+003,2.106856e-003
1.968996e+003,6.419630e-004
1.970925e+003,-5.923273e-004
1.972853e+003,1.259733e-004
1.974782e+003,4.738650e-004
1.976710e+003,-6.746669e-004
1.978639e+003,-1.326420e-003
1.980567e+003,-1.223282e-004
1.982496e+003,1.463967e-003
1.984424e+003,2.469808e-003
1.986353e+003,2.888591e-003
1.988281e+003,3.005035e-003
1.990210e+003,2.642627e-003
1.992138e+003,2.261369e-003
1.994067e+003,2.662423e-003
1.995995e+003,2.842681e-003
1.997924e+003,2.690446e-003
1.999852e+003,2.439643e-003
2.001781e+003,2.174657e-003
2.003709e+003,1.550125e-003
2.005638e+003,7.015450e-004
2.007566e+003,3.992501e-004
2.009495e+003,9.494692e-004
2.011423e+003,2.899927e-004
2.013352e+003,3.485616e-004
2.015280e+003,5.002694e-004
2.017208e+003,-4.031894e-004
2.019137e+003,-8.638413e-004
2.021066e+003,-9.694819e-004
2.022994e+003,-2.595916e-004
2.024922e+003,-2.990719e-004
2.026851e+003,-3.152193e-004
2.028780e+003,-1.013253e-003
2.030708e+003,-1.296713e-003
2.032636e+003,-9.623452e-004
2.034565e+003,-2.629029e-004
2.036494e+003,-7.615253e-004
2.038422e+003,7.755736e-005
2.040350e+003,1.346624e-003
2.042279e+003,2.018107e-003
2.044208e+003,2.174480e-003
2.046136e+003,3.004956e-003
2.048064e+003,3.800736e-003
2.049993e+003,4.687988e-003
2.051921e+003,5.415663e-003
2.053850e+003,4.744793e-003
2.055778e+003,4.660039e-003
2.057707e+003,5.320599e-003
2.059635e+003,5.163234e-003
2.061564e+003,5.231413e-003
2.063492e+003,5.748797e-003
2.065421e+003,6.066453e-003
2.067349e+003,6.332115e-003
2.069278e+003,6.533947e-003
2.071206e+003,6.368310e-003
2.073135e+003,6.282218e-003
2.075063e+003,6.594074e-003
2.076992e+003,6.848594e-003
2.078920e+003,7.313707e-003
2.080849e+003,7.280944e-003
2.082777e+003,7.159082e-003
2.084706e+003,7.250416e-003
2.086634e+003,7.658534e-003
2.088563e+003,7.635741e-003
2.090491e+003,7.345397e-003
2.092420e+003,7.438695e-003
2.094348e+003,7.142400e-003
2.096277e+003,6.847850e-003
2.098205e+003,7.274732e-003
2.100134e+003,7.535363e-003
2.102062e+003,7.051130e-003
2.103991e+003,7.348426e-003
2.105919e+003,7.528958e-003
2.107848e+003,7.723832e-003
2.109776e+003,7.844124e-003
2.111705e+003,7.984395e-003
2.113633e+003,7.787246e-003
2.115562e+003,7.806542e-003
2.117490e+003,8.051561e-003
2.119419e+003,8.046566e-003
2.121347e+003,7.931245e-003
2.123276e+003,7.838119e-003
2.125204e+003,7.587758e-003
2.127133e+003,7.251685e-003
2.129061e+003,6.579950e-003
2.130990e+003,6.178879e-003
2.132918e+003,6.053402e-003
2.134847e+003,5.807425e-003
2.136775e+003,5.652078e-003
2.138704e+003,5.748093e-003
2.140632e+003,5.210110e-003
2.142561e+003,4.802596e-003
2.144489e+003,4.057370e-003
2.146418e+003,2.649645e-003
2.148346e+003,2.534948e-003
2.150275e+003,2.022199e-003
2.152203e+003,7.141284e-004
2.154132e+003,1.858555e-004
2.156060e+003,-4.116609e-004
2.157989e+003,-2.577882e-003
2.159917e+003,-4.106474e-003
2.161846e+003,-2.910329e-003
2.163774e+003,-1.035462e-003
2.165703e+003,-9.511306e-004
2.167631e+003,-5.282990e-004
2.169560e+003,4.847564e-004
2.171488e+003,1.148552e-003
2.173417e+003,1.598973e-003
2.175345e+003,1.517304e-003
2.177274e+003,1.328119e-003
2.179202e+003,1.814727e-003
2.181131e+003,1.744561e-003
2.183059e+003,1.462345e-003
2.184988e+003,1.822280e-003
2.186916e+003,3.010098e-003
2.188845e+003,3.474781e-003
2.190773e+003,3.546463e-003
2.192702e+003,3.605261e-003
2.194630e+003,4.136977e-003
2.196559e+003,4.244435e-003
2.198487e+003,4.365241e-003
2.200416e+003,4.720958e-003
2.202344e+003,5.020115e-003
2.204273e+003,5.316057e-003
2.206201e+003,5.601796e-003
2.208130e+003,5.391500e-003
2.210058e+003,5.607602e-003
2.211987e+003,5.589948e-003
2.213915e+003,4.855366e-003
2.215844e+003,4.817940e-003
2.217772e+003,5.496350e-003
2.219701e+003,5.952112e-003
2.221629e+003,6.064456e-003
2.223558e+003,6.427723e-003
2.225486e+003,6.568311e-003
2.227415e+003,6.772615e-003
2.229343e+003,6.917523e-003
2.231272e+003,7.223140e-003
2.233200e+003,7.065076e-003
2.235129e+003,6.908019e-003
2.237057e+003,7.385887e-003
2.238986e+003,7.710390e-003
2.240914e+003,8.023753e-003
2.242843e+003,7.977706e-003
2.244771e+003,8.235169e-003
2.246700e+003,8.262537e-003
2.248628e+003,8.030057e-003
2.250557e+003,8.452799e-003
2.252485e+003,8.818044e-003
2.254414e+003,8.563312e-003
2.256342e+003,8.479164e-003
2.258271e+003,8.774969e-003
2.260199e+003,9.223296e-003
2.262128e+003,8.951963e-003
2.264056e+003,8.633968e-003
2.265985e+003,8.980241e-003
2.267913e+003,9.207129e-003
2.269842e+003,9.243671e-003
2.271770e+003,9.241991e-003
2.273699e+003,9.335128e-003
2.275627e+003,9.507858e-003
2.277556e+003,9.584497e-003
2.279484e+003,9.971477e-003
2.281413e+003,1.014255e-002
2.283341e+003,9.972516e-003
2.285270e+003,1.002671e-002
2.287198e+003,1.023193e-002
2.289127e+003,1.030198e-002
2.291055e+003,1.027954e-002
2.292984e+003,1.021187e-002
2.294912e+003,1.029859e-002
2.296841e+003,1.036448e-002
2.298769e+003,1.026901e-002
2.300698e+003,1.022726e-002
2.302626e+003,1.010045e-002
2.304555e+003,1.009765e-002
2.306483e+003,1.021833e-002
2.308412e+003,1.023247e-002
2.310340e+003,1.006874e-002
2.312269e+003,1.003143e-002
2.314197e+003,1.007513e-002
2.316125e+003,1.043382e-002
2.318054e+003,1.057346e-002
2.319983e+003,1.045627e-002
2.321911e+003,1.043468e-002
2.323840e+003,1.055576e-002
2.325768e+003,1.051754e-002
2.327697e+003,1.041145e-002
2.329625e+003,1.059296e-002
2.331553e+003,1.067925e-002
2.333482e+003,1.080744e-002
2.335411e+003,1.086388e-002
2.337339e+003,1.074056e-002
2.339268e+003,1.069929e-002
2.341196e+003,1.062254e-002
2.343125e+003,1.073409e-002
2.345053e+003,1.088071e-002
2.346981e+003,1.077428e-002
2.348910e+003,1.094364e-002
2.350839e+003,1.087768e-002
2.352767e+003,1.073965e-002
2.354696e+003,1.093998e-002
2.356624e+003,1.116982e-002
2.358552e+003,1.108107e-002
2.360481e+003,1.095972e-002
2.362409e+003,1.090355e-002
2.364338e+003,1.093816e-002
2.366267e+003,1.081555e-002
2.368195e+003,1.106214e-002
2.370124e+003,1.122944e-002
2.372052e+003,1.154003e-002
2.373980e+003,1.131785e-002
2.375909e+003,1.107638e-002
2.377838e+003,1.114778e-002
2.379766e+003,1.120804e-002
2.381695e+003,1.113344e-002
2.383623e+003,1.103151e-002
2.385552e+003,1.114195e-002
2.387480e+003,1.113894e-002
2.389408e+003,1.101583e-002
2.391337e+003,1.093612e-002
2.393266e+003,1.093512e-002
2.395194e+003,1.094119e-002
2.397123e+003,1.081571e-002
2.399051e+003,1.073087e-002
2.400979e+003,1.086447e-002
2.402908e+003,1.098767e-002
2.404836e+003,1.101945e-002
2.406765e+003,1.101513e-002
2.408694e+003,1.092141e-002
2.410622e+003,1.093048e-002
2.412551e+003,1.094876e-002
2.414479e+003,1.094849e-002
2.416407e+003,1.091359e-002
2.418336e+003,1.082954e-002
2.420264e+003,1.081018e-002
2.422193e+003,1.079564e-002
2.424122e+003,1.084350e-002
2.426050e+003,1.082343e-002
2.427979e+003,1.079843e-002
2.429907e+003,1.086012e-002
2.431835e+003,1.078616e-002
2.433764e+003,1.075841e-002
2.435692e+003,1.076388e-002
2.437621e+003,1.074866e-002
2.439550e+003,1.082506e-002
2.441478e+003,1.078800e-002
2.443406e+003,1.069151e-002
2.445335e+003,1.064923e-002
2.447263e+003,1.078188e-002
2.449192e+003,1.081327e-002
2.451121e+003,1.071878e-002
2.453049e+003,1.067205e-002
2.454978e+003,1.072014e-002
2.456906e+003,1.082543e-002
2.458834e+003,1.083202e-002
2.460763e+003,1.083219e-002
2.462691e+003,1.090394e-002
2.464620e+003,1.096918e-002
2.466549e+003,1.101877e-002
2.468477e+003,1.098787e-002
2.470406e+003,1.103953e-002
2.472334e+003,1.097894e-002
2.474262e+003,1.095739e-002
2.476191e+003,1.106944e-002
2.478119e+003,1.114477e-002
2.480048e+003,1.107083e-002
2.481977e+003,1.102091e-002
2.483905e+003,1.115568e-002
2.485833e+003,1.098230e-002
2.487762e+003,1.089154e-002
2.489690e+003,1.088590e-002
2.491619e+003,1.083443e-002
2.493547e+003,1.096460e-002
2.495476e+003,1.093388e-002
2.497405e+003,1.091944e-002
2.499333e+003,1.098835e-002
2.501261e+003,1.104840e-002
2.503190e+003,1.107801e-002
2.505118e+003,1.111543e-002
2.507047e+003,1.108351e-002
2.508975e+003,1.102091e-002
2.510904e+003,1.098019e-002
2.512833e+003,1.091988e-002
2.514761e+003,1.106761e-002
2.516689e+003,1.114800e-002
2.518618e+003,1.116285e-002
2.520546e+003,1.116479e-002
2.522475e+003,1.111037e-002
2.524403e+003,1.115643e-002
2.526332e+003,1.109215e-002
2.528260e+003,1.119532e-002
2.530189e+003,1.130260e-002
2.532117e+003,1.128189e-002
2.534046e+003,1.122956e-002
2.535974e+003,1.126652e-002
2.537903e+003,1.124595e-002
2.539831e+003,1.122725e-002
2.541760e+003,1.120960e-002
2.543688e+003,1.125595e-002
2.545617e+003,1.138365e-002
2.547545e+003,1.131536e-002
2.549474e+003,1.131250e-002
2.551402e+003,1.148339e-002
2.553331e+003,1.151895e-002
2.555259e+003,1.143131e-002
2.557188e+003,1.152419e-002
2.559116e+003,1.163553e-002
2.561045e+003,1.165085e-002
2.562973e+003,1.166681e-002
2.564902e+003,1.167338e-002
2.566830e+003,1.166466e-002
2.568759e+003,1.174687e-002
2.570687e+003,1.170673e-002
2.572616e+003,1.151296e-002
2.574544e+003,1.166300e-002
2.576473e+003,1.178524e-002
2.578401e+003,1.175051e-002
2.580330e+003,1.173369e-002
2.582258e+003,1.175837e-002
2.584187e+003,1.186477e-002
2.586115e+003,1.185875e-002
2.588044e+003,1.182633e-002
2.589972e+003,1.183941e-002
2.591901e+003,1.184152e-002
2.593829e+003,1.201854e-002
2.595758e+003,1.215002e-002
2.597686e+003,1.204362e-002
2.599615e+003,1.205298e-002
2.601543e+003,1.213182e-002
2.603472e+003,1.217295e-002
2.605400e+003,1.220011e-002
2.607329e+003,1.224768e-002
2.609257e+003,1.226639e-002
2.611186e+003,1.221548e-002
2.613114e+003,1.226517e-002
2.615043e+003,1.238536e-002
2.616971e+003,1.245570e-002
2.618900e+003,1.241656e-002
2.620828e+003,1.238901e-002
2.622757e+003,1.240047e-002
2.624685e+003,1.251207e-002
2.626614e+003,1.266982e-002
2.628542e+003,1.267869e-002
2.630471e+003,1.261132e-002
2.632399e+003,1.260948e-002
2.634328e+003,1.267719e-002
2.636256e+003,1.272717e-002
2.638185e+003,1.276682e-002
2.640113e+003,1.279289e-002
2.642042e+003,1.279125e-002
2.643970e+003,1.282610e-002
2.645899e+003,1.294412e-002
2.647827e+003,1.296761e-002
2.649756e+003,1.293074e-002
2.651684e+003,1.292159e-002
2.653613e+003,1.296382e-002
2.655541e+003,1.307284e-002
2.657470e+003,1.311299e-002
2.659398e+003,1.310504e-002
2.661327e+003,1.311760e-002
2.663255e+003,1.308704e-002
2.665184e+003,1.310729e-002
2.667112e+003,1.311648e-002
2.669041e+003,1.313915e-002
2.670969e+003,1.314438e-002
2.672898e+003,1.314581e-002
2.674826e+003,1.314059e-002
2.676755e+003,1.318554e-002
2.678683e+003,1.321272e-002
2.680612e+003,1.320131e-002
2.682540e+003,1.321443e-002
2.684469e+003,1.324012e-002
2.686397e+003,1.325812e-002
2.688326e+003,1.322707e-002
2.690254e+003,1.321484e-002
2.692183e+003,1.327999e-002
2.694111e+003,1.331268e-002
2.696040e+003,1.331476e-002
2.697968e+003,1.325474e-002
2.699897e+003,1.327797e-002
2.701825e+003,1.337483e-002
2.703754e+003,1.332553e-002
2.705682e+003,1.328764e-002
2.707611e+003,1.332949e-002
2.709539e+003,1.335426e-002
2.711468e+003,1.335498e-002
2.713396e+003,1.332238e-002
2.715325e+003,1.339363e-002
2.717253e+003,1.343802e-002
2.719182e+003,1.345056e-002
2.721110e+003,1.344906e-002
2.723039e+003,1.345883e-002
2.724967e+003,1.344967e-002
2.726896e+003,1.348036e-002
2.728824e+003,1.349369e-002
2.730753e+003,1.349451e-002
2.732681e+003,1.350805e-002
2.734610e+003,1.351704e-002
2.736538e+003,1.351690e-002
2.738467e+003,1.354678e-002
2.740395e+003,1.361317e-002
2.742324e+003,1.362903e-002
2.744252e+003,1.358674e-002
2.746181e+003,1.356339e-002
2.748109e+003,1.361717e-002
2.750038e+003,1.364332e-002
2.751966e+003,1.368220e-002
2.753895e+003,1.364667e-002
2.755823e+003,1.368924e-002
2.757752e+003,1.370559e-002
2.759680e+003,1.364961e-002
2.761609e+003,1.366356e-002
2.763537e+003,1.371845e-002
2.765466e+003,1.375945e-002
2.767394e+003,1.379150e-002
2.769323e+003,1.377542e-002
2.771251e+003,1.376725e-002
2.773180e+003,1.384281e-002
2.775108e+003,1.388396e-002
2.777037e+003,1.382704e-002
2.778965e+003,1.384500e-002
2.780894e+003,1.392994e-002
2.782822e+003,1.396912e-002
2.784750e+003,1.397798e-002
2.786679e+003,1.402137e-002
2.788608e+003,1.402952e-002
2.790536e+003,1.401949e-002
2.792465e+003,1.399879e-002
2.794393e+003,1.401401e-002
2.796322e+003,1.409198e-002
2.798250e+003,1.409759e-002
2.800178e+003,1.413757e-002
2.802107e+003,1.420812e-002
2.804036e+003,1.426725e-002
2.805964e+003,1.431026e-002
2.807893e+003,1.434327e-002
2.809821e+003,1.438074e-002
2.811750e+003,1.441215e-002
2.813678e+003,1.444380e-002
2.815606e+003,1.451022e-002
2.817535e+003,1.457217e-002
2.819464e+003,1.467847e-002
2.821392e+003,1.472988e-002
2.823321e+003,1.482385e-002
2.825249e+003,1.487747e-002
2.827177e+003,1.495226e-002
2.829106e+003,1.504027e-002
2.831034e+003,1.505368e-002
2.832963e+003,1.518299e-002
2.834892e+003,1.535232e-002
2.836820e+003,1.540783e-002
2.838749e+003,1.545058e-002
2.840677e+003,1.559446e-002
2.842605e+003,1.578763e-002
2.844534e+003,1.596314e-002
2.846462e+003,1.611349e-002
2.848391e+003,1.631820e-002
2.850320e+003,1.645659e-002
2.852248e+003,1.654236e-002
2.854177e+003,1.667239e-002
2.856105e+003,1.673044e-002
2.858033e+003,1.681478e-002
2.859962e+003,1.691175e-002
2.861890e+003,1.695905e-002
2.863819e+003,1.707307e-002
2.865748e+003,1.718174e-002
2.867676e+003,1.722335e-002
2.869604e+003,1.722832e-002
2.871533e+003,1.729651e-002
2.873461e+003,1.740466e-002
2.875390e+003,1.744512e-002
2.877319e+003,1.748678e-002
2.879247e+003,1.752759e-002
2.881176e+003,1.748699e-002
2.883104e+003,1.754381e-002
2.885032e+003,1.761602e-002
2.886961e+003,1.759128e-002
2.888889e+003,1.763045e-002
2.890818e+003,1.767890e-002
2.892747e+003,1.777968e-002
2.894675e+003,1.780854e-002
2.896604e+003,1.773957e-002
2.898532e+003,1.769795e-002
2.900460e+003,1.768566e-002
2.902389e+003,1.774243e-002
2.904317e+003,1.784012e-002
2.906246e+003,1.782583e-002
2.908175e+003,1.782169e-002
2.910103e+003,1.786730e-002
2.912031e+003,1.791204e-002
2.913960e+003,1.796519e-002
2.915888e+003,1.792914e-002
2.917817e+003,1.791467e-002
2.919745e+003,1.796001e-002
2.921674e+003,1.801516e-002
2.923603e+003,1.802867e-002
2.925531e+003,1.787755e-002
2.927459e+003,1.780961e-002
2.929388e+003,1.772746e-002
2.931316e+003,1.761499e-002
2.933245e+003,1.746105e-002
2.935173e+003,1.730329e-002
2.937102e+003,1.716419e-002
2.939031e+003,1.704245e-002
2.940959e+003,1.688381e-002
2.942887e+003,1.667806e-002
2.944816e+003,1.651081e-002
2.946744e+003,1.636845e-002
2.948673e+003,1.618482e-002
2.950601e+003,1.599628e-002
2.952530e+003,1.588865e-002
2.954458e+003,1.578845e-002
2.956387e+003,1.571075e-002
2.958315e+003,1.559571e-002
2.960244e+003,1.551342e-002
2.962172e+003,1.541563e-002
2.964101e+003,1.527457e-002
2.966029e+003,1.514767e-002
2.967958e+003,1.502843e-002
2.969886e+003,1.488946e-002
2.971815e+003,1.482173e-002
2.973743e+003,1.470114e-002
2.975672e+003,1.462515e-002
2.977600e+003,1.455611e-002
2.979529e+003,1.451479e-002
2.981457e+003,1.446197e-002
2.983386e+003,1.429287e-002
2.985314e+003,1.420581e-002
2.987243e+003,1.414486e-002
2.989171e+003,1.406745e-002
2.991100e+003,1.410013e-002
2.993028e+003,1.412384e-002
2.994957e+003,1.411208e-002
2.996885e+003,1.407968e-002
2.998814e+003,1.400700e-002
3.000742e+003,1.399716e-002
3.002671e+003,1.409904e-002
3.004599e+003,1.418987e-002
3.006528e+003,1.416687e-002
3.008456e+003,1.409560e-002
3.010385e+003,1.411609e-002
3.012313e+003,1.411823e-002
3.014242e+003,1.412002e-002
3.016170e+003,1.412530e-002
3.018099e+003,1.416230e-002
3.020027e+003,1.424782e-002
3.021956e+003,1.426105e-002
3.023884e+003,1.431333e-002
3.025813e+003,1.430346e-002
3.027741e+003,1.428136e-002
3.029670e+003,1.427903e-002
3.031598e+003,1.434621e-002
3.033527e+003,1.446669e-002
3.035455e+003,1.449133e-002
3.037384e+003,1.454025e-002
3.039312e+003,1.463814e-002
3.041241e+003,1.469092e-002
3.043169e+003,1.475361e-002
3.045098e+003,1.475736e-002
3.047026e+003,1.474227e-002
3.048955e+003,1.484571e-002
3.050883e+003,1.493596e-002
3.052812e+003,1.497651e-002
3.054740e+003,1.499913e-002
3.056669e+003,1.506718e-002
3.058597e+003,1.516619e-002
3.060526e+003,1.519351e-002
3.062454e+003,1.517030e-002
3.064383e+003,1.522309e-002
3.066311e+003,1.529634e-002
3.068240e+003,1.533945e-002
3.070168e+003,1.545499e-002
3.072097e+003,1.557356e-002
3.074025e+003,1.557178e-002
3.075954e+003,1.554260e-002
3.077882e+003,1.554766e-002
3.079811e+003,1.562978e-002
3.081739e+003,1.572708e-002
3.083668e+003,1.571779e-002
3.085596e+003,1.583217e-002
3.087525e+003,1.587277e-002
3.089453e+003,1.593809e-002
3.091382e+003,1.602517e-002
3.093310e+003,1.601533e-002
3.095239e+003,1.603714e-002
3.097167e+003,1.615428e-002
3.099096e+003,1.621540e-002
3.101024e+003,1.627222e-002
3.102953e+003,1.633277e-002
3.104881e+003,1.635128e-002
3.106810e+003,1.639323e-002
3.108738e+003,1.645362e-002
3.110667e+003,1.652426e-002
3.112595e+003,1.657312e-002
3.114524e+003,1.669603e-002
3.116452e+003,1.682200e-002
3.118381e+003,1.686050e-002
3.120309e+003,1.685900e-002
3.122238e+003,1.697457e-002
3.124166e+003,1.707439e-002
3.126095e+003,1.707530e-002
3.128023e+003,1.710656e-002
3.129952e+003,1.716554e-002
3.131880e+003,1.727394e-002
3.133809e+003,1.739524e-002
3.135737e+003,1.752985e-002
3.137666e+003,1.755789e-002
3.139594e+003,1.760438e-002
3.141523e+003,1.766902e-002
3.143451e+003,1.784183e-002
3.145380e+003,1.791898e-002
3.147308e+003,1.797344e-002
3.149237e+003,1.799996e-002
3.151165e+003,1.807547e-002
3.153094e+003,1.818339e-002
3.155022e+003,1.826335e-002
3.156951e+003,1.836291e-002
3.158879e+003,1.844658e-002
3.160808e+003,1.843162e-002
3.162736e+003,1.854165e-002
3.164665e+003,1.870487e-002
3.166593e+003,1.876345e-002
3.168522e+003,1.888026e-002
3.170450e+003,1.893255e-002
3.172379e+003,1.898412e-002
3.174307e+003,1.901473e-002
3.176236e+003,1.909567e-002
3.178164e+003,1.923230e-002
3.180093e+003,1.932903e-002
3.182021e+003,1.938148e-002
3.183950e+003,1.947591e-002
3.185878e+003,1.956923e-002
3.187807e+003,1.967213e-002
3.189735e+003,1.976960e-002
3.191664e+003,1.984392e-002
3.193592e+003,1.995683e-002
3.195521e+003,2.002784e-002
3.197449e+003,2.005220e-002
3.199378e+003,2.023329e-002
3.201306e+003,2.037765e-002
3.203235e+003,2.044405e-002
3.205163e+003,2.049875e-002
3.207092e+003,2.058540e-002
3.209020e+003,2.070193e-002
3.210948e+003,2.072220e-002
3.212877e+003,2.085504e-002
3.214806e+003,2.098225e-002
3.216734e+003,2.108177e-002
3.218663e+003,2.110954e-002
3.220591e+003,2.106197e-002
3.222520e+003,2.118084e-002
3.224448e+003,2.139156e-002
3.226376e+003,2.146471e-002
3.228305e+003,2.158142e-002
3.230234e+003,2.165944e-002
3.232162e+003,2.168005e-002
3.234091e+003,2.184404e-002
3.236019e+003,2.196149e-002
3.237948e+003,2.189837e-002
3.239876e+003,2.202697e-002
3.241804e+003,2.219778e-002
3.243733e+003,2.228363e-002
3.245662e+003,2.238795e-002
3.247590e+003,2.241717e-002
3.249519e+003,2.248828e-002
3.251447e+003,2.261166e-002
3.253375e+003,2.266601e-002
3.255304e+003,2.261493e-002
3.257232e+003,2.265632e-002
3.259161e+003,2.282454e-002
3.261090e+003,2.299897e-002
3.263018e+003,2.308254e-002
3.264947e+003,2.310870e-002
3.266875e+003,2.314991e-002
3.268803e+003,2.316406e-002
3.270732e+003,2.329260e-002
3.272660e+003,2.335992e-002
3.274589e+003,2.343387e-002
3.276518e+003,2.352222e-002
3.278446e+003,2.352137e-002
3.280375e+003,2.359695e-002
3.282303e+003,2.373362e-002
3.284231e+003,2.373479e-002
3.286160e+003,2.369590e-002
3.288088e+003,2.373479e-002
3.290017e+003,2.380225e-002
3.291946e+003,2.380024e-002
3.293874e+003,2.372537e-002
3.295802e+003,2.368587e-002
3.297731e+003,2.371169e-002
3.299659e+003,2.376110e-002
3.301588e+003,2.379116e-002
3.303516e+003,2.382069e-002
3.305445e+003,2.379017e-002
3.307374e+003,2.377539e-002
3.309302e+003,2.373096e-002
3.311230e+003,2.379015e-002
3.313159e+003,2.389638e-002
3.315087e+003,2.390123e-002
3.317016e+003,2.383800e-002
3.318944e+003,2.387521e-002
3.320873e+003,2.395191e-002
3.322802e+003,2.392413e-002
3.324730e+003,2.389046e-002
3.326658e+003,2.399395e-002
3.328587e+003,2.397505e-002
3.330515e+003,2.389295e-002
3.332444e+003,2.388228e-002
3.334372e+003,2.386149e-002
3.336301e+003,2.384618e-002
3.338229e+003,2.390958e-002
3.340158e+003,2.382928e-002
3.342086e+003,2.372423e-002
3.344015e+003,2.372990e-002
3.345943e+003,2.371501e-002
3.347872e+003,2.367629e-002
3.349800e+003,2.370682e-002
3.351729e+003,2.364512e-002
3.353657e+003,2.355825e-002
3.355586e+003,2.347786e-002
3.357514e+003,2.343040e-002
3.359443e+003,2.339869e-002
3.361371e+003,2.327084e-002
3.363300e+003,2.318594e-002
3.365229e+003,2.314761e-002
3.367157e+003,2.314078e-002
3.369085e+003,2.303930e-002
3.371014e+003,2.299364e-002
3.372942e+003,2.290854e-002
3.374871e+003,2.288241e-002
3.376799e+003,2.279363e-002
3.378728e+003,2.269121e-002
3.380656e+003,2.263535e-002
3.382585e+003,2.257596e-002
3.384513e+003,2.254979e-002
3.386442e+003,2.245137e-002
3.388370e+003,2.239206e-002
3.390299e+003,2.234598e-002
3.392227e+003,2.227042e-002
3.394156e+003,2.219845e-002
3.396084e+003,2.217649e-002
3.398013e+003,2.213194e-002
3.399941e+003,2.205916e-002
3.401870e+003,2.206214e-002
3.403798e+003,2.198034e-002
3.405727e+003,2.187649e-002
3.407655e+003,2.175097e-002
3.409584e+003,2.154712e-002
3.411512e+003,2.143231e-002
3.413441e+003,2.144485e-002
3.415369e+003,2.135728e-002
3.417298e+003,2.116721e-002
3.419226e+003,2.104619e-002
3.421155e+003,2.095989e-002
3.423083e+003,2.084874e-002
3.425012e+003,2.072641e-002
3.426940e+003,2.061837e-002
3.428869e+003,2.050789e-002
3.430797e+003,2.042364e-002
3.432726e+003,2.028134e-002
3.434654e+003,2.006030e-002
3.436583e+003,1.989050e-002
3.438511e+003,1.980359e-002
3.440440e+003,1.977658e-002
3.442368e+003,1.971898e-002
3.444297e+003,1.956430e-002
3.446225e+003,1.942688e-002
3.448154e+003,1.918060e-002
3.450082e+003,1.906756e-002
3.452011e+003,1.901204e-002
3.453939e+003,1.884264e-002
3.455868e+003,1.879204e-002
3.457796e+003,1.872802e-002
3.459725e+003,1.858547e-002
3.461653e+003,1.843845e-002
3.463582e+003,1.827387e-002
3.465510e+003,1.811945e-002
3.467439e+003,1.802237e-002
3.469367e+003,1.790936e-002
3.471296e+003,1.774649e-002
3.473224e+003,1.764350e-002
3.475153e+003,1.756875e-002
3.477081e+003,1.750790e-002
3.479010e+003,1.728307e-002
3.480938e+003,1.712657e-002
3.482867e+003,1.697092e-002
3.484795e+003,1.686496e-002
3.486724e+003,1.677612e-002
3.488652e+003,1.660625e-002
3.490581e+003,1.652708e-002
3.492509e+003,1.636957e-002
3.494438e+003,1.616135e-002
3.496366e+003,1.602310e-002
3.498295e+003,1.600422e-002
3.500223e+003,1.586582e-002
3.502152e+003,1.566389e-002
3.504080e+003,1.550051e-002
3.506009e+003,1.551775e-002
3.507937e+003,1.543806e-002
3.509866e+003,1.520050e-002
3.511794e+003,1.503597e-002
3.513723e+003,1.504245e-002
3.515651e+003,1.496917e-002
3.517580e+003,1.484760e-002
3.519508e+003,1.469780e-002
3.521437e+003,1.449821e-002
3.523365e+003,1.430338e-002
3.525294e+003,1.421559e-002
3.527222e+003,1.408441e-002
3.529151e+003,1.395214e-002
3.531079e+003,1.387350e-002
3.533008e+003,1.378514e-002
3.534936e+003,1.373777e-002
3.536865e+003,1.361997e-002
3.538793e+003,1.343934e-002
3.540722e+003,1.325204e-002
3.542650e+003,1.322713e-002
3.544579e+003,1.317101e-002
3.546507e+003,1.296267e-002
3.548436e+003,1.281865e-002
3.550364e+003,1.273444e-002
3.552293e+003,1.259267e-002
3.554221e+003,1.253152e-002
3.556150e+003,1.238231e-002
3.558078e+003,1.224103e-002
3.560007e+003,1.214279e-002
3.561935e+003,1.213521e-002
3.563864e+003,1.204087e-002
3.565792e+003,1.190865e-002
3.567721e+003,1.174704e-002
3.569649e+003,1.163745e-002
3.571578e+003,1.153511e-002
3.573506e+003,1.147698e-002
3.575435e+003,1.139628e-002
3.577363e+003,1.124715e-002
3.579292e+003,1.122306e-002
3.581220e+003,1.112455e-002
3.583149e+003,1.101183e-002
3.585077e+003,1.090879e-002
3.587006e+003,1.089852e-002
3.588934e+003,1.088645e-002
3.590863e+003,1.081632e-002
3.592791e+003,1.079369e-002
3.594720e+003,1.075626e-002
3.596648e+003,1.068925e-002
3.598577e+003,1.061799e-002
3.600505e+003,1.055251e-002
3.602434e+003,1.054814e-002
3.604362e+003,1.042719e-002
3.606291e+003,1.025377e-002
3.608219e+003,1.024040e-002
3.610148e+003,1.003213e-002
3.612076e+003,9.869243e-003
3.614005e+003,9.843377e-003
3.615933e+003,9.943601e-003
3.617862e+003,9.938926e-003
3.619790e+003,9.944743e-003
3.621719e+003,1.005366e-002
3.623647e+003,1.002951e-002
3.625576e+003,9.993906e-003
3.627504e+003,9.907288e-003
3.629433e+003,9.816846e-003
3.631361e+003,9.733418e-003
3.633290e+003,9.527517e-003
3.635218e+003,9.364828e-003
3.637146e+003,9.371882e-003
3.639075e+003,9.341342e-003
3.641004e+003,9.184229e-003
3.642932e+003,9.049057e-003
3.644861e+003,8.982379e-003
3.646789e+003,9.007094e-003
3.648718e+003,8.980043e-003
3.650646e+003,8.931044e-003
3.652574e+003,8.872112e-003
3.654503e+003,8.856351e-003
3.656432e+003,8.806154e-003
3.658360e+003,8.704848e-003
3.660289e+003,8.809321e-003
3.662217e+003,8.869129e-003
3.664146e+003,8.797006e-003
3.666074e+003,8.646952e-003
3.668002e+003,8.624823e-003
3.669931e+003,8.714091e-003
3.671860e+003,8.773644e-003
3.673788e+003,8.789673e-003
3.675717e+003,8.811987e-003
3.677645e+003,8.785157e-003
3.679573e+003,8.684870e-003
3.681502e+003,8.668195e-003
3.683430e+003,8.778458e-003
3.685359e+003,8.750986e-003
3.687288e+003,8.758152e-003
3.689216e+003,8.893841e-003
3.691145e+003,9.018496e-003
3.693073e+003,9.077568e-003
3.695001e+003,8.978541e-003
3.696930e+003,8.945613e-003
3.698858e+003,9.080091e-003
3.700787e+003,9.077991e-003
3.702716e+003,9.135205e-003
3.704644e+003,9.202810e-003
3.706573e+003,9.224813e-003
3.708501e+003,9.093352e-003
3.710429e+003,9.035552e-003
3.712358e+003,8.855407e-003
3.714286e+003,8.764626e-003
3.716215e+003,8.854353e-003
3.718144e+003,8.981917e-003
3.720072e+003,9.149157e-003
3.722000e+003,9.321151e-003
3.723929e+003,9.502627e-003
3.725857e+003,9.516896e-003
3.727786e+003,9.445906e-003
3.729714e+003,9.558015e-003
3.731643e+003,9.593097e-003
3.733572e+003,9.450092e-003
3.735500e+003,9.316696e-003
3.737428e+003,9.262086e-003
3.739357e+003,9.161482e-003
3.741285e+003,8.921443e-003
3.743214e+003,8.768733e-003
3.745142e+003,8.800863e-003
3.747071e+003,8.763580e-003
3.749000e+003,8.786300e-003
3.750928e+003,8.847579e-003
3.752856e+003,8.835754e-003
3.754785e+003,8.844554e-003
3.756713e+003,8.885113e-003
3.758642e+003,8.876584e-003
3.760570e+003,8.850022e-003
3.762499e+003,8.779393e-003
3.764427e+003,8.721152e-003
3.766356e+003,8.765616e-003
3.768284e+003,8.802502e-003
3.770213e+003,8.781570e-003
3.772141e+003,8.817087e-003
3.774070e+003,8.820286e-003
3.775998e+003,8.817669e-003
3.777927e+003,8.829960e-003
3.779855e+003,8.831517e-003
3.781784e+003,8.834140e-003
3.783712e+003,8.764968e-003
3.785641e+003,8.827380e-003
3.787569e+003,8.856350e-003
3.789498e+003,8.828746e-003
3.791426e+003,8.884194e-003
3.793355e+003,8.914244e-003
3.795283e+003,8.881996e-003
3.797212e+003,8.934011e-003
3.799140e+003,8.941179e-003
3.801069e+003,8.864801e-003
3.802997e+003,8.878848e-003
3.804926e+003,8.907748e-003
3.806854e+003,8.836776e-003
3.808783e+003,8.856043e-003
3.810711e+003,8.966633e-003
3.812640e+003,8.961945e-003
3.814568e+003,8.884667e-003
3.816497e+003,8.980780e-003
3.818425e+003,9.077176e-003
3.820354e+003,8.946034e-003
3.822282e+003,8.912694e-003
3.824211e+003,8.980266e-003
3.826139e+003,8.990848e-003
3.828068e+003,8.925959e-003
3.829996e+003,8.921479e-003
3.831925e+003,8.944829e-003
3.833853e+003,8.958335e-003
3.835782e+003,8.996855e-003
3.837710e+003,9.012923e-003
3.839639e+003,9.047112e-003
3.841567e+003,9.047181e-003
3.843496e+003,9.037266e-003
3.845424e+003,9.042607e-003
3.847353e+003,9.015016e-003
3.849281e+003,8.946220e-003
3.851210e+003,8.960683e-003
3.853138e+003,9.023909e-003
3.855067e+003,8.975968e-003
3.856995e+003,8.893293e-003
3.858924e+003,8.923413e-003
3.860852e+003,9.006891e-003
3.862781e+003,8.996665e-003
3.864709e+003,8.977135e-003
3.866638e+003,9.013274e-003
3.868566e+003,9.026351e-003
3.870495e+003,9.004067e-003
3.872423e+003,9.035359e-003
3.874352e+003,8.966510e-003
3.876280e+003,8.910745e-003
3.878209e+003,8.932420e-003
3.880137e+003,8.963414e-003
3.882066e+003,9.069364e-003
3.883994e+003,9.111827e-003
3.885923e+003,9.027340e-003
3.887851e+003,9.048959e-003
3.889780e+003,9.019411e-003
3.891708e+003,9.005249e-003
3.893637e+003,9.059642e-003
3.895565e+003,8.952412e-003
3.897494e+003,8.940917e-003
3.899422e+003,9.140168e-003
3.901351e+003,9.119840e-003
3.903279e+003,9.116169e-003
3.905208e+003,9.125328e-003
3.907136e+003,9.084878e-003
3.909065e+003,9.095190e-003
3.910993e+003,9.095291e-003
3.912922e+003,9.019554e-003
3.914850e+003,8.993704e-003
3.916779e+003,9.041184e-003
3.918707e+003,9.122500e-003
3.920636e+003,9.015083e-003
3.922564e+003,9.059331e-003
3.924493e+003,9.121127e-003
3.926421e+003,9.108469e-003
3.928350e+003,9.138878e-003
3.930278e+003,9.142741e-003
3.932207e+003,9.080230e-003
3.934135e+003,9.144620e-003
3.936064e+003,9.121758e-003
3.937992e+003,9.088081e-003
3.939921e+003,9.037430e-003
3.941849e+003,9.129254e-003
3.943778e+003,9.165896e-003
3.945706e+003,9.193837e-003
3.947635e+003,9.141010e-003
3.949563e+003,9.077233e-003
3.951492e+003,9.033607e-003
3.953420e+003,9.009570e-003
3.955349e+003,9.057324e-003
3.957277e+003,9.125407e-003
3.959206e+003,9.098250e-003
3.961134e+003,9.075053e-003
3.963063e+003,9.107274e-003
3.964991e+003,9.056859e-003
3.966920e+003,9.080770e-003
3.968848e+003,9.101878e-003
3.970777e+003,9.118950e-003
3.972705e+003,9.135281e-003
3.974634e+003,9.132213e-003
3.976562e+003,9.196639e-003
3.978491e+003,9.200400e-003
3.980419e+003,9.058246e-003
3.982348e+003,9.026566e-003
3.984276e+003,9.119362e-003
3.986205e+003,9.167430e-003
3.988133e+003,9.080861e-003
3.990062e+003,9.072113e-003
3.991990e+003,9.046097e-003
3.993919e+003,9.064748e-003
3.995847e+003,9.051905e-003
3.997776e+003,9.105352e-003
3.999704e+003,9.105527e-003
4.001633e+003,0.000000e+000
