3.991989e+002,4.817930e-002
4.011274e+002,4.703267e-002
4.030559e+002,4.703267e-002
4.049844e+002,4.622176e-002
4.069129e+002,4.715734e-002
4.088414e+002,4.889025e-002
4.107699e+002,4.896357e-002
4.126984e+002,4.904325e-002
4.146269e+002,5.019204e-002
4.165554e+002,5.032070e-002
4.184839e+002,5.011713e-002
4.204124e+002,5.102124e-002
4.223409e+002,5.213186e-002
4.242694e+002,5.274650e-002
4.261979e+002,5.339972e-002
4.281264e+002,5.466346e-002
4.300549e+002,5.583708e-002
4.319834e+002,5.530374e-002
4.339119e+002,5.499140e-002
4.358404e+002,5.527804e-002
4.377689e+002,5.639501e-002
4.396974e+002,5.728618e-002
4.416259e+002,5.710514e-002
4.435544e+002,5.630897e-002
4.454829e+002,5.617849e-002
4.474114e+002,5.729697e-002
4.493399e+002,5.678513e-002
4.512684e+002,5.634147e-002
4.531969e+002,5.672258e-002
4.551254e+002,5.700373e-002
4.570539e+002,5.727564e-002
4.589824e+002,5.764093e-002
4.609109e+002,5.750297e-002
4.628394e+002,5.694846e-002
4.647679e+002,5.633730e-002
4.666964e+002,5.652494e-002
4.686249e+002,5.570532e-002
4.705533e+002,5.491466e-002
4.724819e+002,5.502750e-002
4.744103e+002,5.453261e-002
4.763389e+002,5.352974e-002
4.782673e+002,5.260282e-002
4.801959e+002,5.168114e-002
4.821243e+002,5.105213e-002
4.840529e+002,5.041642e-002
4.859813e+002,4.960557e-002
4.879099e+002,4.843161e-002
4.898383e+002,4.835876e-002
4.917668e+002,4.766467e-002
4.936953e+002,4.685624e-002
4.956238e+002,4.627144e-002
4.975523e+002,4.614674e-002
4.994808e+002,4.610328e-002
5.014093e+002,4.546816e-002
5.033378e+002,4.531974e-002
5.052663e+002,4.559739e-002
5.071948e+002,4.516821e-002
5.091233e+002,4.509605e-002
5.110518e+002,4.529364e-002
5.129803e+002,4.544310e-002
5.149088e+002,4.570705e-002
5.168373e+002,4.596327e-002
5.187658e+002,4.573524e-002
5.206943e+002,4.592370e-002
5.226228e+002,4.591966e-002
5.245513e+002,4.584400e-002
5.264798e+002,4.577258e-002
5.284083e+002,4.563099e-002
5.303368e+002,4.602657e-002
5.322653e+002,4.579784e-002
5.341938e+002,4.527044e-002
5.361223e+002,4.517871e-002
5.380508e+002,4.516029e-002
5.399792e+002,4.472809e-002
5.419078e+002,4.456781e-002
5.438363e+002,4.510276e-002
5.457648e+002,4.516451e-002
5.476932e+002,4.517660e-002
5.496218e+002,4.525622e-002
5.515503e+002,4.541733e-002
5.534788e+002,4.573083e-002
5.554072e+002,4.584975e-002
5.573358e+002,4.634628e-002
5.592643e+002,4.655697e-002
5.611927e+002,4.634358e-002
5.631212e+002,4.572628e-002
5.650497e+002,4.510097e-002
5.669783e+002,4.491482e-002
5.689067e+002,4.457229e-002
5.708352e+002,4.395085e-002
5.727637e+002,4.384322e-002
5.746923e+002,4.408217e-002
5.766207e+002,4.368684e-002
5.785492e+002,4.366152e-002
5.804777e+002,4.377284e-002
5.824063e+002,4.368731e-002
5.843347e+002,4.347953e-002
5.862632e+002,4.317671e-002
5.881917e+002,4.287489e-002
5.901202e+002,4.309428e-002
5.920487e+002,4.323569e-002
5.939772e+002,4.293868e-002
5.959057e+002,4.267816e-002
5.978342e+002,4.267939e-002
5.997627e+002,4.259188e-002
6.016912e+002,4.232683e-002
6.036197e+002,4.200617e-002
6.055482e+002,4.192731e-002
6.074767e+002,4.202586e-002
6.094052e+002,4.186868e-002
6.113337e+002,4.137861e-002
6.132622e+002,4.090736e-002
6.151907e+002,4.036151e-002
6.171192e+002,4.032244e-002
6.190477e+002,3.963179e-002
6.209762e+002,3.904721e-002
6.229047e+002,3.865256e-002
6.248332e+002,3.799250e-002
6.267617e+002,3.713650e-002
6.286902e+002,3.681194e-002
6.306187e+002,3.672225e-002
6.325472e+002,3.641107e-002
6.344756e+002,3.624400e-002
6.364042e+002,3.601748e-002
6.383326e+002,3.580424e-002
6.402612e+002,3.563469e-002
6.421896e+002,3.535462e-002
6.441182e+002,3.508364e-002
6.460466e+002,3.500820e-002
6.479752e+002,3.505544e-002
6.499036e+002,3.485615e-002
6.518322e+002,3.456901e-002
6.537606e+002,3.453965e-002
6.556891e+002,3.463208e-002
6.576177e+002,3.479471e-002
6.595461e+002,3.476342e-002
6.614746e+002,3.491803e-002
6.634031e+002,3.507156e-002
6.653317e+002,3.514113e-002
6.672601e+002,3.470787e-002
6.691886e+002,3.428438e-002
6.711171e+002,3.392421e-002
6.730457e+002,3.327667e-002
6.749741e+002,3.247866e-002
6.769026e+002,3.165198e-002
6.788311e+002,3.072681e-002
6.807596e+002,2.987910e-002
6.826881e+002,2.938209e-002
6.846166e+002,2.910160e-002
6.865451e+002,2.889339e-002
6.884736e+002,2.861296e-002
6.904021e+002,2.850429e-002
6.923306e+002,2.843302e-002
6.942591e+002,2.836525e-002
6.961876e+002,2.815058e-002
6.981161e+002,2.808332e-002
7.000446e+002,2.800136e-002
7.019731e+002,2.784108e-002
7.039016e+002,2.769255e-002
7.058301e+002,2.752368e-002
7.077585e+002,2.734459e-002
7.096871e+002,2.717076e-002
7.116156e+002,2.704818e-002
7.135441e+002,2.687032e-002
7.154725e+002,2.666609e-002
7.174011e+002,2.664579e-002
7.193296e+002,2.679416e-002
7.212581e+002,2.655166e-002
7.231865e+002,2.597953e-002
7.251151e+002,2.565865e-002
7.270436e+002,2.536420e-002
7.289720e+002,2.524556e-002
7.309005e+002,2.501501e-002
7.328290e+002,2.470986e-002
7.347576e+002,2.461376e-002
7.366860e+002,2.449524e-002
7.386145e+002,2.425143e-002
7.405430e+002,2.398502e-002
7.424716e+002,2.379469e-002
7.444000e+002,2.371431e-002
7.463285e+002,2.349062e-002
7.482570e+002,2.324026e-002
7.501855e+002,2.297674e-002
7.521140e+002,2.287638e-002
7.540425e+002,2.278366e-002
7.559710e+002,2.254770e-002
7.578995e+002,2.242548e-002
7.598280e+002,2.236182e-002
7.617565e+002,2.221543e-002
7.636850e+002,2.220814e-002
7.656135e+002,2.223803e-002
7.675420e+002,2.230339e-002
7.694705e+002,2.222840e-002
7.713990e+002,2.227151e-002
7.733275e+002,2.241799e-002
7.752560e+002,2.256022e-002
7.771844e+002,2.265527e-002
7.791130e+002,2.279555e-002
7.810415e+002,2.301231e-002
7.829700e+002,2.305686e-002
7.848984e+002,2.307776e-002
7.868270e+002,2.314660e-002
7.887555e+002,2.320573e-002
7.906840e+002,2.322716e-002
7.926124e+002,2.321182e-002
7.945410e+002,2.325827e-002
7.964695e+002,2.331015e-002
7.983979e+002,2.347324e-002
8.003264e+002,2.356397e-002
8.022549e+002,2.344260e-002
8.041835e+002,2.337595e-002
8.061119e+002,2.342652e-002
8.080404e+002,2.340337e-002
8.099689e+002,2.339791e-002
8.118975e+002,2.336906e-002
8.138259e+002,2.315376e-002
8.157545e+002,2.305228e-002
8.176830e+002,2.301266e-002
8.196115e+002,2.295548e-002
8.215399e+002,2.287975e-002
8.234684e+002,2.281936e-002
8.253970e+002,2.286138e-002
8.273254e+002,2.289225e-002
8.292539e+002,2.292627e-002
8.311824e+002,2.287549e-002
8.331110e+002,2.285789e-002
8.350394e+002,2.289603e-002
8.369679e+002,2.272977e-002
8.388964e+002,2.247845e-002
8.408250e+002,2.229701e-002
8.427534e+002,2.208820e-002
8.446819e+002,2.175361e-002
8.466104e+002,2.163163e-002
8.485389e+002,2.156404e-002
8.504674e+002,2.151313e-002
8.523959e+002,2.146328e-002
8.543244e+002,2.148096e-002
8.562529e+002,2.154116e-002
8.581814e+002,2.154938e-002
8.601099e+002,2.160771e-002
8.620384e+002,2.175044e-002
8.639669e+002,2.191957e-002
8.658954e+002,2.207241e-002
8.678239e+002,2.222687e-002
8.697524e+002,2.239234e-002
8.716809e+002,2.251817e-002
8.736094e+002,2.277949e-002
8.755378e+002,2.304124e-002
8.774664e+002,2.328564e-002
8.793949e+002,2.362981e-002
8.813234e+002,2.409991e-002
8.832518e+002,2.457019e-002
8.851804e+002,2.507525e-002
8.871089e+002,2.577247e-002
8.890374e+002,2.653177e-002
8.909658e+002,2.738204e-002
8.928943e+002,2.812819e-002
8.948229e+002,2.861051e-002
8.967513e+002,2.874051e-002
8.986798e+002,2.873513e-002
9.006083e+002,2.838311e-002
9.025369e+002,2.792080e-002
9.044653e+002,2.743505e-002
9.063938e+002,2.696497e-002
9.083223e+002,2.669005e-002
9.102509e+002,2.666927e-002
9.121793e+002,2.680796e-002
9.141078e+002,2.687024e-002
9.160364e+002,2.693955e-002
9.179648e+002,2.713959e-002
9.198933e+002,2.735466e-002
9.218218e+002,2.771044e-002
9.237504e+002,2.815767e-002
9.256788e+002,2.847480e-002
9.276073e+002,2.883851e-002
9.295358e+002,2.935406e-002
9.314644e+002,2.990592e-002
9.333928e+002,3.035915e-002
9.353213e+002,3.084161e-002
9.372498e+002,3.137549e-002
9.391783e+002,3.193834e-002
9.411068e+002,3.262728e-002
9.430353e+002,3.336186e-002
9.449637e+002,3.417565e-002
9.468923e+002,3.505949e-002
9.488208e+002,3.595780e-002
9.507493e+002,3.696309e-002
9.526777e+002,3.801494e-002
9.546063e+002,3.909523e-002
9.565348e+002,4.014039e-002
9.584633e+002,4.116216e-002
9.603917e+002,4.222172e-002
9.623203e+002,4.329936e-002
9.642488e+002,4.427055e-002
9.661772e+002,4.512656e-002
9.681057e+002,4.600783e-002
9.700343e+002,4.691704e-002
9.719628e+002,4.776297e-002
9.738912e+002,4.854570e-002
9.758197e+002,4.942860e-002
9.777483e+002,5.052866e-002
9.796768e+002,5.168856e-002
9.816052e+002,5.294020e-002
9.835337e+002,5.409257e-002
9.854623e+002,5.511008e-002
9.873907e+002,5.581564e-002
9.893192e+002,5.625519e-002
9.912477e+002,5.640242e-002
9.931763e+002,5.639514e-002
9.951047e+002,5.644853e-002
9.970332e+002,5.679679e-002
9.989617e+002,5.737897e-002
1.000890e+003,5.815484e-002
1.002819e+003,5.886461e-002
1.004747e+003,5.957511e-002
1.006676e+003,6.026840e-002
1.008604e+003,6.086097e-002
1.010533e+003,6.147083e-002
1.012461e+003,6.226129e-002
1.014390e+003,6.325392e-002
1.016318e+003,6.431908e-002
1.018247e+003,6.534689e-002
1.020175e+003,6.630371e-002
1.022104e+003,6.728736e-002
1.024032e+003,6.827507e-002
1.025961e+003,6.914594e-002
1.027889e+003,6.991605e-002
1.029818e+003,7.055433e-002
1.031746e+003,7.095546e-002
1.033675e+003,7.104719e-002
1.035603e+003,7.069710e-002
1.037532e+003,6.991886e-002
1.039460e+003,6.901642e-002
1.041389e+003,6.810085e-002
1.043317e+003,6.740797e-002
1.045246e+003,6.689367e-002
1.047174e+003,6.661018e-002
1.049103e+003,6.639636e-002
1.051031e+003,6.611612e-002
1.052960e+003,6.571817e-002
1.054888e+003,6.520829e-002
1.056817e+003,6.445719e-002
1.058745e+003,6.357066e-002
1.060674e+003,6.251636e-002
1.062602e+003,6.129722e-002
1.064531e+003,6.001503e-002
1.066459e+003,5.868013e-002
1.068388e+003,5.740286e-002
1.070316e+003,5.631648e-002
1.072245e+003,5.533125e-002
1.074173e+003,5.446178e-002
1.076102e+003,5.357771e-002
1.078030e+003,5.267094e-002
1.079959e+003,5.174223e-002
1.081887e+003,5.089787e-002
1.083816e+003,5.025415e-002
1.085744e+003,4.970779e-002
1.087673e+003,4.924991e-002
1.089601e+003,4.887363e-002
1.091530e+003,4.854111e-002
1.093458e+003,4.822110e-002
1.095387e+003,4.800618e-002
1.097315e+003,4.781179e-002
1.099244e+003,4.765317e-002
1.101172e+003,4.760828e-002
1.103101e+003,4.750470e-002
1.105029e+003,4.721097e-002
1.106958e+003,4.678025e-002
1.108886e+003,4.610362e-002
1.110815e+003,4.519950e-002
1.112743e+003,4.418170e-002
1.114672e+003,4.301219e-002
1.116600e+003,4.190928e-002
1.118529e+003,4.090094e-002
1.120457e+003,4.000594e-002
1.122386e+003,3.922780e-002
1.124314e+003,3.832260e-002
1.126243e+003,3.725610e-002
1.128171e+003,3.618927e-002
1.130100e+003,3.512314e-002
1.132028e+003,3.403236e-002
1.133957e+003,3.293994e-002
1.135885e+003,3.202911e-002
1.137814e+003,3.136548e-002
1.139742e+003,3.097559e-002
1.141671e+003,3.080632e-002
1.143599e+003,3.081920e-002
1.145528e+003,3.103513e-002
1.147456e+003,3.138988e-002
1.149385e+003,3.179407e-002
1.151313e+003,3.212133e-002
1.153242e+003,3.253471e-002
1.155170e+003,3.296182e-002
1.157099e+003,3.329589e-002
1.159027e+003,3.347977e-002
1.160956e+003,3.346016e-002
1.162884e+003,3.317842e-002
1.164813e+003,3.258946e-002
1.166741e+003,3.171223e-002
1.168670e+003,3.062620e-002
1.170598e+003,2.937760e-002
1.172526e+003,2.812649e-002
1.174455e+003,2.693130e-002
1.176384e+003,2.588563e-002
1.178312e+003,2.494040e-002
1.180240e+003,2.407521e-002
1.182169e+003,2.345365e-002
1.184098e+003,2.299502e-002
1.186026e+003,2.261300e-002
1.187954e+003,2.237536e-002
1.189883e+003,2.225450e-002
1.191812e+003,2.223226e-002
1.193740e+003,2.234008e-002
1.195668e+003,2.247967e-002
1.197597e+003,2.264429e-002
1.199526e+003,2.283806e-002
1.201454e+003,2.291519e-002
1.203382e+003,2.281046e-002
1.205311e+003,2.267371e-002
1.207240e+003,2.253054e-002
1.209168e+003,2.234019e-002
1.211096e+003,2.224497e-002
1.213025e+003,2.225171e-002
1.214953e+003,2.232191e-002
1.216882e+003,2.245359e-002
1.218810e+003,2.265733e-002
1.220739e+003,2.283535e-002
1.222667e+003,2.303448e-002
1.224596e+003,2.328102e-002
1.226524e+003,2.353217e-002
1.228453e+003,2.369522e-002
1.230381e+003,2.379386e-002
1.232310e+003,2.385048e-002
1.234238e+003,2.385139e-002
1.236167e+003,2.382554e-002
1.238095e+003,2.373033e-002
1.240024e+003,2.352387e-002
1.241952e+003,2.334015e-002
1.243881e+003,2.309583e-002
1.245809e+003,2.274439e-002
1.247738e+003,2.240743e-002
1.249666e+003,2.202718e-002
1.251595e+003,2.164800e-002
1.253523e+003,2.128607e-002
1.255452e+003,2.086881e-002
1.257380e+003,2.044370e-002
1.259309e+003,2.003752e-002
1.261237e+003,1.963329e-002
1.263166e+003,1.924713e-002
1.265094e+003,1.886755e-002
1.267023e+003,1.847229e-002
1.268951e+003,1.804752e-002
1.270880e+003,1.764533e-002
1.272808e+003,1.727609e-002
1.274737e+003,1.693366e-002
1.276665e+003,1.666381e-002
1.278594e+003,1.642855e-002
1.280522e+003,1.624734e-002
1.282451e+003,1.604423e-002
1.284379e+003,1.580664e-002
1.286308e+003,1.563592e-002
1.288236e+003,1.551851e-002
1.290165e+003,1.543612e-002
1.292093e+003,1.543249e-002
1.294022e+003,1.548342e-002
1.295950e+003,1.557740e-002
1.297879e+003,1.571457e-002
1.299807e+003,1.590619e-002
1.301736e+003,1.617004e-002
1.303664e+003,1.646973e-002
1.305593e+003,1.680088e-002
1.307521e+003,1.719374e-002
1.309450e+003,1.754695e-002
1.311378e+003,1.784201e-002
1.313307e+003,1.808865e-002
1.315235e+003,1.824465e-002
1.317164e+003,1.826181e-002
1.319092e+003,1.818954e-002
1.321021e+003,1.806487e-002
1.322949e+003,1.794139e-002
1.324878e+003,1.776429e-002
1.326806e+003,1.765063e-002
1.328735e+003,1.761315e-002
1.330663e+003,1.751838e-002
1.332592e+003,1.747969e-002
1.334520e+003,1.743995e-002
1.336449e+003,1.733804e-002
1.338377e+003,1.716484e-002
1.340306e+003,1.697714e-002
1.342234e+003,1.685301e-002
1.344163e+003,1.676430e-002
1.346091e+003,1.675954e-002
1.348020e+003,1.678426e-002
1.349948e+003,1.685507e-002
1.351877e+003,1.697528e-002
1.353805e+003,1.717488e-002
1.355734e+003,1.735043e-002
1.357662e+003,1.755594e-002
1.359591e+003,1.776779e-002
1.361519e+003,1.793739e-002
1.363448e+003,1.807848e-002
1.365376e+003,1.818518e-002
1.367305e+003,1.822698e-002
1.369233e+003,1.821889e-002
1.371162e+003,1.810296e-002
1.373090e+003,1.794037e-002
1.375019e+003,1.773409e-002
1.376947e+003,1.745676e-002
1.378876e+003,1.709892e-002
1.380804e+003,1.667583e-002
1.382733e+003,1.621287e-002
1.384661e+003,1.584038e-002
1.386590e+003,1.550868e-002
1.388518e+003,1.520401e-002
1.390447e+003,1.498767e-002
1.392375e+003,1.487067e-002
1.394304e+003,1.481033e-002
1.396232e+003,1.478950e-002
1.398161e+003,1.476191e-002
1.400089e+003,1.478453e-002
1.402018e+003,1.482809e-002
1.403946e+003,1.484996e-002
1.405875e+003,1.490484e-002
1.407803e+003,1.504480e-002
1.409732e+003,1.519646e-002
1.411660e+003,1.541352e-002
1.413589e+003,1.565742e-002
1.415517e+003,1.586924e-002
1.417446e+003,1.606071e-002
1.419374e+003,1.624274e-002
1.421303e+003,1.637179e-002
1.423231e+003,1.645254e-002
1.425160e+003,1.640364e-002
1.427088e+003,1.624918e-002
1.429017e+003,1.608014e-002
1.430945e+003,1.585710e-002
1.432874e+003,1.558974e-002
1.434802e+003,1.533857e-002
1.436731e+003,1.506849e-002
1.438659e+003,1.486103e-002
1.440588e+003,1.476050e-002
1.442516e+003,1.469701e-002
1.444445e+003,1.471266e-002
1.446373e+003,1.478175e-002
1.448302e+003,1.480819e-002
1.450230e+003,1.484138e-002
1.452159e+003,1.491097e-002
1.454087e+003,1.495352e-002
1.456016e+003,1.490229e-002
1.457944e+003,1.484111e-002
1.459873e+003,1.483811e-002
1.461801e+003,1.472381e-002
1.463730e+003,1.450249e-002
1.465658e+003,1.423064e-002
1.467587e+003,1.382475e-002
1.469515e+003,1.328948e-002
1.471444e+003,1.274567e-002
1.473372e+003,1.224421e-002
1.475301e+003,1.183002e-002
1.477229e+003,1.155221e-002
1.479158e+003,1.134373e-002
1.481086e+003,1.120581e-002
1.483015e+003,1.111442e-002
1.484943e+003,1.109302e-002
1.486872e+003,1.118338e-002
1.488800e+003,1.129663e-002
1.490729e+003,1.146003e-002
1.492657e+003,1.170266e-002
1.494586e+003,1.193611e-002
1.496514e+003,1.217013e-002
1.498443e+003,1.236534e-002
1.500371e+003,1.251686e-002
1.502300e+003,1.256922e-002
1.504228e+003,1.261153e-002
1.506157e+003,1.264770e-002
1.508085e+003,1.265435e-002
1.510014e+003,1.270677e-002
1.511942e+003,1.271858e-002
1.513871e+003,1.269021e-002
1.515799e+003,1.253197e-002
1.517728e+003,1.221650e-002
1.519656e+003,1.189538e-002
1.521585e+003,1.157170e-002
1.523513e+003,1.130345e-002
1.525442e+003,1.116329e-002
1.527370e+003,1.108694e-002
1.529299e+003,1.104740e-002
1.531227e+003,1.102939e-002
1.533156e+003,1.103549e-002
1.535084e+003,1.093912e-002
1.537013e+003,1.091964e-002
1.538941e+003,1.093597e-002
1.540870e+003,1.094828e-002
1.542798e+003,1.096736e-002
1.544727e+003,1.096101e-002
1.546655e+003,1.096212e-002
1.548584e+003,1.096739e-002
1.550512e+003,1.100571e-002
1.552441e+003,1.105243e-002
1.554369e+003,1.106756e-002
1.556298e+003,1.109944e-002
1.558226e+003,1.113589e-002
1.560155e+003,1.115424e-002
1.562083e+003,1.119520e-002
1.564012e+003,1.127762e-002
1.565940e+003,1.139083e-002
1.567869e+003,1.149958e-002
1.569797e+003,1.165690e-002
1.571726e+003,1.177350e-002
1.573654e+003,1.191881e-002
1.575583e+003,1.205317e-002
1.577511e+003,1.226563e-002
1.579440e+003,1.254253e-002
1.581368e+003,1.279483e-002
1.583297e+003,1.302149e-002
1.585225e+003,1.329639e-002
1.587154e+003,1.354267e-002
1.589082e+003,1.376169e-002
1.591010e+003,1.391265e-002
1.592939e+003,1.397439e-002
1.594868e+003,1.399401e-002
1.596796e+003,1.397222e-002
1.598724e+003,1.391864e-002
1.600653e+003,1.391845e-002
1.602582e+003,1.391887e-002
1.604510e+003,1.386744e-002
1.606438e+003,1.375108e-002
1.608367e+003,1.356432e-002
1.610296e+003,1.336709e-002
1.612224e+003,1.324516e-002
1.614152e+003,1.321571e-002
1.616081e+003,1.323428e-002
1.618010e+003,1.327794e-002
1.619938e+003,1.329971e-002
1.621866e+003,1.335240e-002
1.623795e+003,1.339051e-002
1.625724e+003,1.340032e-002
1.627652e+003,1.341035e-002
1.629580e+003,1.338883e-002
1.631509e+003,1.334378e-002
1.633438e+003,1.329619e-002
1.635366e+003,1.321638e-002
1.637294e+003,1.313701e-002
1.639223e+003,1.308387e-002
1.641151e+003,1.301178e-002
1.643080e+003,1.299040e-002
1.645008e+003,1.300843e-002
1.646937e+003,1.300568e-002
1.648865e+003,1.296707e-002
1.650794e+003,1.292815e-002
1.652722e+003,1.284123e-002
1.654651e+003,1.277736e-002
1.656579e+003,1.262767e-002
1.658508e+003,1.243234e-002
1.660436e+003,1.226501e-002
1.662365e+003,1.204446e-002
1.664293e+003,1.176137e-002
1.666222e+003,1.151147e-002
1.668150e+003,1.135383e-002
1.670079e+003,1.117456e-002
1.672007e+003,1.097146e-002
1.673936e+003,1.085959e-002
1.675864e+003,1.074500e-002
1.677793e+003,1.068130e-002
1.679721e+003,1.062190e-002
1.681650e+003,1.055712e-002
1.683578e+003,1.047951e-002
1.685507e+003,1.043133e-002
1.687435e+003,1.043461e-002
1.689364e+003,1.041804e-002
1.691292e+003,1.037379e-002
1.693221e+003,1.036686e-002
1.695149e+003,1.040534e-002
1.697078e+003,1.043212e-002
1.699006e+003,1.045513e-002
1.700935e+003,1.047955e-002
1.702863e+003,1.052427e-002
1.704792e+003,1.059147e-002
1.706720e+003,1.069691e-002
1.708649e+003,1.079079e-002
1.710577e+003,1.089791e-002
1.712506e+003,1.103451e-002
1.714434e+003,1.122547e-002
1.716363e+003,1.135645e-002
1.718291e+003,1.148621e-002
1.720220e+003,1.163582e-002
1.722148e+003,1.179563e-002
1.724077e+003,1.192034e-002
1.726005e+003,1.201735e-002
1.727934e+003,1.214955e-002
1.729862e+003,1.222299e-002
1.731791e+003,1.220185e-002
1.733719e+003,1.214967e-002
1.735648e+003,1.199086e-002
1.737576e+003,1.177654e-002
1.739505e+003,1.142901e-002
1.741433e+003,1.104249e-002
1.743362e+003,1.066258e-002
1.745290e+003,1.031286e-002
1.747219e+003,9.964259e-003
1.749147e+003,9.647422e-003
1.751076e+003,9.334781e-003
1.753004e+003,9.067012e-003
1.754933e+003,8.857712e-003
1.756861e+003,8.645310e-003
1.758790e+003,8.435040e-003
1.760718e+003,8.277768e-003
1.762647e+003,8.080139e-003
1.764575e+003,7.951896e-003
1.766504e+003,7.865095e-003
1.768432e+003,7.674406e-003
1.770361e+003,7.579572e-003
1.772289e+003,7.608465e-003
1.774218e+003,7.584533e-003
1.776146e+003,7.524698e-003
1.778075e+003,7.505265e-003
1.780003e+003,7.544662e-003
1.781932e+003,7.470089e-003
1.783860e+003,7.442792e-003
1.785789e+003,7.435599e-003
1.787717e+003,7.408997e-003
1.789646e+003,7.396687e-003
1.791574e+003,7.382219e-003
1.793503e+003,7.371409e-003
1.795431e+003,7.386240e-003
1.797360e+003,7.419444e-003
1.799288e+003,7.401611e-003
1.801217e+003,7.326726e-003
1.803145e+003,7.350688e-003
1.805074e+003,7.398513e-003
1.807002e+003,7.326862e-003
1.808931e+003,7.273741e-003
1.810859e+003,7.310731e-003
1.812788e+003,7.288985e-003
1.814716e+003,7.180614e-003
1.816645e+003,7.069518e-003
1.818573e+003,7.088970e-003
1.820502e+003,7.095424e-003
1.822430e+003,7.109007e-003
1.824359e+003,7.115769e-003
1.826287e+003,7.053211e-003
1.828216e+003,6.986276e-003
1.830144e+003,7.041824e-003
1.832073e+003,7.000731e-003
1.834001e+003,6.948111e-003
1.835930e+003,6.940462e-003
1.837858e+003,6.961608e-003
1.839787e+003,6.965914e-003
1.841715e+003,6.925949e-003
1.843644e+003,6.879779e-003
1.845572e+003,6.977355e-003
1.847501e+003,6.840256e-003
1.849429e+003,6.871743e-003
1.851358e+003,6.940225e-003
1.853286e+003,6.822298e-003
1.855215e+003,6.797420e-003
1.857143e+003,6.886643e-003
1.859072e+003,6.892991e-003
1.861000e+003,6.776793e-003
1.862929e+003,6.696661e-003
1.864857e+003,6.751990e-003
1.866786e+003,6.806351e-003
1.868714e+003,6.778158e-003
1.870643e+003,6.822491e-003
1.872571e+003,6.789965e-003
1.874500e+003,6.516669e-003
1.876428e+003,6.467768e-003
1.878357e+003,6.569806e-003
1.880285e+003,6.551354e-003
1.882214e+003,6.490209e-003
1.884142e+003,6.529873e-003
1.886071e+003,6.627931e-003
1.887999e+003,6.552620e-003
1.889928e+003,6.412400e-003
1.891856e+003,6.346885e-003
1.893785e+003,6.364958e-003
1.895713e+003,6.376971e-003
1.897642e+003,6.148545e-003
1.899570e+003,6.043233e-003
1.901499e+003,6.028342e-003
1.903427e+003,6.019309e-003
1.905356e+003,6.094215e-003
1.907284e+003,6.087793e-003
1.909213e+003,6.023492e-003
1.911141e+003,5.935148e-003
1.913070e+003,5.726817e-003
1.914998e+003,5.748490e-003
1.916927e+003,5.823039e-003
1.918855e+003,5.626186e-003
1.920784e+003,5.284012e-003
1.922712e+003,5.150268e-003
1.924641e+003,5.012418e-003
1.926569e+003,4.844108e-003
1.928498e+003,4.756218e-003
1.930426e+003,4.654352e-003
1.932355e+003,4.337186e-003
1.934283e+003,4.160046e-003
1.936212e+003,4.384996e-003
1.938140e+003,4.384983e-003
1.940069e+003,3.757862e-003
1.941997e+003,3.666915e-003
1.943926e+003,3.727053e-003
1.945854e+003,3.185727e-003
1.947783e+003,2.984690e-003
1.949711e+003,2.870764e-003
1.951640e+003,2.635494e-003
1.953568e+003,2.292695e-003
1.955497e+003,1.519380e-003
1.957425e+003,7.824270e-004
1.959354e+003,5.516193e-004
1.961282e+003,-4.220683e-004
1.963211e+003,-1.661873e-003
1.965139e+003,-1.844392e-003
1.967068e+003,-1.882681e-003
1.968996e+003,-2.555166e-003
1.970925e+003,-3.043512e-003
1.972853e+003,-3.550422e-003
1.974782e+003,-4.377577e-003
1.976710e+003,-4.562661e-003
1.978639e+003,-4.124695e-003
1.980567e+003,-2.670804e-003
1.982496e+003,-1.716643e-003
1.984424e+003,-1.574107e-003
1.986353e+003,-1.338415e-003
1.988281e+003,-6.013116e-004
1.990210e+003,-2.622097e-004
1.992138e+003,-7.652696e-004
1.994067e+003,-3.259128e-004
1.995995e+003,6.553938e-005
1.997924e+003,5.969896e-005
1.999852e+003,-1.806908e-005
2.001781e+003,-8.943764e-004
2.003709e+003,-1.990026e-003
2.005638e+003,-2.762740e-003
2.007566e+003,-3.453229e-003
2.009495e+003,-3.266135e-003
2.011423e+003,-3.191076e-003
2.013352e+003,-4.255120e-003
2.015280e+003,-4.381845e-003
2.017208e+003,-4.897451e-003
2.019137e+003,-4.898153e-003
2.021066e+003,-4.807453e-003
2.022994e+003,-4.548552e-003
2.024922e+003,-5.365853e-003
2.026851e+003,-5.637140e-003
2.028780e+003,-6.263226e-003
2.030708e+003,-7.145745e-003
2.032636e+003,-6.838678e-003
2.034565e+003,-6.221632e-003
2.036494e+003,-6.162543e-003
2.038422e+003,-4.864988e-003
2.040350e+003,-3.614143e-003
2.042279e+003,-3.512936e-003
2.044208e+003,-3.347283e-003
2.046136e+003,-2.540253e-003
2.048064e+003,-1.665581e-003
2.049993e+003,-1.046084e-003
2.051921e+003,1.346480e-006
2.053850e+003,6.858642e-004
2.055778e+003,1.120680e-003
2.057707e+003,1.263288e-003
2.059635e+003,1.107050e-003
2.061564e+003,1.076783e-003
2.063492e+003,1.217350e-003
2.065421e+003,1.111053e-003
2.067349e+003,1.580228e-003
2.069278e+003,2.278099e-003
2.071206e+003,2.378667e-003
2.073135e+003,2.224832e-003
2.075063e+003,2.734884e-003
2.076992e+003,2.779978e-003
2.078920e+003,2.895886e-003
2.080849e+003,2.964888e-003
2.082777e+003,3.298600e-003
2.084706e+003,3.853186e-003
2.086634e+003,4.229392e-003
2.088563e+003,3.869540e-003
2.090491e+003,3.691457e-003
2.092420e+003,3.719480e-003
2.094348e+003,3.539913e-003
2.096277e+003,3.832463e-003
2.098205e+003,4.048976e-003
2.100134e+003,4.180532e-003
2.102062e+003,4.062454e-003
2.103991e+003,4.243230e-003
2.105919e+003,4.209338e-003
2.107848e+003,4.281410e-003
2.109776e+003,4.260429e-003
2.111705e+003,4.215728e-003
2.113633e+003,4.354196e-003
2.115562e+003,4.483502e-003
2.117490e+003,4.638432e-003
2.119419e+003,4.586559e-003
2.121347e+003,4.550295e-003
2.123276e+003,4.478413e-003
2.125204e+003,4.153535e-003
2.127133e+003,3.471273e-003
2.129061e+003,3.005227e-003
2.130990e+003,2.965692e-003
2.132918e+003,2.543446e-003
2.134847e+003,2.434809e-003
2.136775e+003,1.847402e-003
2.138704e+003,1.076400e-003
2.140632e+003,8.445458e-004
2.142561e+003,5.592317e-004
2.144489e+003,-5.151937e-004
2.146418e+003,-1.314094e-003
2.148346e+003,-1.603045e-003
2.150275e+003,-2.767827e-003
2.152203e+003,-3.810777e-003
2.154132e+003,-4.456743e-003
2.156060e+003,-5.964923e-003
2.157989e+003,-9.144722e-003
2.159917e+003,-9.206912e-003
2.161846e+003,-8.069898e-003
2.163774e+003,-6.884766e-003
2.165703e+003,-5.493032e-003
2.167631e+003,-4.399544e-003
2.169560e+003,-3.904275e-003
2.171488e+003,-3.222329e-003
2.173417e+003,-2.117001e-003
2.175345e+003,-2.359647e-003
2.177274e+003,-2.373817e-003
2.179202e+003,-1.927332e-003
2.181131e+003,-2.701086e-003
2.183059e+003,-2.936099e-003
2.184988e+003,-1.821727e-003
2.186916e+003,-1.513771e-003
2.188845e+003,-1.624997e-003
2.190773e+003,-7.528813e-004
2.192702e+003,-6.481811e-004
2.194630e+003,3.289136e-004
2.196559e+003,8.227017e-004
2.198487e+003,5.985812e-004
2.200416e+003,4.553015e-004
2.202344e+003,5.273501e-004
2.204273e+003,6.785517e-004
2.206201e+003,1.066568e-003
2.208130e+003,1.115331e-003
2.210058e+003,1.276940e-003
2.211987e+003,1.248893e-003
2.213915e+003,1.178851e-003
2.215844e+003,1.467498e-003
2.217772e+003,2.034882e-003
2.219701e+003,2.115617e-003
2.221629e+003,2.038345e-003
2.223558e+003,2.142488e-003
2.225486e+003,2.530415e-003
2.227415e+003,2.979271e-003
2.229343e+003,3.055710e-003
2.231272e+003,3.130007e-003
2.233200e+003,2.751818e-003
2.235129e+003,2.157568e-003
2.237057e+003,2.395769e-003
2.238986e+003,3.036990e-003
2.240914e+003,3.749366e-003
2.242843e+003,3.741433e-003
2.244771e+003,3.948523e-003
2.246700e+003,4.000453e-003
2.248628e+003,4.170200e-003
2.250557e+003,4.391732e-003
2.252485e+003,4.638424e-003
2.254414e+003,4.682672e-003
2.256342e+003,4.550287e-003
2.258271e+003,4.592945e-003
2.260199e+003,5.016902e-003
2.262128e+003,5.232682e-003
2.264056e+003,5.068398e-003
2.265985e+003,5.305428e-003
2.267913e+003,5.577064e-003
2.269842e+003,5.605892e-003
2.271770e+003,5.384180e-003
2.273699e+003,5.419564e-003
2.275627e+003,5.652412e-003
2.277556e+003,5.962260e-003
2.279484e+003,6.433508e-003
2.281413e+003,6.660139e-003
2.283341e+003,6.792165e-003
2.285270e+003,6.780822e-003
2.287198e+003,6.727368e-003
2.289127e+003,6.859878e-003
2.291055e+003,7.218776e-003
2.292984e+003,7.444412e-003
2.294912e+003,7.521451e-003
2.296841e+003,7.698585e-003
2.298769e+003,7.644204e-003
2.300698e+003,7.521898e-003
2.302626e+003,7.483548e-003
2.304555e+003,7.510629e-003
2.306483e+003,7.618890e-003
2.308412e+003,7.604409e-003
2.310340e+003,7.626403e-003
2.312269e+003,7.568487e-003
2.314197e+003,7.597822e-003
2.316125e+003,7.905645e-003
2.318054e+003,8.260051e-003
2.319983e+003,8.371270e-003
2.321911e+003,8.398222e-003
2.323840e+003,8.482121e-003
2.325768e+003,8.989539e-003
2.327697e+003,9.023182e-003
2.329625e+003,9.180218e-003
2.331553e+003,9.398751e-003
2.333482e+003,9.490314e-003
2.335411e+003,9.619564e-003
2.337339e+003,9.387912e-003
2.339268e+003,8.937829e-003
2.341196e+003,8.728699e-003
2.343125e+003,8.832353e-003
2.345053e+003,8.743934e-003
2.346981e+003,8.573716e-003
2.348910e+003,8.401462e-003
2.350839e+003,8.383939e-003
2.352767e+003,8.188173e-003
2.354696e+003,8.088824e-003
2.356624e+003,8.138990e-003
2.358552e+003,7.977569e-003
2.360481e+003,7.691008e-003
2.362409e+003,7.558626e-003
2.364338e+003,8.012288e-003
2.366267e+003,7.525227e-003
2.368195e+003,7.424398e-003
2.370124e+003,7.651335e-003
2.372052e+003,8.189176e-003
2.373980e+003,8.323980e-003
2.375909e+003,8.155677e-003
2.377838e+003,8.137522e-003
2.379766e+003,8.236809e-003
2.381695e+003,8.194529e-003
2.383623e+003,8.102746e-003
2.385552e+003,8.052631e-003
2.387480e+003,7.972475e-003
2.389408e+003,7.884067e-003
2.391337e+003,7.823852e-003
2.393266e+003,7.817694e-003
2.395194e+003,7.775070e-003
2.397123e+003,7.738556e-003
2.399051e+003,7.795699e-003
2.400979e+003,7.822567e-003
2.402908e+003,7.911471e-003
2.404836e+003,7.966205e-003
2.406765e+003,7.941470e-003
2.408694e+003,7.809038e-003
2.410622e+003,7.746397e-003
2.412551e+003,7.664709e-003
2.414479e+003,7.536543e-003
2.416407e+003,7.548748e-003
2.418336e+003,7.549254e-003
2.420264e+003,7.607349e-003
2.422193e+003,7.693241e-003
2.424122e+003,7.649702e-003
2.426050e+003,7.530441e-003
2.427979e+003,7.402989e-003
2.429907e+003,7.408584e-003
2.431835e+003,7.314694e-003
2.433764e+003,7.258795e-003
2.435692e+003,7.342259e-003
2.437621e+003,7.306944e-003
2.439550e+003,7.240534e-003
2.441478e+003,7.247339e-003
2.443406e+003,7.227967e-003
2.445335e+003,7.194379e-003
2.447263e+003,7.291612e-003
2.449192e+003,7.408449e-003
2.451121e+003,7.346101e-003
2.453049e+003,7.334171e-003
2.454978e+003,7.310112e-003
2.456906e+003,7.369657e-003
2.458834e+003,7.258694e-003
2.460763e+003,7.289961e-003
2.462691e+003,7.364467e-003
2.464620e+003,7.436087e-003
2.466549e+003,7.526834e-003
2.468477e+003,7.517057e-003
2.470406e+003,7.469154e-003
2.472334e+003,7.336092e-003
2.474262e+003,7.226384e-003
2.476191e+003,7.327735e-003
2.478119e+003,7.527002e-003
2.480048e+003,7.529228e-003
2.481977e+003,7.523260e-003
2.483905e+003,7.637124e-003
2.485833e+003,7.506269e-003
2.487762e+003,7.451761e-003
2.489690e+003,7.495684e-003
2.491619e+003,7.467839e-003
2.493547e+003,7.436255e-003
2.495476e+003,7.545309e-003
2.497405e+003,7.608630e-003
2.499333e+003,7.555862e-003
2.501261e+003,7.480076e-003
2.503190e+003,7.503876e-003
2.505118e+003,7.560953e-003
2.507047e+003,7.525081e-003
2.508975e+003,7.412628e-003
2.510904e+003,7.432447e-003
2.512833e+003,7.461873e-003
2.514761e+003,7.595918e-003
2.516689e+003,7.601819e-003
2.518618e+003,7.579935e-003
2.520546e+003,7.667474e-003
2.522475e+003,7.649264e-003
2.524403e+003,7.540016e-003
2.526332e+003,7.504314e-003
2.528260e+003,7.619724e-003
2.530189e+003,7.728688e-003
2.532117e+003,7.836904e-003
2.534046e+003,7.791226e-003
2.535974e+003,7.660157e-003
2.537903e+003,7.628086e-003
2.539831e+003,7.737593e-003
2.541760e+003,7.701133e-003
2.543688e+003,7.632807e-003
2.545617e+003,7.790856e-003
2.547545e+003,7.750714e-003
2.549474e+003,7.736480e-003
2.551402e+003,7.843045e-003
2.553331e+003,7.725282e-003
2.555259e+003,7.712027e-003
2.557188e+003,7.906375e-003
2.559116e+003,7.963100e-003
2.561045e+003,7.889875e-003
2.562973e+003,7.779150e-003
2.564902e+003,7.789135e-003
2.566830e+003,7.893148e-003
2.568759e+003,7.900808e-003
2.570687e+003,7.861702e-003
2.572616e+003,7.809713e-003
2.574544e+003,7.877762e-003
2.576473e+003,7.975790e-003
2.578401e+003,7.916970e-003
2.580330e+003,7.898682e-003
2.582258e+003,7.854718e-003
2.584187e+003,7.935057e-003
2.586115e+003,8.013117e-003
2.588044e+003,7.998199e-003
2.589972e+003,7.936306e-003
2.591901e+003,7.867539e-003
2.593829e+003,7.945755e-003
2.595758e+003,8.147635e-003
2.597686e+003,8.228637e-003
2.599615e+003,8.125792e-003
2.601543e+003,8.034920e-003
2.603472e+003,8.099866e-003
2.605400e+003,8.254267e-003
2.607329e+003,8.243596e-003
2.609257e+003,8.191325e-003
2.611186e+003,8.252613e-003
2.613114e+003,8.334039e-003
2.615043e+003,8.454569e-003
2.616971e+003,8.515792e-003
2.618900e+003,8.436359e-003
2.620828e+003,8.432406e-003
2.622757e+003,8.498728e-003
2.624685e+003,8.554923e-003
2.626614e+003,8.586352e-003
2.628542e+003,8.616364e-003
2.630471e+003,8.684133e-003
2.632399e+003,8.730683e-003
2.634328e+003,8.797795e-003
2.636256e+003,8.818624e-003
2.638185e+003,8.919265e-003
2.640113e+003,8.979877e-003
2.642042e+003,8.983497e-003
2.643970e+003,8.989349e-003
2.645899e+003,9.058429e-003
2.647827e+003,9.129618e-003
2.649756e+003,9.175877e-003
2.651684e+003,9.265296e-003
2.653613e+003,9.358559e-003
2.655541e+003,9.415169e-003
2.657470e+003,9.438398e-003
2.659398e+003,9.443646e-003
2.661327e+003,9.481912e-003
2.663255e+003,9.539217e-003
2.665184e+003,9.602694e-003
2.667112e+003,9.610858e-003
2.669041e+003,9.577694e-003
2.670969e+003,9.537253e-003
2.672898e+003,9.568176e-003
2.674826e+003,9.559878e-003
2.676755e+003,9.581624e-003
2.678683e+003,9.610722e-003
2.680612e+003,9.598527e-003
2.682540e+003,9.615194e-003
2.684469e+003,9.687524e-003
2.686397e+003,9.652120e-003
2.688326e+003,9.584334e-003
2.690254e+003,9.575865e-003
2.692183e+003,9.575527e-003
2.694111e+003,9.620884e-003
2.696040e+003,9.622071e-003
2.697968e+003,9.607267e-003
2.699897e+003,9.623053e-003
2.701825e+003,9.643277e-003
2.703754e+003,9.649274e-003
2.705682e+003,9.681053e-003
2.707611e+003,9.667637e-003
2.709539e+003,9.659268e-003
2.711468e+003,9.640804e-003
2.713396e+003,9.627796e-003
2.715325e+003,9.691861e-003
2.717253e+003,9.712055e-003
2.719182e+003,9.707854e-003
2.721110e+003,9.738451e-003
2.723039e+003,9.737503e-003
2.724967e+003,9.713749e-003
2.726896e+003,9.718459e-003
2.728824e+003,9.708701e-003
2.730753e+003,9.731946e-003
2.732681e+003,9.742619e-003
2.734610e+003,9.767865e-003
2.736538e+003,9.821174e-003
2.738467e+003,9.808159e-003
2.740395e+003,9.776066e-003
2.742324e+003,9.857202e-003
2.744252e+003,9.849304e-003
2.746181e+003,9.783318e-003
2.748109e+003,9.844424e-003
2.750038e+003,9.894555e-003
2.751966e+003,9.843712e-003
2.753895e+003,9.814870e-003
2.755823e+003,9.850050e-003
2.757752e+003,9.885674e-003
2.759680e+003,9.872794e-003
2.761609e+003,9.893877e-003
2.763537e+003,9.877438e-003
2.765466e+003,9.887098e-003
2.767394e+003,9.912962e-003
2.769323e+003,9.942455e-003
2.771251e+003,9.994633e-003
2.773180e+003,1.003841e-002
2.775108e+003,1.002379e-002
2.777037e+003,1.003166e-002
2.778965e+003,1.006862e-002
2.780894e+003,1.011213e-002
2.782822e+003,1.015707e-002
2.784750e+003,1.019682e-002
2.786679e+003,1.021891e-002
2.788608e+003,1.022566e-002
2.790536e+003,1.014856e-002
2.792465e+003,1.012163e-002
2.794393e+003,1.020005e-002
2.796322e+003,1.022800e-002
2.798250e+003,1.020690e-002
2.800178e+003,1.027570e-002
2.802107e+003,1.032652e-002
2.804036e+003,1.033650e-002
2.805964e+003,1.036069e-002
2.807893e+003,1.035099e-002
2.809821e+003,1.040915e-002
2.811750e+003,1.047853e-002
2.813678e+003,1.051689e-002
2.815606e+003,1.053515e-002
2.817535e+003,1.055246e-002
2.819464e+003,1.060067e-002
2.821392e+003,1.061914e-002
2.823321e+003,1.070873e-002
2.825249e+003,1.072635e-002
2.827177e+003,1.084364e-002
2.829106e+003,1.096660e-002
2.831034e+003,1.099056e-002
2.832963e+003,1.103797e-002
2.834892e+003,1.117537e-002
2.836820e+003,1.123949e-002
2.838749e+003,1.123208e-002
2.840677e+003,1.133746e-002
2.842605e+003,1.153405e-002
2.844534e+003,1.173165e-002
2.846462e+003,1.181513e-002
2.848391e+003,1.193765e-002
2.850320e+003,1.205305e-002
2.852248e+003,1.212763e-002
2.854177e+003,1.217111e-002
2.856105e+003,1.223763e-002
2.858033e+003,1.228678e-002
2.859962e+003,1.227215e-002
2.861890e+003,1.227502e-002
2.863819e+003,1.230488e-002
2.865748e+003,1.232533e-002
2.867676e+003,1.227771e-002
2.869604e+003,1.228627e-002
2.871533e+003,1.231575e-002
2.873461e+003,1.233082e-002
2.875390e+003,1.232335e-002
2.877319e+003,1.235240e-002
2.879247e+003,1.242600e-002
2.881176e+003,1.240462e-002
2.883104e+003,1.238591e-002
2.885032e+003,1.247265e-002
2.886961e+003,1.251933e-002
2.888889e+003,1.255985e-002
2.890818e+003,1.259010e-002
2.892747e+003,1.264134e-002
2.894675e+003,1.260586e-002
2.896604e+003,1.252046e-002
2.898532e+003,1.249867e-002
2.900460e+003,1.252148e-002
2.902389e+003,1.255095e-002
2.904317e+003,1.255637e-002
2.906246e+003,1.251354e-002
2.908175e+003,1.247790e-002
2.910103e+003,1.251050e-002
2.912031e+003,1.254140e-002
2.913960e+003,1.260729e-002
2.915888e+003,1.254610e-002
2.917817e+003,1.250961e-002
2.919745e+003,1.253843e-002
2.921674e+003,1.260221e-002
2.923603e+003,1.255736e-002
2.925531e+003,1.241605e-002
2.927459e+003,1.238151e-002
2.929388e+003,1.239457e-002
2.931316e+003,1.230041e-002
2.933245e+003,1.212879e-002
2.935173e+003,1.199181e-002
2.937102e+003,1.190646e-002
2.939031e+003,1.183791e-002
2.940959e+003,1.173676e-002
2.942887e+003,1.162430e-002
2.944816e+003,1.150853e-002
2.946744e+003,1.133484e-002
2.948673e+003,1.115119e-002
2.950601e+003,1.104500e-002
2.952530e+003,1.099430e-002
2.954458e+003,1.088064e-002
2.956387e+003,1.082791e-002
2.958315e+003,1.078793e-002
2.960244e+003,1.072747e-002
2.962172e+003,1.060064e-002
2.964101e+003,1.050891e-002
2.966029e+003,1.045243e-002
2.967958e+003,1.034950e-002
2.969886e+003,1.027169e-002
2.971815e+003,1.020201e-002
2.973743e+003,1.016145e-002
2.975672e+003,1.015371e-002
2.977600e+003,1.013106e-002
2.979529e+003,1.006163e-002
2.981457e+003,1.005302e-002
2.983386e+003,1.001816e-002
2.985314e+003,1.000213e-002
2.987243e+003,9.942490e-003
2.989171e+003,9.849000e-003
2.991100e+003,9.851101e-003
2.993028e+003,9.919031e-003
2.994957e+003,9.909572e-003
2.996885e+003,9.894725e-003
2.998814e+003,9.854049e-003
3.000742e+003,9.810904e-003
3.002671e+003,9.847881e-003
3.004599e+003,9.864998e-003
3.006528e+003,9.813480e-003
3.008456e+003,9.795823e-003
3.010385e+003,9.814632e-003
3.012313e+003,9.871980e-003
3.014242e+003,9.906352e-003
3.016170e+003,9.849508e-003
3.018099e+003,9.796365e-003
3.020027e+003,9.841408e-003
3.021956e+003,9.867066e-003
3.023884e+003,9.924794e-003
3.025813e+003,9.954457e-003
3.027741e+003,9.952796e-003
3.029670e+003,9.936116e-003
3.031598e+003,9.986597e-003
3.033527e+003,1.005404e-002
3.035455e+003,1.006225e-002
3.037384e+003,1.005997e-002
3.039312e+003,1.015398e-002
3.041241e+003,1.021552e-002
3.043169e+003,1.022067e-002
3.045098e+003,1.016379e-002
3.047026e+003,1.015836e-002
3.048955e+003,1.024693e-002
3.050883e+003,1.029141e-002
3.052812e+003,1.026331e-002
3.054740e+003,1.028540e-002
3.056669e+003,1.030705e-002
3.058597e+003,1.034186e-002
3.060526e+003,1.037132e-002
3.062454e+003,1.039582e-002
3.064383e+003,1.040807e-002
3.066311e+003,1.037712e-002
3.068240e+003,1.046614e-002
3.070168e+003,1.059107e-002
3.072097e+003,1.055939e-002
3.074025e+003,1.054628e-002
3.075954e+003,1.054191e-002
3.077882e+003,1.051896e-002
3.079811e+003,1.063612e-002
3.081739e+003,1.069860e-002
3.083668e+003,1.068329e-002
3.085596e+003,1.072611e-002
3.087525e+003,1.077835e-002
3.089453e+003,1.071100e-002
3.091382e+003,1.078983e-002
3.093310e+003,1.086810e-002
3.095239e+003,1.086042e-002
3.097167e+003,1.090588e-002
3.099096e+003,1.089912e-002
3.101024e+003,1.092729e-002
3.102953e+003,1.100232e-002
3.104881e+003,1.100908e-002
3.106810e+003,1.103739e-002
3.108738e+003,1.103793e-002
3.110667e+003,1.103100e-002
3.112595e+003,1.117890e-002
3.114524e+003,1.131168e-002
3.116452e+003,1.124170e-002
3.118381e+003,1.119750e-002
3.120309e+003,1.127893e-002
3.122238e+003,1.132467e-002
3.124166e+003,1.134852e-002
3.126095e+003,1.135984e-002
3.128023e+003,1.139260e-002
3.129952e+003,1.144056e-002
3.131880e+003,1.150520e-002
3.133809e+003,1.153494e-002
3.135737e+003,1.154440e-002
3.137666e+003,1.158741e-002
3.139594e+003,1.160861e-002
3.141523e+003,1.163029e-002
3.143451e+003,1.173424e-002
3.145380e+003,1.174877e-002
3.147308e+003,1.178667e-002
3.149237e+003,1.177867e-002
3.151165e+003,1.183627e-002
3.153094e+003,1.190036e-002
3.155022e+003,1.195587e-002
3.156951e+003,1.194879e-002
3.158879e+003,1.197443e-002
3.160808e+003,1.203745e-002
3.162736e+003,1.217353e-002
3.164665e+003,1.219261e-002
3.166593e+003,1.217895e-002
3.168522e+003,1.222965e-002
3.170450e+003,1.228576e-002
3.172379e+003,1.233866e-002
3.174307e+003,1.233896e-002
3.176236e+003,1.237445e-002
3.178164e+003,1.243323e-002
3.180093e+003,1.246549e-002
3.182021e+003,1.255715e-002
3.183950e+003,1.265815e-002
3.185878e+003,1.266638e-002
3.187807e+003,1.268585e-002
3.189735e+003,1.276259e-002
3.191664e+003,1.281671e-002
3.193592e+003,1.290439e-002
3.195521e+003,1.291449e-002
3.197449e+003,1.287882e-002
3.199378e+003,1.298591e-002
3.201306e+003,1.310497e-002
3.203235e+003,1.321720e-002
3.205163e+003,1.324084e-002
3.207092e+003,1.327459e-002
3.209020e+003,1.338655e-002
3.210948e+003,1.338956e-002
3.212877e+003,1.352839e-002
3.214806e+003,1.357351e-002
3.216734e+003,1.350996e-002
3.218663e+003,1.355006e-002
3.220591e+003,1.360431e-002
3.222520e+003,1.370504e-002
3.224448e+003,1.388376e-002
3.226376e+003,1.396977e-002
3.228305e+003,1.402305e-002
3.230234e+003,1.407387e-002
3.232162e+003,1.408431e-002
3.234091e+003,1.414455e-002
3.236019e+003,1.419433e-002
3.237948e+003,1.418857e-002
3.239876e+003,1.427663e-002
3.241804e+003,1.437235e-002
3.243733e+003,1.447179e-002
3.245662e+003,1.455552e-002
3.247590e+003,1.456278e-002
3.249519e+003,1.464512e-002
3.251447e+003,1.475480e-002
3.253375e+003,1.474815e-002
3.255304e+003,1.471933e-002
3.257232e+003,1.484740e-002
3.259161e+003,1.492901e-002
3.261090e+003,1.496060e-002
3.263018e+003,1.507547e-002
3.264947e+003,1.511797e-002
3.266875e+003,1.514387e-002
3.268803e+003,1.525735e-002
3.270732e+003,1.538833e-002
3.272660e+003,1.534800e-002
3.274589e+003,1.531357e-002
3.276518e+003,1.536650e-002
3.278446e+003,1.539001e-002
3.280375e+003,1.541569e-002
3.282303e+003,1.548968e-002
3.284231e+003,1.556544e-002
3.286160e+003,1.553700e-002
3.288088e+003,1.558398e-002
3.290017e+003,1.567576e-002
3.291946e+003,1.568328e-002
3.293874e+003,1.559806e-002
3.295802e+003,1.556812e-002
3.297731e+003,1.559260e-002
3.299659e+003,1.562362e-002
3.301588e+003,1.565100e-002
3.303516e+003,1.566089e-002
3.305445e+003,1.564917e-002
3.307374e+003,1.575577e-002
3.309302e+003,1.574358e-002
3.311230e+003,1.566841e-002
3.313159e+003,1.574440e-002
3.315087e+003,1.578938e-002
3.317016e+003,1.582594e-002
3.318944e+003,1.594967e-002
3.320873e+003,1.598631e-002
3.322802e+003,1.596995e-002
3.324730e+003,1.602853e-002
3.326658e+003,1.604032e-002
3.328587e+003,1.600597e-002
3.330515e+003,1.600508e-002
3.332444e+003,1.603365e-002
3.334372e+003,1.599133e-002
3.336301e+003,1.581415e-002
3.338229e+003,1.581790e-002
3.340158e+003,1.583673e-002
3.342086e+003,1.587481e-002
3.344015e+003,1.580931e-002
3.345943e+003,1.575320e-002
3.347872e+003,1.572939e-002
3.349800e+003,1.568552e-002
3.351729e+003,1.561682e-002
3.353657e+003,1.555012e-002
3.355586e+003,1.553882e-002
3.357514e+003,1.547351e-002
3.359443e+003,1.536794e-002
3.361371e+003,1.529219e-002
3.363300e+003,1.525351e-002
3.365229e+003,1.520142e-002
3.367157e+003,1.519726e-002
3.369085e+003,1.518038e-002
3.371014e+003,1.515554e-002
3.372942e+003,1.517987e-002
3.374871e+003,1.507639e-002
3.376799e+003,1.488858e-002
3.378728e+003,1.488450e-002
3.380656e+003,1.490888e-002
3.382585e+003,1.482868e-002
3.384513e+003,1.477078e-002
3.386442e+003,1.470435e-002
3.388370e+003,1.468015e-002
3.390299e+003,1.464756e-002
3.392227e+003,1.458019e-002
3.394156e+003,1.449446e-002
3.396084e+003,1.447980e-002
3.398013e+003,1.451783e-002
3.399941e+003,1.450882e-002
3.401870e+003,1.448624e-002
3.403798e+003,1.443164e-002
3.405727e+003,1.432769e-002
3.407655e+003,1.408332e-002
3.409584e+003,1.394992e-002
3.411512e+003,1.390613e-002
3.413441e+003,1.391263e-002
3.415369e+003,1.382437e-002
3.417298e+003,1.364873e-002
3.419226e+003,1.361183e-002
3.421155e+003,1.360582e-002
3.423083e+003,1.349984e-002
3.425012e+003,1.339944e-002
3.426940e+003,1.330988e-002
3.428869e+003,1.325822e-002
3.430797e+003,1.317566e-002
3.432726e+003,1.297167e-002
3.434654e+003,1.285630e-002
3.436583e+003,1.277637e-002
3.438511e+003,1.265536e-002
3.440440e+003,1.258737e-002
3.442368e+003,1.258734e-002
3.444297e+003,1.242109e-002
3.446225e+003,1.223426e-002
3.448154e+003,1.208692e-002
3.450082e+003,1.203108e-002
3.452011e+003,1.198057e-002
3.453939e+003,1.190366e-002
3.455868e+003,1.187788e-002
3.457796e+003,1.179228e-002
3.459725e+003,1.164611e-002
3.461653e+003,1.155532e-002
3.463582e+003,1.154705e-002
3.465510e+003,1.141144e-002
3.467439e+003,1.126883e-002
3.469367e+003,1.119005e-002
3.471296e+003,1.103824e-002
3.473224e+003,1.094438e-002
3.475153e+003,1.091815e-002
3.477081e+003,1.090432e-002
3.479010e+003,1.078661e-002
3.480938e+003,1.065242e-002
3.482867e+003,1.055599e-002
3.484795e+003,1.048603e-002
3.486724e+003,1.041896e-002
3.488652e+003,1.029551e-002
3.490581e+003,1.017545e-002
3.492509e+003,1.012136e-002
3.494438e+003,1.003556e-002
3.496366e+003,9.932217e-003
3.498295e+003,9.855982e-003
3.500223e+003,9.709344e-003
3.502152e+003,9.619055e-003
3.504080e+003,9.615838e-003
3.506009e+003,9.583555e-003
3.507937e+003,9.459901e-003
3.509866e+003,9.328326e-003
3.511794e+003,9.320540e-003
3.513723e+003,9.254701e-003
3.515651e+003,9.182815e-003
3.517580e+003,9.106372e-003
3.519508e+003,9.082620e-003
3.521437e+003,8.994051e-003
3.523365e+003,8.861062e-003
3.525294e+003,8.767568e-003
3.527222e+003,8.662297e-003
3.529151e+003,8.707053e-003
3.531079e+003,8.675480e-003
3.533008e+003,8.643369e-003
3.534936e+003,8.622887e-003
3.536865e+003,8.511670e-003
3.538793e+003,8.358122e-003
3.540722e+003,8.257679e-003
3.542650e+003,8.214792e-003
3.544579e+003,8.241097e-003
3.546507e+003,8.094262e-003
3.548436e+003,7.980042e-003
3.550364e+003,7.898648e-003
3.552293e+003,7.872667e-003
3.554221e+003,7.849623e-003
3.556150e+003,7.667306e-003
3.558078e+003,7.554277e-003
3.560007e+003,7.528385e-003
3.561935e+003,7.466457e-003
3.563864e+003,7.390451e-003
3.565792e+003,7.295690e-003
3.567721e+003,7.311325e-003
3.569649e+003,7.233728e-003
3.571578e+003,7.139708e-003
3.573506e+003,7.076657e-003
3.575435e+003,6.948497e-003
3.577363e+003,6.803275e-003
3.579292e+003,6.652248e-003
3.581220e+003,6.420795e-003
3.583149e+003,6.276725e-003
3.585077e+003,6.184458e-003
3.587006e+003,6.085490e-003
3.588934e+003,5.842451e-003
3.590863e+003,5.587598e-003
3.592791e+003,5.425485e-003
3.594720e+003,5.189689e-003
3.596648e+003,5.029802e-003
3.598577e+003,5.088064e-003
3.600505e+003,5.129502e-003
3.602434e+003,5.071939e-003
3.604362e+003,5.067380e-003
3.606291e+003,5.237509e-003
3.608219e+003,5.585316e-003
3.610148e+003,5.893936e-003
3.612076e+003,6.049269e-003
3.614005e+003,5.862063e-003
3.615933e+003,5.441993e-003
3.617862e+003,5.031009e-003
3.619790e+003,4.640609e-003
3.621719e+003,4.366713e-003
3.623647e+003,4.285425e-003
3.625576e+003,4.264177e-003
3.627504e+003,4.217668e-003
3.629433e+003,4.403497e-003
3.631361e+003,4.690980e-003
3.633290e+003,4.842902e-003
3.635218e+003,4.958444e-003
3.637146e+003,5.233451e-003
3.639075e+003,5.430753e-003
3.641004e+003,5.597801e-003
3.642932e+003,5.732581e-003
3.644861e+003,5.735737e-003
3.646789e+003,5.825122e-003
3.648718e+003,5.851787e-003
3.650646e+003,5.804738e-003
3.652574e+003,5.863642e-003
3.654503e+003,5.825324e-003
3.656432e+003,5.930581e-003
3.658360e+003,5.941732e-003
3.660289e+003,5.943076e-003
3.662217e+003,5.930413e-003
3.664146e+003,5.790132e-003
3.666074e+003,5.678362e-003
3.668002e+003,5.717876e-003
3.669931e+003,5.678866e-003
3.671860e+003,5.568233e-003
3.673788e+003,5.487290e-003
3.675717e+003,5.464104e-003
3.677645e+003,5.423170e-003
3.679573e+003,5.280672e-003
3.681502e+003,5.183385e-003
3.683430e+003,5.115857e-003
3.685359e+003,4.915615e-003
3.687288e+003,4.627380e-003
3.689216e+003,4.482230e-003
3.691145e+003,4.280339e-003
3.693073e+003,4.120686e-003
3.695001e+003,3.935914e-003
3.696930e+003,3.749450e-003
3.698858e+003,3.556151e-003
3.700787e+003,3.426153e-003
3.702716e+003,3.438543e-003
3.704644e+003,3.633962e-003
3.706573e+003,3.772545e-003
3.708501e+003,3.925683e-003
3.710429e+003,4.284053e-003
3.712358e+003,4.884182e-003
3.714286e+003,5.200453e-003
3.716215e+003,4.899797e-003
3.718144e+003,4.316512e-003
3.720072e+003,3.727660e-003
3.722000e+003,3.310750e-003
3.723929e+003,3.129459e-003
3.725857e+003,2.930732e-003
3.727786e+003,2.888535e-003
3.729714e+003,2.946510e-003
3.731643e+003,3.051706e-003
3.733572e+003,3.347177e-003
3.735500e+003,3.702696e-003
3.737428e+003,4.113695e-003
3.739357e+003,4.545507e-003
3.741285e+003,4.791373e-003
3.743214e+003,4.983916e-003
3.745142e+003,5.329340e-003
3.747071e+003,5.633918e-003
3.749000e+003,5.783550e-003
3.750928e+003,5.877848e-003
3.752856e+003,5.862802e-003
3.754785e+003,5.885842e-003
3.756713e+003,6.051756e-003
3.758642e+003,6.091337e-003
3.760570e+003,5.952146e-003
3.762499e+003,5.951575e-003
3.764427e+003,6.015302e-003
3.766356e+003,6.048127e-003
3.768284e+003,6.031361e-003
3.770213e+003,5.976399e-003
3.772141e+003,6.050848e-003
3.774070e+003,6.056997e-003
3.775998e+003,5.958226e-003
3.777927e+003,5.995716e-003
3.779855e+003,6.078467e-003
3.781784e+003,6.104274e-003
3.783712e+003,5.966792e-003
3.785641e+003,5.959704e-003
3.787569e+003,5.974988e-003
3.789498e+003,5.952683e-003
3.791426e+003,5.987721e-003
3.793355e+003,6.162747e-003
3.795283e+003,6.159823e-003
3.797212e+003,6.124705e-003
3.799140e+003,6.073528e-003
3.801069e+003,6.009288e-003
3.802997e+003,6.009591e-003
3.804926e+003,6.058543e-003
3.806854e+003,6.051319e-003
3.808783e+003,6.067850e-003
3.810711e+003,6.099469e-003
3.812640e+003,6.118656e-003
3.814568e+003,6.083171e-003
3.816497e+003,6.139525e-003
3.818425e+003,6.175115e-003
3.820354e+003,6.037812e-003
3.822282e+003,6.016108e-003
3.824211e+003,6.057467e-003
3.826139e+003,6.098763e-003
3.828068e+003,6.165503e-003
3.829996e+003,6.150581e-003
3.831925e+003,6.124369e-003
3.833853e+003,6.093454e-003
3.835782e+003,6.072520e-003
3.837710e+003,6.068051e-003
3.839639e+003,6.088648e-003
3.841567e+003,6.106054e-003
3.843496e+003,6.201801e-003
3.845424e+003,6.246371e-003
3.847353e+003,6.241530e-003
3.849281e+003,6.181702e-003
3.851210e+003,6.104744e-003
3.853138e+003,6.070840e-003
3.855067e+003,6.062574e-003
3.856995e+003,6.017754e-003
3.858924e+003,6.051890e-003
3.860852e+003,6.053704e-003
3.862781e+003,6.134013e-003
3.864709e+003,6.187046e-003
3.866638e+003,6.157000e-003
3.868566e+003,6.153505e-003
3.870495e+003,6.171048e-003
3.872423e+003,6.169637e-003
3.874352e+003,6.119295e-003
3.876280e+003,6.064859e-003
3.878209e+003,6.064120e-003
3.880137e+003,6.103837e-003
3.882066e+003,6.168964e-003
3.883994e+003,6.188727e-003
3.885923e+003,6.195079e-003
3.887851e+003,6.208859e-003
3.889780e+003,6.173871e-003
3.891708e+003,6.138584e-003
3.893637e+003,6.161033e-003
3.895565e+003,6.156832e-003
3.897494e+003,6.184592e-003
3.899422e+003,6.277969e-003
3.901351e+003,6.262405e-003
3.903279e+003,6.245093e-003
3.905208e+003,6.191583e-003
3.907136e+003,6.108911e-003
3.909065e+003,6.191180e-003
3.910993e+003,6.219447e-003
3.912922e+003,6.162411e-003
3.914850e+003,6.166780e-003
3.916779e+003,6.164427e-003
3.918707e+003,6.223782e-003
3.920636e+003,6.182072e-003
3.922564e+003,6.202338e-003
3.924493e+003,6.251581e-003
3.926421e+003,6.217463e-003
3.928350e+003,6.170342e-003
3.930278e+003,6.197162e-003
3.932207e+003,6.154748e-003
3.934135e+003,6.217094e-003
3.936064e+003,6.206943e-003
3.937992e+003,6.213867e-003
3.939921e+003,6.125343e-003
3.941849e+003,6.174342e-003
3.943778e+003,6.230371e-003
3.945706e+003,6.297265e-003
3.947635e+003,6.256892e-003
3.949563e+003,6.210909e-003
3.951492e+003,6.189835e-003
3.953420e+003,6.156664e-003
3.955349e+003,6.173401e-003
3.957277e+003,6.252051e-003
3.959206e+003,6.295315e-003
3.961134e+003,6.246740e-003
3.963063e+003,6.234505e-003
3.964991e+003,6.205565e-003
3.966920e+003,6.131291e-003
3.968848e+003,6.157000e-003
3.970777e+003,6.197633e-003
3.972705e+003,6.278944e-003
3.974634e+003,6.300593e-003
3.976562e+003,6.342921e-003
3.978491e+003,6.287146e-003
3.980419e+003,6.193533e-003
3.982348e+003,6.252657e-003
3.984276e+003,6.335995e-003
3.986205e+003,6.288894e-003
3.988133e+003,6.191415e-003
3.990062e+003,6.176224e-003
3.991990e+003,6.161302e-003
3.993919e+003,6.194574e-003
3.995847e+003,6.279347e-003
3.997776e+003,6.286339e-003
3.999704e+003,6.286339e-003
4.001633e+003,0.000000e+000
