3.991989e+002,2.559695e-002
4.011274e+002,2.722115e-002
4.030559e+002,2.722115e-002
4.049844e+002,2.784876e-002
4.069129e+002,2.817256e-002
4.088414e+002,2.968735e-002
4.107699e+002,3.162280e-002
4.126984e+002,3.251968e-002
4.146269e+002,3.341485e-002
4.165554e+002,3.446727e-002
4.184839e+002,3.540643e-002
4.204124e+002,3.725120e-002
4.223409e+002,3.890426e-002
4.242694e+002,3.928746e-002
4.261979e+002,4.024322e-002
4.281264e+002,4.124035e-002
4.300549e+002,4.130998e-002
4.319834e+002,4.164033e-002
4.339119e+002,4.243810e-002
4.358404e+002,4.269452e-002
4.377689e+002,4.278252e-002
4.396974e+002,4.406673e-002
4.416259e+002,4.363767e-002
4.435544e+002,4.312559e-002
4.454829e+002,4.303096e-002
4.474114e+002,4.367576e-002
4.493399e+002,4.395397e-002
4.512684e+002,4.321276e-002
4.531969e+002,4.319786e-002
4.551254e+002,4.313906e-002
4.570539e+002,4.337592e-002
4.589824e+002,4.361635e-002
4.609109e+002,4.281287e-002
4.628394e+002,4.290024e-002
4.647679e+002,4.303959e-002
4.666964e+002,4.279844e-002
4.686249e+002,4.228572e-002
4.705533e+002,4.230887e-002
4.724819e+002,4.221219e-002
4.744103e+002,4.231541e-002
4.763389e+002,4.282122e-002
4.782673e+002,4.299166e-002
4.801959e+002,4.273549e-002
4.821243e+002,4.283075e-002
4.840529e+002,4.302736e-002
4.859813e+002,4.341261e-002
4.879099e+002,4.322456e-002
4.898383e+002,4.313372e-002
4.917668e+002,4.335001e-002
4.936953e+002,4.338913e-002
4.956238e+002,4.402494e-002
4.975523e+002,4.410017e-002
4.994808e+002,4.400124e-002
5.014093e+002,4.443869e-002
5.033378e+002,4.458484e-002
5.052663e+002,4.440053e-002
5.071948e+002,4.475517e-002
5.091233e+002,4.526399e-002
5.110518e+002,4.536747e-002
5.129803e+002,4.595279e-002
5.149088e+002,4.603596e-002
5.168373e+002,4.626158e-002
5.187658e+002,4.641755e-002
5.206943e+002,4.682535e-002
5.226228e+002,4.705266e-002
5.245513e+002,4.673512e-002
5.264798e+002,4.652665e-002
5.284083e+002,4.669309e-002
5.303368e+002,4.658193e-002
5.322653e+002,4.671060e-002
5.341938e+002,4.636330e-002
5.361223e+002,4.593211e-002
5.380508e+002,4.585624e-002
5.399792e+002,4.591475e-002
5.419078e+002,4.571579e-002
5.438363e+002,4.560303e-002
5.457648e+002,4.564297e-002
5.476932e+002,4.584803e-002
5.496218e+002,4.592296e-002
5.515503e+002,4.629995e-002
5.534788e+002,4.703630e-002
5.554072e+002,4.750934e-002
5.573358e+002,4.773333e-002
5.592643e+002,4.807405e-002
5.611927e+002,4.802290e-002
5.631212e+002,4.771496e-002
5.650497e+002,4.730007e-002
5.669783e+002,4.702058e-002
5.689067e+002,4.666670e-002
5.708352e+002,4.631872e-002
5.727637e+002,4.586311e-002
5.746923e+002,4.592645e-002
5.766207e+002,4.587384e-002
5.785492e+002,4.584017e-002
5.804777e+002,4.593055e-002
5.824063e+002,4.575871e-002
5.843347e+002,4.557319e-002
5.862632e+002,4.551627e-002
5.881917e+002,4.561109e-002
5.901202e+002,4.588390e-002
5.920487e+002,4.584262e-002
5.939772e+002,4.586718e-002
5.959057e+002,4.583944e-002
5.978342e+002,4.581736e-002
5.997627e+002,4.552454e-002
6.016912e+002,4.532255e-002
6.036197e+002,4.517447e-002
6.055482e+002,4.489358e-002
6.074767e+002,4.490796e-002
6.094052e+002,4.481317e-002
6.113337e+002,4.430322e-002
6.132622e+002,4.391976e-002
6.151907e+002,4.360811e-002
6.171192e+002,4.343885e-002
6.190477e+002,4.300405e-002
6.209762e+002,4.268335e-002
6.229047e+002,4.184891e-002
6.248332e+002,4.082866e-002
6.267617e+002,4.002255e-002
6.286902e+002,3.958231e-002
6.306187e+002,3.938790e-002
6.325472e+002,3.924230e-002
6.344756e+002,3.894691e-002
6.364042e+002,3.847605e-002
6.383326e+002,3.821427e-002
6.402612e+002,3.813371e-002
6.421896e+002,3.752656e-002
6.441182e+002,3.721621e-002
6.460466e+002,3.712432e-002
6.479752e+002,3.694246e-002
6.499036e+002,3.694360e-002
6.518322e+002,3.665798e-002
6.537606e+002,3.672657e-002
6.556891e+002,3.695684e-002
6.576177e+002,3.691679e-002
6.595461e+002,3.697021e-002
6.614746e+002,3.733272e-002
6.634031e+002,3.757150e-002
6.653317e+002,3.753906e-002
6.672601e+002,3.723655e-002
6.691886e+002,3.694372e-002
6.711171e+002,3.663225e-002
6.730457e+002,3.588726e-002
6.749741e+002,3.495792e-002
6.769026e+002,3.392722e-002
6.788311e+002,3.308640e-002
6.807596e+002,3.225298e-002
6.826881e+002,3.149775e-002
6.846166e+002,3.104843e-002
6.865451e+002,3.071726e-002
6.884736e+002,3.038759e-002
6.904021e+002,3.044227e-002
6.923306e+002,3.024282e-002
6.942591e+002,3.019991e-002
6.961876e+002,3.010223e-002
6.981161e+002,2.979401e-002
7.000446e+002,2.967969e-002
7.019731e+002,2.954063e-002
7.039016e+002,2.927084e-002
7.058301e+002,2.923386e-002
7.077585e+002,2.907777e-002
7.096871e+002,2.886527e-002
7.116156e+002,2.857281e-002
7.135441e+002,2.826587e-002
7.154725e+002,2.798154e-002
7.174011e+002,2.789337e-002
7.193296e+002,2.787398e-002
7.212581e+002,2.765419e-002
7.231865e+002,2.736857e-002
7.251151e+002,2.708828e-002
7.270436e+002,2.670393e-002
7.289720e+002,2.658466e-002
7.309005e+002,2.635664e-002
7.328290e+002,2.615434e-002
7.347576e+002,2.588030e-002
7.366860e+002,2.571225e-002
7.386145e+002,2.554392e-002
7.405430e+002,2.537583e-002
7.424716e+002,2.506622e-002
7.444000e+002,2.481211e-002
7.463285e+002,2.464978e-002
7.482570e+002,2.449469e-002
7.501855e+002,2.421572e-002
7.521140e+002,2.402460e-002
7.540425e+002,2.385958e-002
7.559710e+002,2.373069e-002
7.578995e+002,2.349515e-002
7.598280e+002,2.341470e-002
7.617565e+002,2.325694e-002
7.636850e+002,2.319616e-002
7.656135e+002,2.305543e-002
7.675420e+002,2.291786e-002
7.694705e+002,2.276555e-002
7.713990e+002,2.269887e-002
7.733275e+002,2.263596e-002
7.752560e+002,2.251918e-002
7.771844e+002,2.244834e-002
7.791130e+002,2.246296e-002
7.810415e+002,2.240442e-002
7.829700e+002,2.239227e-002
7.848984e+002,2.242793e-002
7.868270e+002,2.238718e-002
7.887555e+002,2.217509e-002
7.906840e+002,2.203737e-002
7.926124e+002,2.202500e-002
7.945410e+002,2.208994e-002
7.964695e+002,2.213582e-002
7.983979e+002,2.215587e-002
8.003264e+002,2.204040e-002
8.022549e+002,2.205776e-002
8.041835e+002,2.219273e-002
8.061119e+002,2.226387e-002
8.080404e+002,2.227653e-002
8.099689e+002,2.224665e-002
8.118975e+002,2.219946e-002
8.138259e+002,2.225355e-002
8.157545e+002,2.238345e-002
8.176830e+002,2.246453e-002
8.196115e+002,2.249116e-002
8.215399e+002,2.257837e-002
8.234684e+002,2.270948e-002
8.253970e+002,2.285928e-002
8.273254e+002,2.295687e-002
8.292539e+002,2.307818e-002
8.311824e+002,2.312535e-002
8.331110e+002,2.314985e-002
8.350394e+002,2.314856e-002
8.369679e+002,2.312930e-002
8.388964e+002,2.302332e-002
8.408250e+002,2.285045e-002
8.427534e+002,2.270508e-002
8.446819e+002,2.268183e-002
8.466104e+002,2.260908e-002
8.485389e+002,2.247430e-002
8.504674e+002,2.243278e-002
8.523959e+002,2.243826e-002
8.543244e+002,2.234950e-002
8.562529e+002,2.237616e-002
8.581814e+002,2.242667e-002
8.601099e+002,2.243770e-002
8.620384e+002,2.246701e-002
8.639669e+002,2.258559e-002
8.658954e+002,2.271140e-002
8.678239e+002,2.287772e-002
8.697524e+002,2.293539e-002
8.716809e+002,2.302860e-002
8.736094e+002,2.310047e-002
8.755378e+002,2.321605e-002
8.774664e+002,2.347079e-002
8.793949e+002,2.363006e-002
8.813234e+002,2.373821e-002
8.832518e+002,2.412743e-002
8.851804e+002,2.466333e-002
8.871089e+002,2.525835e-002
8.890374e+002,2.582356e-002
8.909658e+002,2.643901e-002
8.928943e+002,2.703284e-002
8.948229e+002,2.752432e-002
8.967513e+002,2.768864e-002
8.986798e+002,2.763303e-002
9.006083e+002,2.722252e-002
9.025369e+002,2.669534e-002
9.044653e+002,2.617150e-002
9.063938e+002,2.572940e-002
9.083223e+002,2.545523e-002
9.102509e+002,2.539828e-002
9.121793e+002,2.527893e-002
9.141078e+002,2.518903e-002
9.160364e+002,2.515539e-002
9.179648e+002,2.525498e-002
9.198933e+002,2.541560e-002
9.218218e+002,2.553453e-002
9.237504e+002,2.569020e-002
9.256788e+002,2.594123e-002
9.276073e+002,2.619392e-002
9.295358e+002,2.635447e-002
9.314644e+002,2.662361e-002
9.333928e+002,2.693144e-002
9.353213e+002,2.727523e-002
9.372498e+002,2.760877e-002
9.391783e+002,2.797985e-002
9.411068e+002,2.835092e-002
9.430353e+002,2.896498e-002
9.449637e+002,2.967891e-002
9.468923e+002,3.026134e-002
9.488208e+002,3.103182e-002
9.507493e+002,3.189006e-002
9.526777e+002,3.270752e-002
9.546063e+002,3.365432e-002
9.565348e+002,3.466236e-002
9.584633e+002,3.564250e-002
9.603917e+002,3.665402e-002
9.623203e+002,3.765211e-002
9.642488e+002,3.864261e-002
9.661772e+002,3.952602e-002
9.681057e+002,4.040926e-002
9.700343e+002,4.132276e-002
9.719628e+002,4.230729e-002
9.738912e+002,4.329603e-002
9.758197e+002,4.442064e-002
9.777483e+002,4.562682e-002
9.796768e+002,4.715294e-002
9.816052e+002,4.889792e-002
9.835337e+002,5.056525e-002
9.854623e+002,5.200516e-002
9.873907e+002,5.318790e-002
9.893192e+002,5.404938e-002
9.912477e+002,5.452162e-002
9.931763e+002,5.479643e-002
9.951047e+002,5.492381e-002
9.970332e+002,5.519033e-002
9.989617e+002,5.578414e-002
1.000890e+003,5.648875e-002
1.002819e+003,5.723703e-002
1.004747e+003,5.795453e-002
1.006676e+003,5.869090e-002
1.008604e+003,5.950698e-002
1.010533e+003,6.026577e-002
1.012461e+003,6.106048e-002
1.014390e+003,6.219456e-002
1.016318e+003,6.351670e-002
1.018247e+003,6.481456e-002
1.020175e+003,6.606130e-002
1.022104e+003,6.732953e-002
1.024032e+003,6.871376e-002
1.025961e+003,7.026887e-002
1.027889e+003,7.177124e-002
1.029818e+003,7.312933e-002
1.031746e+003,7.425354e-002
1.033675e+003,7.487815e-002
1.035603e+003,7.486445e-002
1.037532e+003,7.420370e-002
1.039460e+003,7.315682e-002
1.041389e+003,7.205363e-002
1.043317e+003,7.121857e-002
1.045246e+003,7.080301e-002
1.047174e+003,7.065979e-002
1.049103e+003,7.051665e-002
1.051031e+003,7.032999e-002
1.052960e+003,7.010062e-002
1.054888e+003,6.949116e-002
1.056817e+003,6.847341e-002
1.058745e+003,6.722586e-002
1.060674e+003,6.568575e-002
1.062602e+003,6.384397e-002
1.064531e+003,6.173911e-002
1.066459e+003,5.969036e-002
1.068388e+003,5.782532e-002
1.070316e+003,5.622004e-002
1.072245e+003,5.487794e-002
1.074173e+003,5.362120e-002
1.076102e+003,5.234237e-002
1.078030e+003,5.111802e-002
1.079959e+003,4.986865e-002
1.081887e+003,4.868408e-002
1.083816e+003,4.775176e-002
1.085744e+003,4.708898e-002
1.087673e+003,4.648248e-002
1.089601e+003,4.603779e-002
1.091530e+003,4.566988e-002
1.093458e+003,4.541564e-002
1.095387e+003,4.527220e-002
1.097315e+003,4.531490e-002
1.099244e+003,4.541193e-002
1.101172e+003,4.564342e-002
1.103101e+003,4.585897e-002
1.105029e+003,4.586858e-002
1.106958e+003,4.559969e-002
1.108886e+003,4.510774e-002
1.110815e+003,4.436251e-002
1.112743e+003,4.330511e-002
1.114672e+003,4.201498e-002
1.116600e+003,4.068954e-002
1.118529e+003,3.951248e-002
1.120457e+003,3.864742e-002
1.122386e+003,3.777469e-002
1.124314e+003,3.679078e-002
1.126243e+003,3.559193e-002
1.128171e+003,3.421927e-002
1.130100e+003,3.287092e-002
1.132028e+003,3.151281e-002
1.133957e+003,3.020738e-002
1.135885e+003,2.903051e-002
1.137814e+003,2.818253e-002
1.139742e+003,2.773156e-002
1.141671e+003,2.765771e-002
1.143599e+003,2.787897e-002
1.145528e+003,2.828638e-002
1.147456e+003,2.880431e-002
1.149385e+003,2.946496e-002
1.151313e+003,3.025420e-002
1.153242e+003,3.103054e-002
1.155170e+003,3.179187e-002
1.157099e+003,3.244887e-002
1.159027e+003,3.292142e-002
1.160956e+003,3.304951e-002
1.162884e+003,3.272874e-002
1.164813e+003,3.200975e-002
1.166741e+003,3.084111e-002
1.168670e+003,2.937394e-002
1.170598e+003,2.778139e-002
1.172526e+003,2.610183e-002
1.174455e+003,2.453818e-002
1.176384e+003,2.324418e-002
1.178312e+003,2.217310e-002
1.180240e+003,2.128107e-002
1.182169e+003,2.053248e-002
1.184098e+003,1.999639e-002
1.186026e+003,1.962575e-002
1.187954e+003,1.937192e-002
1.189883e+003,1.930310e-002
1.191812e+003,1.939883e-002
1.193740e+003,1.960908e-002
1.195668e+003,1.995136e-002
1.197597e+003,2.034910e-002
1.199526e+003,2.073608e-002
1.201454e+003,2.108775e-002
1.203382e+003,2.132396e-002
1.205311e+003,2.140494e-002
1.207240e+003,2.146098e-002
1.209168e+003,2.155353e-002
1.211096e+003,2.176163e-002
1.213025e+003,2.204720e-002
1.214953e+003,2.242387e-002
1.216882e+003,2.286938e-002
1.218810e+003,2.338781e-002
1.220739e+003,2.394297e-002
1.222667e+003,2.449677e-002
1.224596e+003,2.506422e-002
1.226524e+003,2.561069e-002
1.228453e+003,2.612556e-002
1.230381e+003,2.660578e-002
1.232310e+003,2.696111e-002
1.234238e+003,2.718094e-002
1.236167e+003,2.737691e-002
1.238095e+003,2.750266e-002
1.240024e+003,2.754411e-002
1.241952e+003,2.753848e-002
1.243881e+003,2.740036e-002
1.245809e+003,2.718761e-002
1.247738e+003,2.691085e-002
1.249666e+003,2.654408e-002
1.251595e+003,2.619322e-002
1.253523e+003,2.588904e-002
1.255452e+003,2.556395e-002
1.257380e+003,2.522354e-002
1.259309e+003,2.484205e-002
1.261237e+003,2.438875e-002
1.263166e+003,2.389888e-002
1.265094e+003,2.339012e-002
1.267023e+003,2.285389e-002
1.268951e+003,2.235057e-002
1.270880e+003,2.186253e-002
1.272808e+003,2.136342e-002
1.274737e+003,2.095726e-002
1.276665e+003,2.056396e-002
1.278594e+003,2.018737e-002
1.280522e+003,1.991943e-002
1.282451e+003,1.966107e-002
1.284379e+003,1.938161e-002
1.286308e+003,1.916135e-002
1.288236e+003,1.896559e-002
1.290165e+003,1.884400e-002
1.292093e+003,1.880726e-002
1.294022e+003,1.881576e-002
1.295950e+003,1.893361e-002
1.297879e+003,1.909540e-002
1.299807e+003,1.934656e-002
1.301736e+003,1.972060e-002
1.303664e+003,2.010990e-002
1.305593e+003,2.049062e-002
1.307521e+003,2.093118e-002
1.309450e+003,2.133555e-002
1.311378e+003,2.168899e-002
1.313307e+003,2.201240e-002
1.315235e+003,2.225804e-002
1.317164e+003,2.234979e-002
1.319092e+003,2.236493e-002
1.321021e+003,2.226120e-002
1.322949e+003,2.209016e-002
1.324878e+003,2.189761e-002
1.326806e+003,2.175895e-002
1.328735e+003,2.165583e-002
1.330663e+003,2.154952e-002
1.332592e+003,2.143698e-002
1.334520e+003,2.132409e-002
1.336449e+003,2.112169e-002
1.338377e+003,2.086568e-002
1.340306e+003,2.061277e-002
1.342234e+003,2.038180e-002
1.344163e+003,2.020225e-002
1.346091e+003,2.010706e-002
1.348020e+003,2.011536e-002
1.349948e+003,2.021092e-002
1.351877e+003,2.033838e-002
1.353805e+003,2.052176e-002
1.355734e+003,2.075662e-002
1.357662e+003,2.100308e-002
1.359591e+003,2.126685e-002
1.361519e+003,2.155836e-002
1.363448e+003,2.181804e-002
1.365376e+003,2.196088e-002
1.367305e+003,2.206717e-002
1.369233e+003,2.212391e-002
1.371162e+003,2.208268e-002
1.373090e+003,2.191458e-002
1.375019e+003,2.165500e-002
1.376947e+003,2.126471e-002
1.378876e+003,2.078180e-002
1.380804e+003,2.023088e-002
1.382733e+003,1.969334e-002
1.384661e+003,1.919193e-002
1.386590e+003,1.868142e-002
1.388518e+003,1.827881e-002
1.390447e+003,1.798390e-002
1.392375e+003,1.776792e-002
1.394304e+003,1.766432e-002
1.396232e+003,1.759147e-002
1.398161e+003,1.755376e-002
1.400089e+003,1.758786e-002
1.402018e+003,1.757090e-002
1.403946e+003,1.759576e-002
1.405875e+003,1.767961e-002
1.407803e+003,1.777346e-002
1.409732e+003,1.793583e-002
1.411660e+003,1.822711e-002
1.413589e+003,1.851656e-002
1.415517e+003,1.882264e-002
1.417446e+003,1.913444e-002
1.419374e+003,1.947812e-002
1.421303e+003,1.970932e-002
1.423231e+003,1.977183e-002
1.425160e+003,1.977489e-002
1.427088e+003,1.965869e-002
1.429017e+003,1.942751e-002
1.430945e+003,1.913551e-002
1.432874e+003,1.884023e-002
1.434802e+003,1.856332e-002
1.436731e+003,1.830141e-002
1.438659e+003,1.810017e-002
1.440588e+003,1.796697e-002
1.442516e+003,1.789745e-002
1.444445e+003,1.789294e-002
1.446373e+003,1.796967e-002
1.448302e+003,1.807231e-002
1.450230e+003,1.819050e-002
1.452159e+003,1.824736e-002
1.454087e+003,1.824581e-002
1.456016e+003,1.819600e-002
1.457944e+003,1.811508e-002
1.459873e+003,1.805904e-002
1.461801e+003,1.792956e-002
1.463730e+003,1.768575e-002
1.465658e+003,1.733139e-002
1.467587e+003,1.681600e-002
1.469515e+003,1.623555e-002
1.471444e+003,1.560438e-002
1.473372e+003,1.506719e-002
1.475301e+003,1.458367e-002
1.477229e+003,1.415825e-002
1.479158e+003,1.392493e-002
1.481086e+003,1.382026e-002
1.483015e+003,1.378446e-002
1.484943e+003,1.380589e-002
1.486872e+003,1.389108e-002
1.488800e+003,1.404342e-002
1.490729e+003,1.427721e-002
1.492657e+003,1.459028e-002
1.494586e+003,1.494043e-002
1.496514e+003,1.524107e-002
1.498443e+003,1.549517e-002
1.500371e+003,1.573998e-002
1.502300e+003,1.597071e-002
1.504228e+003,1.613083e-002
1.506157e+003,1.618294e-002
1.508085e+003,1.620690e-002
1.510014e+003,1.616268e-002
1.511942e+003,1.610672e-002
1.513871e+003,1.597884e-002
1.515799e+003,1.572977e-002
1.517728e+003,1.533507e-002
1.519656e+003,1.486055e-002
1.521585e+003,1.442090e-002
1.523513e+003,1.408496e-002
1.525442e+003,1.386455e-002
1.527370e+003,1.371566e-002
1.529299e+003,1.362872e-002
1.531227e+003,1.356878e-002
1.533156e+003,1.350093e-002
1.535084e+003,1.348239e-002
1.537013e+003,1.346899e-002
1.538941e+003,1.348668e-002
1.540870e+003,1.346125e-002
1.542798e+003,1.350798e-002
1.544727e+003,1.354130e-002
1.546655e+003,1.353707e-002
1.548584e+003,1.352543e-002
1.550512e+003,1.354493e-002
1.552441e+003,1.353792e-002
1.554369e+003,1.354499e-002
1.556298e+003,1.357405e-002
1.558226e+003,1.359097e-002
1.560155e+003,1.366635e-002
1.562083e+003,1.371615e-002
1.564012e+003,1.375669e-002
1.565940e+003,1.385868e-002
1.567869e+003,1.394866e-002
1.569797e+003,1.407997e-002
1.571726e+003,1.423801e-002
1.573654e+003,1.441137e-002
1.575583e+003,1.463868e-002
1.577511e+003,1.490640e-002
1.579440e+003,1.524024e-002
1.581368e+003,1.560853e-002
1.583297e+003,1.600150e-002
1.585225e+003,1.641434e-002
1.587154e+003,1.674860e-002
1.589082e+003,1.699192e-002
1.591010e+003,1.722455e-002
1.592939e+003,1.738512e-002
1.594868e+003,1.740685e-002
1.596796e+003,1.740430e-002
1.598724e+003,1.743536e-002
1.600653e+003,1.744494e-002
1.602582e+003,1.743704e-002
1.604510e+003,1.741124e-002
1.606438e+003,1.729259e-002
1.608367e+003,1.715535e-002
1.610296e+003,1.700407e-002
1.612224e+003,1.692381e-002
1.614152e+003,1.701519e-002
1.616081e+003,1.714958e-002
1.618010e+003,1.725821e-002
1.619938e+003,1.739904e-002
1.621866e+003,1.757070e-002
1.623795e+003,1.771111e-002
1.625724e+003,1.781720e-002
1.627652e+003,1.790532e-002
1.629580e+003,1.794512e-002
1.631509e+003,1.790443e-002
1.633438e+003,1.783175e-002
1.635366e+003,1.772308e-002
1.637294e+003,1.763053e-002
1.639223e+003,1.753730e-002
1.641151e+003,1.742805e-002
1.643080e+003,1.734748e-002
1.645008e+003,1.732115e-002
1.646937e+003,1.725630e-002
1.648865e+003,1.721745e-002
1.650794e+003,1.721205e-002
1.652722e+003,1.717833e-002
1.654651e+003,1.711367e-002
1.656579e+003,1.694868e-002
1.658508e+003,1.671121e-002
1.660436e+003,1.649360e-002
1.662365e+003,1.631755e-002
1.664293e+003,1.609282e-002
1.666222e+003,1.584632e-002
1.668150e+003,1.559734e-002
1.670079e+003,1.540003e-002
1.672007e+003,1.524667e-002
1.673936e+003,1.507317e-002
1.675864e+003,1.496057e-002
1.677793e+003,1.488469e-002
1.679721e+003,1.478640e-002
1.681650e+003,1.470049e-002
1.683578e+003,1.466072e-002
1.685507e+003,1.463552e-002
1.687435e+003,1.452515e-002
1.689364e+003,1.446736e-002
1.691292e+003,1.447320e-002
1.693221e+003,1.446266e-002
1.695149e+003,1.441752e-002
1.697078e+003,1.439417e-002
1.699006e+003,1.436399e-002
1.700935e+003,1.440196e-002
1.702863e+003,1.445274e-002
1.704792e+003,1.449162e-002
1.706720e+003,1.450903e-002
1.708649e+003,1.459270e-002
1.710577e+003,1.470077e-002
1.712506e+003,1.487878e-002
1.714434e+003,1.504162e-002
1.716363e+003,1.520591e-002
1.718291e+003,1.542118e-002
1.720220e+003,1.560131e-002
1.722148e+003,1.582140e-002
1.724077e+003,1.596265e-002
1.726005e+003,1.602870e-002
1.727934e+003,1.605789e-002
1.729862e+003,1.604392e-002
1.731791e+003,1.607350e-002
1.733719e+003,1.605468e-002
1.735648e+003,1.593752e-002
1.737576e+003,1.573015e-002
1.739505e+003,1.545529e-002
1.741433e+003,1.512402e-002
1.743362e+003,1.484353e-002
1.745290e+003,1.448906e-002
1.747219e+003,1.410509e-002
1.749147e+003,1.379966e-002
1.751076e+003,1.348121e-002
1.753004e+003,1.314552e-002
1.754933e+003,1.289310e-002
1.756861e+003,1.270006e-002
1.758790e+003,1.247894e-002
1.760718e+003,1.224744e-002
1.762647e+003,1.205328e-002
1.764575e+003,1.183380e-002
1.766504e+003,1.169163e-002
1.768432e+003,1.159643e-002
1.770361e+003,1.151387e-002
1.772289e+003,1.155351e-002
1.774218e+003,1.151649e-002
1.776146e+003,1.142386e-002
1.778075e+003,1.142563e-002
1.780003e+003,1.140810e-002
1.781932e+003,1.137764e-002
1.783860e+003,1.142903e-002
1.785789e+003,1.148670e-002
1.787717e+003,1.149458e-002
1.789646e+003,1.146646e-002
1.791574e+003,1.146801e-002
1.793503e+003,1.148342e-002
1.795431e+003,1.144778e-002
1.797360e+003,1.140167e-002
1.799288e+003,1.149044e-002
1.801217e+003,1.161875e-002
1.803145e+003,1.159554e-002
1.805074e+003,1.154943e-002
1.807002e+003,1.155388e-002
1.808931e+003,1.166082e-002
1.810859e+003,1.168818e-002
1.812788e+003,1.166840e-002
1.814716e+003,1.167140e-002
1.816645e+003,1.173548e-002
1.818573e+003,1.179807e-002
1.820502e+003,1.176898e-002
1.822430e+003,1.185688e-002
1.824359e+003,1.195137e-002
1.826287e+003,1.198967e-002
1.828216e+003,1.188315e-002
1.830144e+003,1.191172e-002
1.832073e+003,1.195070e-002
1.834001e+003,1.197043e-002
1.835930e+003,1.193340e-002
1.837858e+003,1.182813e-002
1.839787e+003,1.182670e-002
1.841715e+003,1.190820e-002
1.843644e+003,1.185624e-002
1.845572e+003,1.182273e-002
1.847501e+003,1.187742e-002
1.849429e+003,1.191426e-002
1.851358e+003,1.196247e-002
1.853286e+003,1.183428e-002
1.855215e+003,1.186794e-002
1.857143e+003,1.189937e-002
1.859072e+003,1.175338e-002
1.861000e+003,1.168767e-002
1.862929e+003,1.161475e-002
1.864857e+003,1.157196e-002
1.866786e+003,1.169551e-002
1.868714e+003,1.177759e-002
1.870643e+003,1.182748e-002
1.872571e+003,1.169688e-002
1.874500e+003,1.165755e-002
1.876428e+003,1.159992e-002
1.878357e+003,1.162581e-002
1.880285e+003,1.172243e-002
1.882214e+003,1.159468e-002
1.884142e+003,1.164885e-002
1.886071e+003,1.167213e-002
1.887999e+003,1.149434e-002
1.889928e+003,1.159363e-002
1.891856e+003,1.172243e-002
1.893785e+003,1.171242e-002
1.895713e+003,1.171094e-002
1.897642e+003,1.169679e-002
1.899570e+003,1.161405e-002
1.901499e+003,1.155928e-002
1.903427e+003,1.150833e-002
1.905356e+003,1.151931e-002
1.907284e+003,1.156826e-002
1.909213e+003,1.162278e-002
1.911141e+003,1.175516e-002
1.913070e+003,1.172906e-002
1.914998e+003,1.146152e-002
1.916927e+003,1.143571e-002
1.918855e+003,1.149810e-002
1.920784e+003,1.150975e-002
1.922712e+003,1.149738e-002
1.924641e+003,1.135473e-002
1.926569e+003,1.123024e-002
1.928498e+003,1.132103e-002
1.930426e+003,1.122303e-002
1.932355e+003,1.118773e-002
1.934283e+003,1.136904e-002
1.936212e+003,1.125458e-002
1.938140e+003,1.099276e-002
1.940069e+003,1.107330e-002
1.941997e+003,1.097026e-002
1.943926e+003,1.099966e-002
1.945854e+003,1.063720e-002
1.947783e+003,1.026493e-002
1.949711e+003,1.019149e-002
1.951640e+003,9.554975e-003
1.953568e+003,9.638836e-003
1.955497e+003,9.598159e-003
1.957425e+003,9.410759e-003
1.959354e+003,9.637438e-003
1.961282e+003,9.388989e-003
1.963211e+003,8.640419e-003
1.965139e+003,7.582454e-003
1.967068e+003,6.889165e-003
1.968996e+003,7.127098e-003
1.970925e+003,6.460923e-003
1.972853e+003,6.056080e-003
1.974782e+003,5.550103e-003
1.976710e+003,4.573638e-003
1.978639e+003,3.721280e-003
1.980567e+003,3.833497e-003
1.982496e+003,4.194845e-003
1.984424e+003,4.370820e-003
1.986353e+003,4.168889e-003
1.988281e+003,4.726990e-003
1.990210e+003,4.316748e-003
1.992138e+003,3.951491e-003
1.994067e+003,3.751779e-003
1.995995e+003,3.758579e-003
1.997924e+003,3.786949e-003
1.999852e+003,3.700170e-003
2.001781e+003,3.156744e-003
2.003709e+003,1.842357e-003
2.005638e+003,3.078951e-004
2.007566e+003,-2.967976e-004
2.009495e+003,-2.911883e-004
2.011423e+003,-4.701095e-004
2.013352e+003,-2.633122e-004
2.015280e+003,-6.210174e-004
2.017208e+003,-2.471266e-003
2.019137e+003,-2.385868e-003
2.021066e+003,-1.709303e-003
2.022994e+003,-2.101815e-003
2.024922e+003,-1.526310e-003
2.026851e+003,-2.117650e-003
2.028780e+003,-3.032637e-003
2.030708e+003,-4.323779e-003
2.032636e+003,-3.192217e-003
2.034565e+003,-2.803676e-003
2.036494e+003,-2.406749e-003
2.038422e+003,-2.224953e-003
2.040350e+003,-1.902902e-003
2.042279e+003,-1.467668e-003
2.044208e+003,-1.342528e-003
2.046136e+003,-1.130469e-003
2.048064e+003,-5.046555e-004
2.049993e+003,7.409560e-004
2.051921e+003,1.670621e-003
2.053850e+003,2.109775e-003
2.055778e+003,2.501634e-003
2.057707e+003,2.922976e-003
2.059635e+003,3.038975e-003
2.061564e+003,3.403645e-003
2.063492e+003,4.105058e-003
2.065421e+003,3.940573e-003
2.067349e+003,3.668866e-003
2.069278e+003,4.048605e-003
2.071206e+003,4.523717e-003
2.073135e+003,4.599887e-003
2.075063e+003,4.572443e-003
2.076992e+003,4.763640e-003
2.078920e+003,4.961984e-003
2.080849e+003,5.404792e-003
2.082777e+003,5.494175e-003
2.084706e+003,5.941317e-003
2.086634e+003,6.278037e-003
2.088563e+003,6.385837e-003
2.090491e+003,6.463073e-003
2.092420e+003,6.875039e-003
2.094348e+003,6.815215e-003
2.096277e+003,6.865966e-003
2.098205e+003,6.994120e-003
2.100134e+003,7.417987e-003
2.102062e+003,7.555794e-003
2.103991e+003,7.547366e-003
2.105919e+003,7.748791e-003
2.107848e+003,7.803641e-003
2.109776e+003,7.480514e-003
2.111705e+003,7.716816e-003
2.113633e+003,8.046127e-003
2.115562e+003,7.968467e-003
2.117490e+003,7.915587e-003
2.119419e+003,8.412778e-003
2.121347e+003,8.534242e-003
2.123276e+003,8.246805e-003
2.125204e+003,8.368492e-003
2.127133e+003,8.598857e-003
2.129061e+003,7.943224e-003
2.130990e+003,7.197512e-003
2.132918e+003,7.053353e-003
2.134847e+003,6.911497e-003
2.136775e+003,6.893620e-003
2.138704e+003,6.367196e-003
2.140632e+003,6.002536e-003
2.142561e+003,5.948249e-003
2.144489e+003,5.158840e-003
2.146418e+003,4.361291e-003
2.148346e+003,4.544436e-003
2.150275e+003,4.419597e-003
2.152203e+003,4.060514e-003
2.154132e+003,2.068872e-003
2.156060e+003,-8.205509e-004
2.157989e+003,-2.193557e-003
2.159917e+003,-3.696463e-003
2.161846e+003,-2.023908e-003
2.163774e+003,-4.745845e-004
2.165703e+003,-2.342276e-004
2.167631e+003,4.912911e-004
2.169560e+003,7.341415e-004
2.171488e+003,6.456657e-004
2.173417e+003,4.123500e-004
2.175345e+003,2.845489e-004
2.177274e+003,5.091046e-004
2.179202e+003,3.641632e-004
2.181131e+003,-3.072095e-004
2.183059e+003,-9.180678e-004
2.184988e+003,-1.294009e-003
2.186916e+003,-8.125475e-004
2.188845e+003,-4.030873e-004
2.190773e+003,3.289799e-004
2.192702e+003,4.238050e-005
2.194630e+003,4.343061e-004
2.196559e+003,6.548908e-004
2.198487e+003,3.389609e-004
2.200416e+003,1.335996e-003
2.202344e+003,1.556807e-003
2.204273e+003,1.127024e-003
2.206201e+003,1.307148e-003
2.208130e+003,1.592788e-003
2.210058e+003,2.301381e-003
2.211987e+003,2.801687e-003
2.213915e+003,2.696652e-003
2.215844e+003,2.705287e-003
2.217772e+003,2.633243e-003
2.219701e+003,2.581776e-003
2.221629e+003,2.760470e-003
2.223558e+003,3.312419e-003
2.225486e+003,3.898234e-003
2.227415e+003,3.870753e-003
2.229343e+003,3.546864e-003
2.231272e+003,3.983340e-003
2.233200e+003,4.358334e-003
2.235129e+003,4.202876e-003
2.237057e+003,4.323889e-003
2.238986e+003,4.449442e-003
2.240914e+003,4.608882e-003
2.242843e+003,4.520786e-003
2.244771e+003,4.690162e-003
2.246700e+003,4.773850e-003
2.248628e+003,4.956706e-003
2.250557e+003,4.933994e-003
2.252485e+003,5.312631e-003
2.254414e+003,5.780600e-003
2.256342e+003,5.718091e-003
2.258271e+003,5.921104e-003
2.260199e+003,6.164809e-003
2.262128e+003,6.389452e-003
2.264056e+003,6.783271e-003
2.265985e+003,6.964018e-003
2.267913e+003,7.251583e-003
2.269842e+003,7.443296e-003
2.271770e+003,7.704020e-003
2.273699e+003,7.644301e-003
2.275627e+003,7.586952e-003
2.277556e+003,7.576274e-003
2.279484e+003,7.700337e-003
2.281413e+003,8.057458e-003
2.283341e+003,8.273152e-003
2.285270e+003,8.683324e-003
2.287198e+003,8.901103e-003
2.289127e+003,8.829890e-003
2.291055e+003,8.981821e-003
2.292984e+003,9.220513e-003
2.294912e+003,9.323089e-003
2.296841e+003,9.449055e-003
2.298769e+003,9.672290e-003
2.300698e+003,9.828535e-003
2.302626e+003,1.015413e-002
2.304555e+003,1.025608e-002
2.306483e+003,1.039264e-002
2.308412e+003,1.065978e-002
2.310340e+003,1.072104e-002
2.312269e+003,1.053695e-002
2.314197e+003,1.055373e-002
2.316125e+003,1.081072e-002
2.318054e+003,1.118170e-002
2.319983e+003,1.146213e-002
2.321911e+003,1.160675e-002
2.323840e+003,1.173214e-002
2.325768e+003,1.192178e-002
2.327697e+003,1.199517e-002
2.329625e+003,1.177316e-002
2.331553e+003,1.141163e-002
2.333482e+003,1.109308e-002
2.335411e+003,1.083316e-002
2.337339e+003,1.086126e-002
2.339268e+003,1.059201e-002
2.341196e+003,1.006442e-002
2.343125e+003,1.034322e-002
2.345053e+003,1.023679e-002
2.346981e+003,1.018423e-002
2.348910e+003,9.934278e-003
2.350839e+003,9.694720e-003
2.352767e+003,9.769717e-003
2.354696e+003,9.828158e-003
2.356624e+003,9.743817e-003
2.358552e+003,9.598528e-003
2.360481e+003,9.431481e-003
2.362409e+003,8.999944e-003
2.364338e+003,8.633687e-003
2.366267e+003,8.547463e-003
2.368195e+003,8.767943e-003
2.370124e+003,8.934091e-003
2.372052e+003,8.915968e-003
2.373980e+003,8.926545e-003
2.375909e+003,8.926309e-003
2.377838e+003,8.967873e-003
2.379766e+003,9.331091e-003
2.381695e+003,9.676835e-003
2.383623e+003,9.951612e-003
2.385552e+003,9.949544e-003
2.387480e+003,9.807990e-003
2.389408e+003,9.707927e-003
2.391337e+003,9.769317e-003
2.393266e+003,9.924005e-003
2.395194e+003,9.933610e-003
2.397123e+003,9.924866e-003
2.399051e+003,9.971646e-003
2.400979e+003,1.016246e-002
2.402908e+003,1.012970e-002
2.404836e+003,1.005814e-002
2.406765e+003,1.021317e-002
2.408694e+003,1.032975e-002
2.410622e+003,1.044489e-002
2.412551e+003,1.048148e-002
2.414479e+003,1.050110e-002
2.416407e+003,1.072672e-002
2.418336e+003,1.086001e-002
2.420264e+003,1.094315e-002
2.422193e+003,1.110612e-002
2.424122e+003,1.125761e-002
2.426050e+003,1.123374e-002
2.427979e+003,1.126180e-002
2.429907e+003,1.142750e-002
2.431835e+003,1.164251e-002
2.433764e+003,1.178163e-002
2.435692e+003,1.178067e-002
2.437621e+003,1.175889e-002
2.439550e+003,1.167150e-002
2.441478e+003,1.166003e-002
2.443406e+003,1.166051e-002
2.445335e+003,1.170432e-002
2.447263e+003,1.176205e-002
2.449192e+003,1.160286e-002
2.451121e+003,1.145216e-002
2.453049e+003,1.128540e-002
2.454978e+003,1.101350e-002
2.456906e+003,1.104072e-002
2.458834e+003,1.095247e-002
2.460763e+003,1.084840e-002
2.462691e+003,1.074276e-002
2.464620e+003,1.071694e-002
2.466549e+003,1.078484e-002
2.468477e+003,1.080875e-002
2.470406e+003,1.083637e-002
2.472334e+003,1.087622e-002
2.474262e+003,1.082492e-002
2.476191e+003,1.074486e-002
2.478119e+003,1.080094e-002
2.480048e+003,1.090568e-002
2.481977e+003,1.085190e-002
2.483905e+003,1.078406e-002
2.485833e+003,1.084744e-002
2.487762e+003,1.090191e-002
2.489690e+003,1.088927e-002
2.491619e+003,1.083596e-002
2.493547e+003,1.084483e-002
2.495476e+003,1.079387e-002
2.497405e+003,1.085468e-002
2.499333e+003,1.086942e-002
2.501261e+003,1.080277e-002
2.503190e+003,1.087870e-002
2.505118e+003,1.090551e-002
2.507047e+003,1.087459e-002
2.508975e+003,1.095430e-002
2.510904e+003,1.084439e-002
2.512833e+003,1.067150e-002
2.514761e+003,1.066774e-002
2.516689e+003,1.083467e-002
2.518618e+003,1.085315e-002
2.520546e+003,1.081476e-002
2.522475e+003,1.075471e-002
2.524403e+003,1.076466e-002
2.526332e+003,1.077010e-002
2.528260e+003,1.066746e-002
2.530189e+003,1.070387e-002
2.532117e+003,1.066376e-002
2.534046e+003,1.055807e-002
2.535974e+003,1.052914e-002
2.537903e+003,1.052038e-002
2.539831e+003,1.050630e-002
2.541760e+003,1.048600e-002
2.543688e+003,1.057382e-002
2.545617e+003,1.051906e-002
2.547545e+003,1.052144e-002
2.549474e+003,1.048029e-002
2.551402e+003,1.053617e-002
2.553331e+003,1.051424e-002
2.555259e+003,1.044924e-002
2.557188e+003,1.034526e-002
2.559116e+003,1.034464e-002
2.561045e+003,1.043532e-002
2.562973e+003,1.048735e-002
2.564902e+003,1.034380e-002
2.566830e+003,1.028391e-002
2.568759e+003,1.032479e-002
2.570687e+003,1.031947e-002
2.572616e+003,1.033701e-002
2.574544e+003,1.024740e-002
2.576473e+003,1.024269e-002
2.578401e+003,1.024306e-002
2.580330e+003,1.032547e-002
2.582258e+003,1.019045e-002
2.584187e+003,1.001691e-002
2.586115e+003,1.005204e-002
2.588044e+003,1.017179e-002
2.589972e+003,1.024150e-002
2.591901e+003,1.020856e-002
2.593829e+003,1.007717e-002
2.595758e+003,1.001389e-002
2.597686e+003,1.008347e-002
2.599615e+003,1.005713e-002
2.601543e+003,9.927573e-003
2.603472e+003,9.875438e-003
2.605400e+003,9.862931e-003
2.607329e+003,9.893708e-003
2.609257e+003,9.887640e-003
2.611186e+003,9.929573e-003
2.613114e+003,9.994159e-003
2.615043e+003,1.000219e-002
2.616971e+003,9.976596e-003
2.618900e+003,1.004024e-002
2.620828e+003,1.012183e-002
2.622757e+003,1.013733e-002
2.624685e+003,1.014944e-002
2.626614e+003,1.020619e-002
2.628542e+003,1.035353e-002
2.630471e+003,1.046560e-002
2.632399e+003,1.061802e-002
2.634328e+003,1.065819e-002
2.636256e+003,1.069793e-002
2.638185e+003,1.083596e-002
2.640113e+003,1.098859e-002
2.642042e+003,1.102750e-002
2.643970e+003,1.110272e-002
2.645899e+003,1.120603e-002
2.647827e+003,1.126622e-002
2.649756e+003,1.134784e-002
2.651684e+003,1.147842e-002
2.653613e+003,1.165085e-002
2.655541e+003,1.171974e-002
2.657470e+003,1.171627e-002
2.659398e+003,1.183311e-002
2.661327e+003,1.199742e-002
2.663255e+003,1.211816e-002
2.665184e+003,1.217867e-002
2.667112e+003,1.226670e-002
2.669041e+003,1.233958e-002
2.670969e+003,1.238223e-002
2.672898e+003,1.250030e-002
2.674826e+003,1.255913e-002
2.676755e+003,1.256162e-002
2.678683e+003,1.262769e-002
2.680612e+003,1.274181e-002
2.682540e+003,1.281886e-002
2.684469e+003,1.287917e-002
2.686397e+003,1.291350e-002
2.688326e+003,1.299130e-002
2.690254e+003,1.313441e-002
2.692183e+003,1.324654e-002
2.694111e+003,1.324787e-002
2.696040e+003,1.325095e-002
2.697968e+003,1.330322e-002
2.699897e+003,1.337005e-002
2.701825e+003,1.342168e-002
2.703754e+003,1.347370e-002
2.705682e+003,1.350736e-002
2.707611e+003,1.351680e-002
2.709539e+003,1.352890e-002
2.711468e+003,1.353731e-002
2.713396e+003,1.353639e-002
2.715325e+003,1.350634e-002
2.717253e+003,1.352688e-002
2.719182e+003,1.354514e-002
2.721110e+003,1.354804e-002
2.723039e+003,1.357611e-002
2.724967e+003,1.360024e-002
2.726896e+003,1.360496e-002
2.728824e+003,1.358380e-002
2.730753e+003,1.356513e-002
2.732681e+003,1.354992e-002
2.734610e+003,1.354507e-002
2.736538e+003,1.353232e-002
2.738467e+003,1.347869e-002
2.740395e+003,1.350702e-002
2.742324e+003,1.355823e-002
2.744252e+003,1.359672e-002
2.746181e+003,1.360636e-002
2.748109e+003,1.360944e-002
2.750038e+003,1.354151e-002
2.751966e+003,1.353953e-002
2.753895e+003,1.359029e-002
2.755823e+003,1.364339e-002
2.757752e+003,1.365676e-002
2.759680e+003,1.364281e-002
2.761609e+003,1.367105e-002
2.763537e+003,1.371667e-002
2.765466e+003,1.377392e-002
2.767394e+003,1.376472e-002
2.769323e+003,1.372642e-002
2.771251e+003,1.373986e-002
2.773180e+003,1.385256e-002
2.775108e+003,1.383662e-002
2.777037e+003,1.383114e-002
2.778965e+003,1.388187e-002
2.780894e+003,1.391492e-002
2.782822e+003,1.391742e-002
2.784750e+003,1.387459e-002
2.786679e+003,1.391184e-002
2.788608e+003,1.402568e-002
2.790536e+003,1.408835e-002
2.792465e+003,1.408763e-002
2.794393e+003,1.409184e-002
2.796322e+003,1.410040e-002
2.798250e+003,1.413925e-002
2.800178e+003,1.414274e-002
2.802107e+003,1.414126e-002
2.804036e+003,1.417170e-002
2.805964e+003,1.421538e-002
2.807893e+003,1.425811e-002
2.809821e+003,1.429006e-002
2.811750e+003,1.433841e-002
2.813678e+003,1.440239e-002
2.815606e+003,1.438684e-002
2.817535e+003,1.437797e-002
2.819464e+003,1.442314e-002
2.821392e+003,1.449573e-002
2.823321e+003,1.455404e-002
2.825249e+003,1.463238e-002
2.827177e+003,1.471514e-002
2.829106e+003,1.478213e-002
2.831034e+003,1.483160e-002
2.832963e+003,1.492346e-002
2.834892e+003,1.500011e-002
2.836820e+003,1.506233e-002
2.838749e+003,1.511138e-002
2.840677e+003,1.516264e-002
2.842605e+003,1.522901e-002
2.844534e+003,1.527369e-002
2.846462e+003,1.526727e-002
2.848391e+003,1.529129e-002
2.850320e+003,1.538078e-002
2.852248e+003,1.542843e-002
2.854177e+003,1.547052e-002
2.856105e+003,1.552553e-002
2.858033e+003,1.559734e-002
2.859962e+003,1.572382e-002
2.861890e+003,1.588745e-002
2.863819e+003,1.595176e-002
2.865748e+003,1.599394e-002
2.867676e+003,1.611050e-002
2.869604e+003,1.618395e-002
2.871533e+003,1.623221e-002
2.873461e+003,1.624751e-002
2.875390e+003,1.624166e-002
2.877319e+003,1.625680e-002
2.879247e+003,1.623355e-002
2.881176e+003,1.626433e-002
2.883104e+003,1.632536e-002
2.885032e+003,1.637845e-002
2.886961e+003,1.638062e-002
2.888889e+003,1.640907e-002
2.890818e+003,1.643756e-002
2.892747e+003,1.636844e-002
2.894675e+003,1.637889e-002
2.896604e+003,1.637865e-002
2.898532e+003,1.631538e-002
2.900460e+003,1.630678e-002
2.902389e+003,1.633310e-002
2.904317e+003,1.624156e-002
2.906246e+003,1.613495e-002
2.908175e+003,1.609344e-002
2.910103e+003,1.603190e-002
2.912031e+003,1.598875e-002
2.913960e+003,1.588581e-002
2.915888e+003,1.571084e-002
2.917817e+003,1.559559e-002
2.919745e+003,1.548464e-002
2.921674e+003,1.547849e-002
2.923603e+003,1.551032e-002
2.925531e+003,1.544093e-002
2.927459e+003,1.541054e-002
2.929388e+003,1.540769e-002
2.931316e+003,1.537693e-002
2.933245e+003,1.533121e-002
2.935173e+003,1.532339e-002
2.937102e+003,1.535569e-002
2.939031e+003,1.534453e-002
2.940959e+003,1.528131e-002
2.942887e+003,1.524822e-002
2.944816e+003,1.518227e-002
2.946744e+003,1.512216e-002
2.948673e+003,1.500721e-002
2.950601e+003,1.495250e-002
2.952530e+003,1.487425e-002
2.954458e+003,1.477551e-002
2.956387e+003,1.464094e-002
2.958315e+003,1.452972e-002
2.960244e+003,1.453982e-002
2.962172e+003,1.452907e-002
2.964101e+003,1.448374e-002
2.966029e+003,1.446103e-002
2.967958e+003,1.446946e-002
2.969886e+003,1.442568e-002
2.971815e+003,1.434848e-002
2.973743e+003,1.434447e-002
2.975672e+003,1.430920e-002
2.977600e+003,1.425318e-002
2.979529e+003,1.418916e-002
2.981457e+003,1.416571e-002
2.983386e+003,1.412285e-002
2.985314e+003,1.404872e-002
2.987243e+003,1.403944e-002
2.989171e+003,1.404741e-002
2.991100e+003,1.404365e-002
2.993028e+003,1.403540e-002
2.994957e+003,1.404348e-002
2.996885e+003,1.407103e-002
2.998814e+003,1.408140e-002
3.000742e+003,1.409006e-002
3.002671e+003,1.405392e-002
3.004599e+003,1.406610e-002
3.006528e+003,1.407733e-002
3.008456e+003,1.410351e-002
3.010385e+003,1.410122e-002
3.012313e+003,1.408133e-002
3.014242e+003,1.405563e-002
3.016170e+003,1.412925e-002
3.018099e+003,1.423674e-002
3.020027e+003,1.427554e-002
3.021956e+003,1.424955e-002
3.023884e+003,1.425938e-002
3.025813e+003,1.425291e-002
3.027741e+003,1.423962e-002
3.029670e+003,1.421596e-002
3.031598e+003,1.424691e-002
3.033527e+003,1.433940e-002
3.035455e+003,1.434848e-002
3.037384e+003,1.431584e-002
3.039312e+003,1.436851e-002
3.041241e+003,1.445791e-002
3.043169e+003,1.447819e-002
3.045098e+003,1.450299e-002
3.047026e+003,1.450851e-002
3.048955e+003,1.446332e-002
3.050883e+003,1.450933e-002
3.052812e+003,1.457351e-002
3.054740e+003,1.462837e-002
3.056669e+003,1.473129e-002
3.058597e+003,1.470366e-002
3.060526e+003,1.469509e-002
3.062454e+003,1.470507e-002
3.064383e+003,1.476509e-002
3.066311e+003,1.484600e-002
3.068240e+003,1.489263e-002
3.070168e+003,1.494269e-002
3.072097e+003,1.494554e-002
3.074025e+003,1.496307e-002
3.075954e+003,1.494760e-002
3.077882e+003,1.496927e-002
3.079811e+003,1.497051e-002
3.081739e+003,1.497486e-002
3.083668e+003,1.505241e-002
3.085596e+003,1.508373e-002
3.087525e+003,1.517993e-002
3.089453e+003,1.518759e-002
3.091382e+003,1.521792e-002
3.093310e+003,1.521315e-002
3.095239e+003,1.522931e-002
3.097167e+003,1.529215e-002
3.099096e+003,1.527551e-002
3.101024e+003,1.538026e-002
3.102953e+003,1.550438e-002
3.104881e+003,1.551331e-002
3.106810e+003,1.545559e-002
3.108738e+003,1.545799e-002
3.110667e+003,1.556794e-002
3.112595e+003,1.558481e-002
3.114524e+003,1.559679e-002
3.116452e+003,1.564151e-002
3.118381e+003,1.567425e-002
3.120309e+003,1.574519e-002
3.122238e+003,1.580171e-002
3.124166e+003,1.583240e-002
3.126095e+003,1.583811e-002
3.128023e+003,1.590784e-002
3.129952e+003,1.597555e-002
3.131880e+003,1.604438e-002
3.133809e+003,1.613013e-002
3.135737e+003,1.610328e-002
3.137666e+003,1.614595e-002
3.139594e+003,1.625642e-002
3.141523e+003,1.631229e-002
3.143451e+003,1.629416e-002
3.145380e+003,1.631648e-002
3.147308e+003,1.642039e-002
3.149237e+003,1.647487e-002
3.151165e+003,1.653420e-002
3.153094e+003,1.652966e-002
3.155022e+003,1.652216e-002
3.156951e+003,1.657761e-002
3.158879e+003,1.671319e-002
3.160808e+003,1.677745e-002
3.162736e+003,1.675472e-002
3.164665e+003,1.676911e-002
3.166593e+003,1.688078e-002
3.168522e+003,1.694158e-002
3.170450e+003,1.703103e-002
3.172379e+003,1.713700e-002
3.174307e+003,1.708299e-002
3.176236e+003,1.706583e-002
3.178164e+003,1.714896e-002
3.180093e+003,1.721894e-002
3.182021e+003,1.732100e-002
3.183950e+003,1.740183e-002
3.185878e+003,1.744280e-002
3.187807e+003,1.752721e-002
3.189735e+003,1.769211e-002
3.191664e+003,1.771769e-002
3.193592e+003,1.777543e-002
3.195521e+003,1.789920e-002
3.197449e+003,1.797900e-002
3.199378e+003,1.797986e-002
3.201306e+003,1.797610e-002
3.203235e+003,1.802791e-002
3.205163e+003,1.809426e-002
3.207092e+003,1.823311e-002
3.209020e+003,1.830482e-002
3.210948e+003,1.837878e-002
3.212877e+003,1.838822e-002
3.214806e+003,1.843160e-002
3.216734e+003,1.856597e-002
3.218663e+003,1.866443e-002
3.220591e+003,1.872400e-002
3.222520e+003,1.884962e-002
3.224448e+003,1.894791e-002
3.226376e+003,1.899156e-002
3.228305e+003,1.908887e-002
3.230234e+003,1.906935e-002
3.232162e+003,1.909296e-002
3.234091e+003,1.923431e-002
3.236019e+003,1.932964e-002
3.237948e+003,1.940430e-002
3.239876e+003,1.953099e-002
3.241804e+003,1.963515e-002
3.243733e+003,1.973947e-002
3.245662e+003,1.981060e-002
3.247590e+003,1.986942e-002
3.249519e+003,1.991750e-002
3.251447e+003,1.993446e-002
3.253375e+003,2.014057e-002
3.255304e+003,2.028907e-002
3.257232e+003,2.031258e-002
3.259161e+003,2.045613e-002
3.261090e+003,2.051338e-002
3.263018e+003,2.051723e-002
3.264947e+003,2.061385e-002
3.266875e+003,2.074464e-002
3.268803e+003,2.073915e-002
3.270732e+003,2.087771e-002
3.272660e+003,2.106510e-002
3.274589e+003,2.103276e-002
3.276518e+003,2.106858e-002
3.278446e+003,2.117057e-002
3.280375e+003,2.119165e-002
3.282303e+003,2.126691e-002
3.284231e+003,2.119802e-002
3.286160e+003,2.122832e-002
3.288088e+003,2.133195e-002
3.290017e+003,2.145569e-002
3.291946e+003,2.150729e-002
3.293874e+003,2.146871e-002
3.295802e+003,2.153385e-002
3.297731e+003,2.154900e-002
3.299659e+003,2.156143e-002
3.301588e+003,2.163522e-002
3.303516e+003,2.162623e-002
3.305445e+003,2.157114e-002
3.307374e+003,2.160092e-002
3.309302e+003,2.166799e-002
3.311230e+003,2.166813e-002
3.313159e+003,2.173571e-002
3.315087e+003,2.180838e-002
3.317016e+003,2.185217e-002
3.318944e+003,2.194860e-002
3.320873e+003,2.202855e-002
3.322802e+003,2.205519e-002
3.324730e+003,2.207990e-002
3.326658e+003,2.206564e-002
3.328587e+003,2.208248e-002
3.330515e+003,2.212714e-002
3.332444e+003,2.210601e-002
3.334372e+003,2.206829e-002
3.336301e+003,2.211438e-002
3.338229e+003,2.216958e-002
3.340158e+003,2.218007e-002
3.342086e+003,2.213893e-002
3.344015e+003,2.209413e-002
3.345943e+003,2.204884e-002
3.347872e+003,2.206753e-002
3.349800e+003,2.197840e-002
3.351729e+003,2.196386e-002
3.353657e+003,2.195225e-002
3.355586e+003,2.186036e-002
3.357514e+003,2.175124e-002
3.359443e+003,2.169565e-002
3.361371e+003,2.172808e-002
3.363300e+003,2.166465e-002
3.365229e+003,2.158894e-002
3.367157e+003,2.158006e-002
3.369085e+003,2.157062e-002
3.371014e+003,2.144250e-002
3.372942e+003,2.135228e-002
3.374871e+003,2.125515e-002
3.376799e+003,2.123379e-002
3.378728e+003,2.121340e-002
3.380656e+003,2.118188e-002
3.382585e+003,2.113599e-002
3.384513e+003,2.109171e-002
3.386442e+003,2.103011e-002
3.388370e+003,2.104263e-002
3.390299e+003,2.108388e-002
3.392227e+003,2.096592e-002
3.394156e+003,2.084969e-002
3.396084e+003,2.084593e-002
3.398013e+003,2.081555e-002
3.399941e+003,2.076223e-002
3.401870e+003,2.064647e-002
3.403798e+003,2.055155e-002
3.405727e+003,2.054200e-002
3.407655e+003,2.044516e-002
3.409584e+003,2.031393e-002
3.411512e+003,2.028551e-002
3.413441e+003,2.024419e-002
3.415369e+003,2.015737e-002
3.417298e+003,2.006600e-002
3.419226e+003,1.995269e-002
3.421155e+003,1.986467e-002
3.423083e+003,1.970998e-002
3.425012e+003,1.964470e-002
3.426940e+003,1.966308e-002
3.428869e+003,1.955075e-002
3.430797e+003,1.934148e-002
3.432726e+003,1.924909e-002
3.434654e+003,1.921376e-002
3.436583e+003,1.912242e-002
3.438511e+003,1.895001e-002
3.440440e+003,1.880439e-002
3.442368e+003,1.865896e-002
3.444297e+003,1.851893e-002
3.446225e+003,1.833880e-002
3.448154e+003,1.828793e-002
3.450082e+003,1.825379e-002
3.452011e+003,1.806449e-002
3.453939e+003,1.795047e-002
3.455868e+003,1.784313e-002
3.457796e+003,1.766346e-002
3.459725e+003,1.759451e-002
3.461653e+003,1.751252e-002
3.463582e+003,1.747495e-002
3.465510e+003,1.733750e-002
3.467439e+003,1.721990e-002
3.469367e+003,1.714132e-002
3.471296e+003,1.699467e-002
3.473224e+003,1.682523e-002
3.475153e+003,1.673841e-002
3.477081e+003,1.668023e-002
3.479010e+003,1.658075e-002
3.480938e+003,1.642045e-002
3.482867e+003,1.628411e-002
3.484795e+003,1.618420e-002
3.486724e+003,1.611646e-002
3.488652e+003,1.602758e-002
3.490581e+003,1.593830e-002
3.492509e+003,1.588984e-002
3.494438e+003,1.582235e-002
3.496366e+003,1.573545e-002
3.498295e+003,1.574019e-002
3.500223e+003,1.566603e-002
3.502152e+003,1.545875e-002
3.504080e+003,1.533490e-002
3.506009e+003,1.521092e-002
3.507937e+003,1.511937e-002
3.509866e+003,1.510976e-002
3.511794e+003,1.504051e-002
3.513723e+003,1.494798e-002
3.515651e+003,1.482907e-002
3.517580e+003,1.476081e-002
3.519508e+003,1.473401e-002
3.521437e+003,1.473276e-002
3.523365e+003,1.465389e-002
3.525294e+003,1.448450e-002
3.527222e+003,1.438550e-002
3.529151e+003,1.434426e-002
3.531079e+003,1.423891e-002
3.533008e+003,1.415829e-002
3.534936e+003,1.419491e-002
3.536865e+003,1.408881e-002
3.538793e+003,1.393458e-002
3.540722e+003,1.388001e-002
3.542650e+003,1.384865e-002
3.544579e+003,1.368828e-002
3.546507e+003,1.365647e-002
3.548436e+003,1.365857e-002
3.550364e+003,1.359785e-002
3.552293e+003,1.360168e-002
3.554221e+003,1.355458e-002
3.556150e+003,1.348323e-002
3.558078e+003,1.335511e-002
3.560007e+003,1.333007e-002
3.561935e+003,1.321155e-002
3.563864e+003,1.322144e-002
3.565792e+003,1.321569e-002
3.567721e+003,1.308359e-002
3.569649e+003,1.303368e-002
3.571578e+003,1.293539e-002
3.573506e+003,1.284273e-002
3.575435e+003,1.276240e-002
3.577363e+003,1.257618e-002
3.579292e+003,1.262534e-002
3.581220e+003,1.264830e-002
3.583149e+003,1.252652e-002
3.585077e+003,1.237946e-002
3.587006e+003,1.225397e-002
3.588934e+003,1.215979e-002
3.590863e+003,1.201146e-002
3.592791e+003,1.183678e-002
3.594720e+003,1.172474e-002
3.596648e+003,1.150121e-002
3.598577e+003,1.131249e-002
3.600505e+003,1.131126e-002
3.602434e+003,1.125916e-002
3.604362e+003,1.131805e-002
3.606291e+003,1.136950e-002
3.608219e+003,1.147926e-002
3.610148e+003,1.162012e-002
3.612076e+003,1.162479e-002
3.614005e+003,1.146477e-002
3.615933e+003,1.124072e-002
3.617862e+003,1.097908e-002
3.619790e+003,1.083967e-002
3.621719e+003,1.076007e-002
3.623647e+003,1.064508e-002
3.625576e+003,1.054657e-002
3.627504e+003,1.053701e-002
3.629433e+003,1.060330e-002
3.631361e+003,1.063077e-002
3.633290e+003,1.068150e-002
3.635218e+003,1.065277e-002
3.637146e+003,1.065531e-002
3.639075e+003,1.064181e-002
3.641004e+003,1.075713e-002
3.642932e+003,1.085312e-002
3.644861e+003,1.096802e-002
3.646789e+003,1.087867e-002
3.648718e+003,1.079566e-002
3.650646e+003,1.072818e-002
3.652574e+003,1.076844e-002
3.654503e+003,1.077157e-002
3.656432e+003,1.075100e-002
3.658360e+003,1.068835e-002
3.660289e+003,1.071389e-002
3.662217e+003,1.068618e-002
3.664146e+003,1.062010e-002
3.666074e+003,1.069199e-002
3.668002e+003,1.068800e-002
3.669931e+003,1.064981e-002
3.671860e+003,1.063090e-002
3.673788e+003,1.053927e-002
3.675717e+003,1.050450e-002
3.677645e+003,1.047732e-002
3.679573e+003,1.040394e-002
3.681502e+003,1.022974e-002
3.683430e+003,1.008765e-002
3.685359e+003,1.018357e-002
3.687288e+003,1.015488e-002
3.689216e+003,1.004966e-002
3.691145e+003,9.976950e-003
3.693073e+003,1.000925e-002
3.695001e+003,9.950683e-003
3.696930e+003,9.824107e-003
3.698858e+003,9.753396e-003
3.700787e+003,9.557773e-003
3.702716e+003,9.459582e-003
3.704644e+003,9.458460e-003
3.706573e+003,9.396373e-003
3.708501e+003,9.489965e-003
3.710429e+003,9.658686e-003
3.712358e+003,9.885456e-003
3.714286e+003,9.941805e-003
3.716215e+003,9.841273e-003
3.718144e+003,9.631376e-003
3.720072e+003,9.351873e-003
3.722000e+003,9.192750e-003
3.723929e+003,9.149826e-003
3.725857e+003,8.975463e-003
3.727786e+003,8.896207e-003
3.729714e+003,9.007056e-003
3.731643e+003,9.017019e-003
3.733572e+003,9.061265e-003
3.735500e+003,9.149664e-003
3.737428e+003,9.331402e-003
3.739357e+003,9.427574e-003
3.741285e+003,9.598162e-003
3.743214e+003,9.789793e-003
3.745142e+003,9.846585e-003
3.747071e+003,9.941707e-003
3.749000e+003,1.009107e-002
3.750928e+003,1.005865e-002
3.752856e+003,9.948938e-003
3.754785e+003,9.870835e-003
3.756713e+003,9.935984e-003
3.758642e+003,1.005208e-002
3.760570e+003,1.006438e-002
3.762499e+003,1.007908e-002
3.764427e+003,1.018379e-002
3.766356e+003,1.016489e-002
3.768284e+003,1.022210e-002
3.770213e+003,1.021731e-002
3.772141e+003,1.015230e-002
3.774070e+003,1.021730e-002
3.775998e+003,1.035808e-002
3.777927e+003,1.033139e-002
3.779855e+003,1.018524e-002
3.781784e+003,1.025536e-002
3.783712e+003,1.039578e-002
3.785641e+003,1.043819e-002
3.787569e+003,1.044036e-002
3.789498e+003,1.045776e-002
3.791426e+003,1.047038e-002
3.793355e+003,1.052285e-002
3.795283e+003,1.055511e-002
3.797212e+003,1.050369e-002
3.799140e+003,1.059178e-002
3.801069e+003,1.069653e-002
3.802997e+003,1.075373e-002
3.804926e+003,1.083296e-002
3.806854e+003,1.080358e-002
3.808783e+003,1.077286e-002
3.810711e+003,1.084930e-002
3.812640e+003,1.087731e-002
3.814568e+003,1.084505e-002
3.816497e+003,1.086152e-002
3.818425e+003,1.093382e-002
3.820354e+003,1.094058e-002
3.822282e+003,1.086668e-002
3.824211e+003,1.078082e-002
3.826139e+003,1.080626e-002
3.828068e+003,1.088146e-002
3.829996e+003,1.093373e-002
3.831925e+003,1.096258e-002
3.833853e+003,1.094157e-002
3.835782e+003,1.089296e-002
3.837710e+003,1.092598e-002
3.839639e+003,1.093268e-002
3.841567e+003,1.095492e-002
3.843496e+003,1.102538e-002
3.845424e+003,1.102445e-002
3.847353e+003,1.108047e-002
3.849281e+003,1.110508e-002
3.851210e+003,1.101827e-002
3.853138e+003,1.104473e-002
3.855067e+003,1.115714e-002
3.856995e+003,1.112647e-002
3.858924e+003,1.111970e-002
3.860852e+003,1.119780e-002
3.862781e+003,1.118332e-002
3.864709e+003,1.118754e-002
3.866638e+003,1.119868e-002
3.868566e+003,1.111538e-002
3.870495e+003,1.109477e-002
3.872423e+003,1.112409e-002
3.874352e+003,1.113850e-002
3.876280e+003,1.118064e-002
3.878209e+003,1.120965e-002
3.880137e+003,1.125803e-002
3.882066e+003,1.129276e-002
3.883994e+003,1.132110e-002
3.885923e+003,1.129895e-002
3.887851e+003,1.120100e-002
3.889780e+003,1.121225e-002
3.891708e+003,1.124188e-002
3.893637e+003,1.128938e-002
3.895565e+003,1.134903e-002
3.897494e+003,1.139939e-002
3.899422e+003,1.140349e-002
3.901351e+003,1.141517e-002
3.903279e+003,1.144413e-002
3.905208e+003,1.144720e-002
3.907136e+003,1.143077e-002
3.909065e+003,1.134274e-002
3.910993e+003,1.134848e-002
3.912922e+003,1.144878e-002
3.914850e+003,1.143455e-002
3.916779e+003,1.148581e-002
3.918707e+003,1.153917e-002
3.920636e+003,1.153793e-002
3.922564e+003,1.147368e-002
3.924493e+003,1.152308e-002
3.926421e+003,1.155375e-002
3.928350e+003,1.158831e-002
3.930278e+003,1.160658e-002
3.932207e+003,1.158138e-002
3.934135e+003,1.145798e-002
3.936064e+003,1.146225e-002
3.937992e+003,1.159033e-002
3.939921e+003,1.161997e-002
3.941849e+003,1.154912e-002
3.943778e+003,1.151855e-002
3.945706e+003,1.159245e-002
3.947635e+003,1.163093e-002
3.949563e+003,1.161420e-002
3.951492e+003,1.159773e-002
3.953420e+003,1.167790e-002
3.955349e+003,1.167396e-002
3.957277e+003,1.172563e-002
3.959206e+003,1.178247e-002
3.961134e+003,1.170592e-002
3.963063e+003,1.164899e-002
3.964991e+003,1.168161e-002
3.966920e+003,1.184777e-002
3.968848e+003,1.177587e-002
3.970777e+003,1.167835e-002
3.972705e+003,1.168506e-002
3.974634e+003,1.174270e-002
3.976562e+003,1.174159e-002
3.978491e+003,1.163420e-002
3.980419e+003,1.167473e-002
3.982348e+003,1.175307e-002
3.984276e+003,1.180724e-002
3.986205e+003,1.184574e-002
3.988133e+003,1.182143e-002
3.990062e+003,1.185694e-002
3.991990e+003,1.196848e-002
3.993919e+003,1.198254e-002
3.995847e+003,1.190532e-002
3.997776e+003,1.178356e-002
3.999704e+003,1.178384e-002
4.001633e+003,0.000000e+000
