3.991989e+002,3.378685e-002
4.011274e+002,3.547323e-002
4.030559e+002,3.547323e-002
4.049844e+002,3.520394e-002
4.069129e+002,3.539180e-002
4.088414e+002,3.676680e-002
4.107699e+002,3.646478e-002
4.126984e+002,3.634882e-002
4.146269e+002,3.685760e-002
4.165554e+002,3.793475e-002
4.184839e+002,4.034031e-002
4.204124e+002,4.204303e-002
4.223409e+002,4.228735e-002
4.242694e+002,4.253067e-002
4.261979e+002,4.285904e-002
4.281264e+002,4.286258e-002
4.300549e+002,4.388857e-002
4.319834e+002,4.436753e-002
4.339119e+002,4.465979e-002
4.358404e+002,4.447134e-002
4.377689e+002,4.402418e-002
4.396974e+002,4.512909e-002
4.416259e+002,4.548508e-002
4.435544e+002,4.563173e-002
4.454829e+002,4.530912e-002
4.474114e+002,4.565068e-002
4.493399e+002,4.594255e-002
4.512684e+002,4.555293e-002
4.531969e+002,4.510225e-002
4.551254e+002,4.508645e-002
4.570539e+002,4.503783e-002
4.589824e+002,4.468067e-002
4.609109e+002,4.453948e-002
4.628394e+002,4.439085e-002
4.647679e+002,4.392247e-002
4.666964e+002,4.376983e-002
4.686249e+002,4.379474e-002
4.705533e+002,4.326780e-002
4.724819e+002,4.284729e-002
4.744103e+002,4.243142e-002
4.763389e+002,4.241495e-002
4.782673e+002,4.187423e-002
4.801959e+002,4.102802e-002
4.821243e+002,4.026182e-002
4.840529e+002,4.000305e-002
4.859813e+002,4.018347e-002
4.879099e+002,3.959389e-002
4.898383e+002,3.891398e-002
4.917668e+002,3.861678e-002
4.936953e+002,3.847615e-002
4.956238e+002,3.812977e-002
4.975523e+002,3.808189e-002
4.994808e+002,3.836573e-002
5.014093e+002,3.846633e-002
5.033378e+002,3.819928e-002
5.052663e+002,3.796966e-002
5.071948e+002,3.829533e-002
5.091233e+002,3.800961e-002
5.110518e+002,3.779793e-002
5.129803e+002,3.824423e-002
5.149088e+002,3.870115e-002
5.168373e+002,3.897560e-002
5.187658e+002,3.894718e-002
5.206943e+002,3.917472e-002
5.226228e+002,3.923417e-002
5.245513e+002,3.862445e-002
5.264798e+002,3.865990e-002
5.284083e+002,3.887101e-002
5.303368e+002,3.881358e-002
5.322653e+002,3.874638e-002
5.341938e+002,3.814464e-002
5.361223e+002,3.785489e-002
5.380508e+002,3.801276e-002
5.399792e+002,3.846511e-002
5.419078e+002,3.831054e-002
5.438363e+002,3.806104e-002
5.457648e+002,3.812775e-002
5.476932e+002,3.804956e-002
5.496218e+002,3.806300e-002
5.515503e+002,3.846710e-002
5.534788e+002,3.883249e-002
5.554072e+002,3.911532e-002
5.573358e+002,3.933485e-002
5.592643e+002,3.908206e-002
5.611927e+002,3.886219e-002
5.631212e+002,3.889886e-002
5.650497e+002,3.867076e-002
5.669783e+002,3.829415e-002
5.689067e+002,3.756762e-002
5.708352e+002,3.744109e-002
5.727637e+002,3.760452e-002
5.746923e+002,3.747276e-002
5.766207e+002,3.712666e-002
5.785492e+002,3.727156e-002
5.804777e+002,3.736366e-002
5.824063e+002,3.715469e-002
5.843347e+002,3.683650e-002
5.862632e+002,3.685152e-002
5.881917e+002,3.697176e-002
5.901202e+002,3.727471e-002
5.920487e+002,3.715628e-002
5.939772e+002,3.713179e-002
5.959057e+002,3.691201e-002
5.978342e+002,3.682635e-002
5.997627e+002,3.652903e-002
6.016912e+002,3.644332e-002
6.036197e+002,3.639541e-002
6.055482e+002,3.631623e-002
6.074767e+002,3.616793e-002
6.094052e+002,3.600709e-002
6.113337e+002,3.557678e-002
6.132622e+002,3.529197e-002
6.151907e+002,3.498616e-002
6.171192e+002,3.488064e-002
6.190477e+002,3.450184e-002
6.209762e+002,3.437910e-002
6.229047e+002,3.397235e-002
6.248332e+002,3.319240e-002
6.267617e+002,3.246183e-002
6.286902e+002,3.228090e-002
6.306187e+002,3.214668e-002
6.325472e+002,3.205305e-002
6.344756e+002,3.177762e-002
6.364042e+002,3.156173e-002
6.383326e+002,3.137713e-002
6.402612e+002,3.131591e-002
6.421896e+002,3.093751e-002
6.441182e+002,3.056641e-002
6.460466e+002,3.049969e-002
6.479752e+002,3.041531e-002
6.499036e+002,3.017734e-002
6.518322e+002,3.021807e-002
6.537606e+002,3.025112e-002
6.556891e+002,3.020791e-002
6.576177e+002,3.012311e-002
6.595461e+002,3.015099e-002
6.614746e+002,3.051926e-002
6.634031e+002,3.070074e-002
6.653317e+002,3.053948e-002
6.672601e+002,3.031880e-002
6.691886e+002,3.011508e-002
6.711171e+002,2.985835e-002
6.730457e+002,2.926032e-002
6.749741e+002,2.855650e-002
6.769026e+002,2.785209e-002
6.788311e+002,2.711231e-002
6.807596e+002,2.646024e-002
6.826881e+002,2.617481e-002
6.846166e+002,2.587418e-002
6.865451e+002,2.560769e-002
6.884736e+002,2.536314e-002
6.904021e+002,2.533950e-002
6.923306e+002,2.525900e-002
6.942591e+002,2.511546e-002
6.961876e+002,2.489961e-002
6.981161e+002,2.484710e-002
7.000446e+002,2.479766e-002
7.019731e+002,2.465224e-002
7.039016e+002,2.441490e-002
7.058301e+002,2.444954e-002
7.077585e+002,2.438686e-002
7.096871e+002,2.423902e-002
7.116156e+002,2.401927e-002
7.135441e+002,2.386024e-002
7.154725e+002,2.364834e-002
7.174011e+002,2.346738e-002
7.193296e+002,2.338397e-002
7.212581e+002,2.336121e-002
7.231865e+002,2.314466e-002
7.251151e+002,2.296542e-002
7.270436e+002,2.272284e-002
7.289720e+002,2.256143e-002
7.309005e+002,2.249568e-002
7.328290e+002,2.233069e-002
7.347576e+002,2.214293e-002
7.366860e+002,2.207651e-002
7.386145e+002,2.198378e-002
7.405430e+002,2.176410e-002
7.424716e+002,2.147683e-002
7.444000e+002,2.145286e-002
7.463285e+002,2.135239e-002
7.482570e+002,2.119032e-002
7.501855e+002,2.093290e-002
7.521140e+002,2.082722e-002
7.540425e+002,2.077797e-002
7.559710e+002,2.082551e-002
7.578995e+002,2.065578e-002
7.598280e+002,2.062079e-002
7.617565e+002,2.054391e-002
7.636850e+002,2.045269e-002
7.656135e+002,2.035042e-002
7.675420e+002,2.030028e-002
7.694705e+002,2.022880e-002
7.713990e+002,2.030369e-002
7.733275e+002,2.030022e-002
7.752560e+002,2.026727e-002
7.771844e+002,2.030664e-002
7.791130e+002,2.023397e-002
7.810415e+002,2.009493e-002
7.829700e+002,2.016952e-002
7.848984e+002,2.025696e-002
7.868270e+002,2.022544e-002
7.887555e+002,2.011332e-002
7.906840e+002,1.999292e-002
7.926124e+002,1.995028e-002
7.945410e+002,1.988780e-002
7.964695e+002,1.987379e-002
7.983979e+002,1.994719e-002
8.003264e+002,1.986383e-002
8.022549e+002,1.989984e-002
8.041835e+002,1.985829e-002
8.061119e+002,1.973458e-002
8.080404e+002,1.963598e-002
8.099689e+002,1.962600e-002
8.118975e+002,1.963699e-002
8.138259e+002,1.948944e-002
8.157545e+002,1.948174e-002
8.176830e+002,1.951758e-002
8.196115e+002,1.940291e-002
8.215399e+002,1.928478e-002
8.234684e+002,1.919771e-002
8.253970e+002,1.912616e-002
8.273254e+002,1.913773e-002
8.292539e+002,1.921821e-002
8.311824e+002,1.924709e-002
8.331110e+002,1.922146e-002
8.350394e+002,1.910366e-002
8.369679e+002,1.910165e-002
8.388964e+002,1.913572e-002
8.408250e+002,1.906443e-002
8.427534e+002,1.898491e-002
8.446819e+002,1.897525e-002
8.466104e+002,1.887541e-002
8.485389e+002,1.890870e-002
8.504674e+002,1.897567e-002
8.523959e+002,1.898339e-002
8.543244e+002,1.898993e-002
8.562529e+002,1.891597e-002
8.581814e+002,1.896591e-002
8.601099e+002,1.899914e-002
8.620384e+002,1.900599e-002
8.639669e+002,1.913073e-002
8.658954e+002,1.919875e-002
8.678239e+002,1.930137e-002
8.697524e+002,1.941927e-002
8.716809e+002,1.952693e-002
8.736094e+002,1.957650e-002
8.755378e+002,1.964284e-002
8.774664e+002,1.978213e-002
8.793949e+002,2.004635e-002
8.813234e+002,2.028831e-002
8.832518e+002,2.058435e-002
8.851804e+002,2.090340e-002
8.871089e+002,2.131695e-002
8.890374e+002,2.177420e-002
8.909658e+002,2.220459e-002
8.928943e+002,2.249821e-002
8.948229e+002,2.284950e-002
8.967513e+002,2.299174e-002
8.986798e+002,2.290339e-002
9.006083e+002,2.274059e-002
9.025369e+002,2.244101e-002
9.044653e+002,2.208429e-002
9.063938e+002,2.183904e-002
9.083223e+002,2.169749e-002
9.102509e+002,2.171432e-002
9.121793e+002,2.165528e-002
9.141078e+002,2.162881e-002
9.160364e+002,2.161882e-002
9.179648e+002,2.171167e-002
9.198933e+002,2.181907e-002
9.218218e+002,2.199025e-002
9.237504e+002,2.215932e-002
9.256788e+002,2.230507e-002
9.276073e+002,2.254856e-002
9.295358e+002,2.273884e-002
9.314644e+002,2.294206e-002
9.333928e+002,2.314716e-002
9.353213e+002,2.334518e-002
9.372498e+002,2.363933e-002
9.391783e+002,2.389212e-002
9.411068e+002,2.419546e-002
9.430353e+002,2.473645e-002
9.449637e+002,2.533597e-002
9.468923e+002,2.577314e-002
9.488208e+002,2.625970e-002
9.507493e+002,2.681935e-002
9.526777e+002,2.741793e-002
9.546063e+002,2.805855e-002
9.565348e+002,2.863110e-002
9.584633e+002,2.921433e-002
9.603917e+002,2.983355e-002
9.623203e+002,3.040531e-002
9.642488e+002,3.103221e-002
9.661772e+002,3.161002e-002
9.681057e+002,3.206828e-002
9.700343e+002,3.256260e-002
9.719628e+002,3.320210e-002
9.738912e+002,3.379050e-002
9.758197e+002,3.442234e-002
9.777483e+002,3.512206e-002
9.796768e+002,3.603836e-002
9.816052e+002,3.718907e-002
9.835337e+002,3.827849e-002
9.854623e+002,3.940184e-002
9.873907e+002,4.033275e-002
9.893192e+002,4.094124e-002
9.912477e+002,4.140731e-002
9.931763e+002,4.175182e-002
9.951047e+002,4.196132e-002
9.970332e+002,4.221445e-002
9.989617e+002,4.267459e-002
1.000890e+003,4.327568e-002
1.002819e+003,4.386308e-002
1.004747e+003,4.444230e-002
1.006676e+003,4.514233e-002
1.008604e+003,4.583963e-002
1.010533e+003,4.652098e-002
1.012461e+003,4.727278e-002
1.014390e+003,4.821717e-002
1.016318e+003,4.917572e-002
1.018247e+003,5.015603e-002
1.020175e+003,5.110654e-002
1.022104e+003,5.205167e-002
1.024032e+003,5.295270e-002
1.025961e+003,5.398769e-002
1.027889e+003,5.505377e-002
1.029818e+003,5.594301e-002
1.031746e+003,5.680166e-002
1.033675e+003,5.738573e-002
1.035603e+003,5.750388e-002
1.037532e+003,5.713370e-002
1.039460e+003,5.656555e-002
1.041389e+003,5.592665e-002
1.043317e+003,5.537348e-002
1.045246e+003,5.502797e-002
1.047174e+003,5.491061e-002
1.049103e+003,5.483113e-002
1.051031e+003,5.466553e-002
1.052960e+003,5.447644e-002
1.054888e+003,5.408675e-002
1.056817e+003,5.355245e-002
1.058745e+003,5.285034e-002
1.060674e+003,5.192835e-002
1.062602e+003,5.082255e-002
1.064531e+003,4.954171e-002
1.066459e+003,4.830519e-002
1.068388e+003,4.722361e-002
1.070316e+003,4.616796e-002
1.072245e+003,4.520954e-002
1.074173e+003,4.428226e-002
1.076102e+003,4.336328e-002
1.078030e+003,4.251410e-002
1.079959e+003,4.162515e-002
1.081887e+003,4.070828e-002
1.083816e+003,4.002487e-002
1.085744e+003,3.955850e-002
1.087673e+003,3.910314e-002
1.089601e+003,3.874457e-002
1.091530e+003,3.846011e-002
1.093458e+003,3.816658e-002
1.095387e+003,3.796283e-002
1.097315e+003,3.787186e-002
1.099244e+003,3.779580e-002
1.101172e+003,3.779016e-002
1.103101e+003,3.772402e-002
1.105029e+003,3.758071e-002
1.106958e+003,3.720989e-002
1.108886e+003,3.667121e-002
1.110815e+003,3.595744e-002
1.112743e+003,3.501445e-002
1.114672e+003,3.393085e-002
1.116600e+003,3.288722e-002
1.118529e+003,3.195503e-002
1.120457e+003,3.115768e-002
1.122386e+003,3.042642e-002
1.124314e+003,2.962101e-002
1.126243e+003,2.875860e-002
1.128171e+003,2.782640e-002
1.130100e+003,2.694085e-002
1.132028e+003,2.610626e-002
1.133957e+003,2.529248e-002
1.135885e+003,2.457874e-002
1.137814e+003,2.407080e-002
1.139742e+003,2.380804e-002
1.141671e+003,2.372898e-002
1.143599e+003,2.376586e-002
1.145528e+003,2.394554e-002
1.147456e+003,2.421350e-002
1.149385e+003,2.464106e-002
1.151313e+003,2.507714e-002
1.153242e+003,2.543246e-002
1.155170e+003,2.581860e-002
1.157099e+003,2.615507e-002
1.159027e+003,2.640246e-002
1.160956e+003,2.645433e-002
1.162884e+003,2.622419e-002
1.164813e+003,2.573137e-002
1.166741e+003,2.489355e-002
1.168670e+003,2.386929e-002
1.170598e+003,2.280218e-002
1.172526e+003,2.171484e-002
1.174455e+003,2.073446e-002
1.176384e+003,1.988354e-002
1.178312e+003,1.914060e-002
1.180240e+003,1.854940e-002
1.182169e+003,1.804372e-002
1.184098e+003,1.765477e-002
1.186026e+003,1.736061e-002
1.187954e+003,1.715257e-002
1.189883e+003,1.712301e-002
1.191812e+003,1.714878e-002
1.193740e+003,1.720600e-002
1.195668e+003,1.735183e-002
1.197597e+003,1.750675e-002
1.199526e+003,1.762579e-002
1.201454e+003,1.775972e-002
1.203382e+003,1.782467e-002
1.205311e+003,1.777599e-002
1.207240e+003,1.773452e-002
1.209168e+003,1.771470e-002
1.211096e+003,1.771942e-002
1.213025e+003,1.774604e-002
1.214953e+003,1.787390e-002
1.216882e+003,1.804768e-002
1.218810e+003,1.819740e-002
1.220739e+003,1.840124e-002
1.222667e+003,1.867787e-002
1.224596e+003,1.894156e-002
1.226524e+003,1.916814e-002
1.228453e+003,1.943023e-002
1.230381e+003,1.968559e-002
1.232310e+003,1.983270e-002
1.234238e+003,1.985430e-002
1.236167e+003,1.990690e-002
1.238095e+003,1.989373e-002
1.240024e+003,1.987986e-002
1.241952e+003,1.987500e-002
1.243881e+003,1.979103e-002
1.245809e+003,1.962884e-002
1.247738e+003,1.944124e-002
1.249666e+003,1.925679e-002
1.251595e+003,1.907140e-002
1.253523e+003,1.887157e-002
1.255452e+003,1.866210e-002
1.257380e+003,1.849424e-002
1.259309e+003,1.828522e-002
1.261237e+003,1.801902e-002
1.263166e+003,1.774013e-002
1.265094e+003,1.745009e-002
1.267023e+003,1.715379e-002
1.268951e+003,1.686220e-002
1.270880e+003,1.658209e-002
1.272808e+003,1.629343e-002
1.274737e+003,1.603544e-002
1.276665e+003,1.580579e-002
1.278594e+003,1.562275e-002
1.280522e+003,1.553138e-002
1.282451e+003,1.540690e-002
1.284379e+003,1.526376e-002
1.286308e+003,1.513606e-002
1.288236e+003,1.501979e-002
1.290165e+003,1.498656e-002
1.292093e+003,1.504164e-002
1.294022e+003,1.507747e-002
1.295950e+003,1.518341e-002
1.297879e+003,1.531587e-002
1.299807e+003,1.548750e-002
1.301736e+003,1.569504e-002
1.303664e+003,1.584142e-002
1.305593e+003,1.603417e-002
1.307521e+003,1.627376e-002
1.309450e+003,1.649982e-002
1.311378e+003,1.670121e-002
1.313307e+003,1.685823e-002
1.315235e+003,1.695703e-002
1.317164e+003,1.698262e-002
1.319092e+003,1.696650e-002
1.321021e+003,1.688396e-002
1.322949e+003,1.672295e-002
1.324878e+003,1.658835e-002
1.326806e+003,1.652843e-002
1.328735e+003,1.644226e-002
1.330663e+003,1.641492e-002
1.332592e+003,1.640740e-002
1.334520e+003,1.637197e-002
1.336449e+003,1.628361e-002
1.338377e+003,1.618287e-002
1.340306e+003,1.605475e-002
1.342234e+003,1.596851e-002
1.344163e+003,1.586384e-002
1.346091e+003,1.584932e-002
1.348020e+003,1.589365e-002
1.349948e+003,1.596502e-002
1.351877e+003,1.605259e-002
1.353805e+003,1.616170e-002
1.355734e+003,1.633321e-002
1.357662e+003,1.648432e-002
1.359591e+003,1.663458e-002
1.361519e+003,1.681171e-002
1.363448e+003,1.698639e-002
1.365376e+003,1.707299e-002
1.367305e+003,1.715009e-002
1.369233e+003,1.714808e-002
1.371162e+003,1.709381e-002
1.373090e+003,1.697849e-002
1.375019e+003,1.681558e-002
1.376947e+003,1.658145e-002
1.378876e+003,1.626638e-002
1.380804e+003,1.593345e-002
1.382733e+003,1.562227e-002
1.384661e+003,1.535499e-002
1.386590e+003,1.510375e-002
1.388518e+003,1.486774e-002
1.390447e+003,1.465969e-002
1.392375e+003,1.453621e-002
1.394304e+003,1.450398e-002
1.396232e+003,1.446756e-002
1.398161e+003,1.447734e-002
1.400089e+003,1.451536e-002
1.402018e+003,1.449139e-002
1.403946e+003,1.454304e-002
1.405875e+003,1.458781e-002
1.407803e+003,1.462174e-002
1.409732e+003,1.472245e-002
1.411660e+003,1.486241e-002
1.413589e+003,1.496250e-002
1.415517e+003,1.507878e-002
1.417446e+003,1.525770e-002
1.419374e+003,1.544939e-002
1.421303e+003,1.555020e-002
1.423231e+003,1.556149e-002
1.425160e+003,1.559724e-002
1.427088e+003,1.557861e-002
1.429017e+003,1.546563e-002
1.430945e+003,1.531381e-002
1.432874e+003,1.515434e-002
1.434802e+003,1.499830e-002
1.436731e+003,1.484395e-002
1.438659e+003,1.470002e-002
1.440588e+003,1.460938e-002
1.442516e+003,1.452140e-002
1.444445e+003,1.445449e-002
1.446373e+003,1.447570e-002
1.448302e+003,1.448759e-002
1.450230e+003,1.450807e-002
1.452159e+003,1.444313e-002
1.454087e+003,1.435439e-002
1.456016e+003,1.429281e-002
1.457944e+003,1.417802e-002
1.459873e+003,1.408793e-002
1.461801e+003,1.399550e-002
1.463730e+003,1.384441e-002
1.465658e+003,1.367969e-002
1.467587e+003,1.342018e-002
1.469515e+003,1.311521e-002
1.471444e+003,1.280405e-002
1.473372e+003,1.250281e-002
1.475301e+003,1.224711e-002
1.477229e+003,1.203357e-002
1.479158e+003,1.189441e-002
1.481086e+003,1.185066e-002
1.483015e+003,1.185421e-002
1.484943e+003,1.186657e-002
1.486872e+003,1.188280e-002
1.488800e+003,1.195528e-002
1.490729e+003,1.206172e-002
1.492657e+003,1.218770e-002
1.494586e+003,1.237866e-002
1.496514e+003,1.253049e-002
1.498443e+003,1.264235e-002
1.500371e+003,1.281426e-002
1.502300e+003,1.293556e-002
1.504228e+003,1.301737e-002
1.506157e+003,1.306923e-002
1.508085e+003,1.313822e-002
1.510014e+003,1.316802e-002
1.511942e+003,1.321561e-002
1.513871e+003,1.320383e-002
1.515799e+003,1.309657e-002
1.517728e+003,1.288385e-002
1.519656e+003,1.269047e-002
1.521585e+003,1.253832e-002
1.523513e+003,1.243888e-002
1.525442e+003,1.233541e-002
1.527370e+003,1.224610e-002
1.529299e+003,1.219271e-002
1.531227e+003,1.216837e-002
1.533156e+003,1.219060e-002
1.535084e+003,1.220675e-002
1.537013e+003,1.216102e-002
1.538941e+003,1.218044e-002
1.540870e+003,1.219092e-002
1.542798e+003,1.219961e-002
1.544727e+003,1.219849e-002
1.546655e+003,1.217686e-002
1.548584e+003,1.216848e-002
1.550512e+003,1.217184e-002
1.552441e+003,1.213391e-002
1.554369e+003,1.213204e-002
1.556298e+003,1.214739e-002
1.558226e+003,1.213673e-002
1.560155e+003,1.213462e-002
1.562083e+003,1.217375e-002
1.564012e+003,1.222235e-002
1.565940e+003,1.228732e-002
1.567869e+003,1.234099e-002
1.569797e+003,1.238196e-002
1.571726e+003,1.241582e-002
1.573654e+003,1.250642e-002
1.575583e+003,1.267792e-002
1.577511e+003,1.286473e-002
1.579440e+003,1.303156e-002
1.581368e+003,1.320529e-002
1.583297e+003,1.334464e-002
1.585225e+003,1.355643e-002
1.587154e+003,1.375115e-002
1.589082e+003,1.386464e-002
1.591010e+003,1.401209e-002
1.592939e+003,1.413633e-002
1.594868e+003,1.419114e-002
1.596796e+003,1.421804e-002
1.598724e+003,1.425803e-002
1.600653e+003,1.435443e-002
1.602582e+003,1.441508e-002
1.604510e+003,1.440714e-002
1.606438e+003,1.439471e-002
1.608367e+003,1.438332e-002
1.610296e+003,1.442230e-002
1.612224e+003,1.450561e-002
1.614152e+003,1.459709e-002
1.616081e+003,1.470850e-002
1.618010e+003,1.481598e-002
1.619938e+003,1.493597e-002
1.621866e+003,1.504314e-002
1.623795e+003,1.512221e-002
1.625724e+003,1.518119e-002
1.627652e+003,1.518366e-002
1.629580e+003,1.513471e-002
1.631509e+003,1.507222e-002
1.633438e+003,1.502212e-002
1.635366e+003,1.496614e-002
1.637294e+003,1.495477e-002
1.639223e+003,1.486595e-002
1.641151e+003,1.475777e-002
1.643080e+003,1.476011e-002
1.645008e+003,1.477209e-002
1.646937e+003,1.471476e-002
1.648865e+003,1.466698e-002
1.650794e+003,1.460358e-002
1.652722e+003,1.456918e-002
1.654651e+003,1.450221e-002
1.656579e+003,1.434190e-002
1.658508e+003,1.419100e-002
1.660436e+003,1.402535e-002
1.662365e+003,1.388114e-002
1.664293e+003,1.372251e-002
1.666222e+003,1.353951e-002
1.668150e+003,1.332075e-002
1.670079e+003,1.313405e-002
1.672007e+003,1.296013e-002
1.673936e+003,1.283977e-002
1.675864e+003,1.278895e-002
1.677793e+003,1.272450e-002
1.679721e+003,1.260532e-002
1.681650e+003,1.251528e-002
1.683578e+003,1.246414e-002
1.685507e+003,1.241424e-002
1.687435e+003,1.234770e-002
1.689364e+003,1.230607e-002
1.691292e+003,1.224391e-002
1.693221e+003,1.222331e-002
1.695149e+003,1.220080e-002
1.697078e+003,1.213550e-002
1.699006e+003,1.208937e-002
1.700935e+003,1.207281e-002
1.702863e+003,1.202941e-002
1.704792e+003,1.206558e-002
1.706720e+003,1.210263e-002
1.708649e+003,1.213598e-002
1.710577e+003,1.215962e-002
1.712506e+003,1.226270e-002
1.714434e+003,1.233540e-002
1.716363e+003,1.242115e-002
1.718291e+003,1.253511e-002
1.720220e+003,1.265633e-002
1.722148e+003,1.273988e-002
1.724077e+003,1.278404e-002
1.726005e+003,1.277464e-002
1.727934e+003,1.278011e-002
1.729862e+003,1.278671e-002
1.731791e+003,1.278701e-002
1.733719e+003,1.269346e-002
1.735648e+003,1.262634e-002
1.737576e+003,1.255186e-002
1.739505e+003,1.236717e-002
1.741433e+003,1.215805e-002
1.743362e+003,1.196036e-002
1.745290e+003,1.172573e-002
1.747219e+003,1.148718e-002
1.749147e+003,1.134971e-002
1.751076e+003,1.120003e-002
1.753004e+003,1.103094e-002
1.754933e+003,1.093889e-002
1.756861e+003,1.088635e-002
1.758790e+003,1.079069e-002
1.760718e+003,1.067920e-002
1.762647e+003,1.061926e-002
1.764575e+003,1.051712e-002
1.766504e+003,1.050461e-002
1.768432e+003,1.045569e-002
1.770361e+003,1.040294e-002
1.772289e+003,1.048057e-002
1.774218e+003,1.046005e-002
1.776146e+003,1.038332e-002
1.778075e+003,1.037691e-002
1.780003e+003,1.035597e-002
1.781932e+003,1.032186e-002
1.783860e+003,1.035970e-002
1.785789e+003,1.043769e-002
1.787717e+003,1.042504e-002
1.789646e+003,1.043649e-002
1.791574e+003,1.047731e-002
1.793503e+003,1.050873e-002
1.795431e+003,1.047196e-002
1.797360e+003,1.045406e-002
1.799288e+003,1.050842e-002
1.801217e+003,1.057516e-002
1.803145e+003,1.054857e-002
1.805074e+003,1.058689e-002
1.807002e+003,1.064258e-002
1.808931e+003,1.058973e-002
1.810859e+003,1.058028e-002
1.812788e+003,1.059931e-002
1.814716e+003,1.062121e-002
1.816645e+003,1.066737e-002
1.818573e+003,1.071327e-002
1.820502e+003,1.072726e-002
1.822430e+003,1.077718e-002
1.824359e+003,1.087863e-002
1.826287e+003,1.083390e-002
1.828216e+003,1.083264e-002
1.830144e+003,1.091803e-002
1.832073e+003,1.087150e-002
1.834001e+003,1.087007e-002
1.835930e+003,1.083039e-002
1.837858e+003,1.072459e-002
1.839787e+003,1.080459e-002
1.841715e+003,1.081405e-002
1.843644e+003,1.071138e-002
1.845572e+003,1.084790e-002
1.847501e+003,1.098555e-002
1.849429e+003,1.089146e-002
1.851358e+003,1.083311e-002
1.853286e+003,1.082638e-002
1.855215e+003,1.091410e-002
1.857143e+003,1.081665e-002
1.859072e+003,1.074569e-002
1.861000e+003,1.086078e-002
1.862929e+003,1.085056e-002
1.864857e+003,1.068650e-002
1.866786e+003,1.061523e-002
1.868714e+003,1.069457e-002
1.870643e+003,1.074171e-002
1.872571e+003,1.076373e-002
1.874500e+003,1.077840e-002
1.876428e+003,1.071952e-002
1.878357e+003,1.066212e-002
1.880285e+003,1.062878e-002
1.882214e+003,1.072290e-002
1.884142e+003,1.075387e-002
1.886071e+003,1.077316e-002
1.887999e+003,1.064314e-002
1.889928e+003,1.060028e-002
1.891856e+003,1.076274e-002
1.893785e+003,1.071970e-002
1.895713e+003,1.075159e-002
1.897642e+003,1.077432e-002
1.899570e+003,1.070871e-002
1.901499e+003,1.060794e-002
1.903427e+003,1.060153e-002
1.905356e+003,1.069102e-002
1.907284e+003,1.062568e-002
1.909213e+003,1.065417e-002
1.911141e+003,1.087924e-002
1.913070e+003,1.089751e-002
1.914998e+003,1.082274e-002
1.916927e+003,1.101299e-002
1.918855e+003,1.096849e-002
1.920784e+003,1.079957e-002
1.922712e+003,1.085506e-002
1.924641e+003,1.095276e-002
1.926569e+003,1.074119e-002
1.928498e+003,1.054211e-002
1.930426e+003,1.046830e-002
1.932355e+003,1.060027e-002
1.934283e+003,1.083989e-002
1.936212e+003,1.075120e-002
1.938140e+003,1.059078e-002
1.940069e+003,1.064954e-002
1.941997e+003,1.063252e-002
1.943926e+003,1.083250e-002
1.945854e+003,1.083763e-002
1.947783e+003,1.074348e-002
1.949711e+003,1.056702e-002
1.951640e+003,1.012632e-002
1.953568e+003,1.050367e-002
1.955497e+003,1.059124e-002
1.957425e+003,1.030114e-002
1.959354e+003,1.025305e-002
1.961282e+003,1.019817e-002
1.963211e+003,1.008797e-002
1.965139e+003,9.372986e-003
1.967068e+003,8.685002e-003
1.968996e+003,8.996647e-003
1.970925e+003,9.008977e-003
1.972853e+003,8.638652e-003
1.974782e+003,8.093322e-003
1.976710e+003,7.720548e-003
1.978639e+003,7.744045e-003
1.980567e+003,7.050298e-003
1.982496e+003,6.802585e-003
1.984424e+003,7.448606e-003
1.986353e+003,7.132266e-003
1.988281e+003,6.911940e-003
1.990210e+003,6.411340e-003
1.992138e+003,6.054492e-003
1.994067e+003,6.013714e-003
1.995995e+003,6.587491e-003
1.997924e+003,6.137873e-003
1.999852e+003,5.844487e-003
2.001781e+003,5.694887e-003
2.003709e+003,4.521902e-003
2.005638e+003,3.408266e-003
2.007566e+003,3.197191e-003
2.009495e+003,3.419478e-003
2.011423e+003,3.473547e-003
2.013352e+003,3.925169e-003
2.015280e+003,3.883518e-003
2.017208e+003,3.043549e-003
2.019137e+003,3.013666e-003
2.021066e+003,2.765318e-003
2.022994e+003,1.878204e-003
2.024922e+003,1.615214e-003
2.026851e+003,1.509522e-003
2.028780e+003,1.029549e-003
2.030708e+003,8.446940e-004
2.032636e+003,1.380533e-003
2.034565e+003,2.024811e-003
2.036494e+003,2.808918e-003
2.038422e+003,3.142632e-003
2.040350e+003,2.456652e-003
2.042279e+003,2.411035e-003
2.044208e+003,3.152424e-003
2.046136e+003,4.210759e-003
2.048064e+003,3.848858e-003
2.049993e+003,3.764328e-003
2.051921e+003,4.368015e-003
2.053850e+003,4.703212e-003
2.055778e+003,4.837754e-003
2.057707e+003,4.806884e-003
2.059635e+003,5.262693e-003
2.061564e+003,5.477764e-003
2.063492e+003,5.675401e-003
2.065421e+003,5.580910e-003
2.067349e+003,5.595802e-003
2.069278e+003,5.934551e-003
2.071206e+003,6.314761e-003
2.073135e+003,6.438105e-003
2.075063e+003,6.475260e-003
2.076992e+003,6.146439e-003
2.078920e+003,6.042770e-003
2.080849e+003,6.203312e-003
2.082777e+003,6.529771e-003
2.084706e+003,7.142961e-003
2.086634e+003,7.288982e-003
2.088563e+003,7.332136e-003
2.090491e+003,7.563151e-003
2.092420e+003,8.165192e-003
2.094348e+003,7.919573e-003
2.096277e+003,8.027814e-003
2.098205e+003,8.186598e-003
2.100134e+003,8.547860e-003
2.102062e+003,8.770848e-003
2.103991e+003,8.774025e-003
2.105919e+003,8.551070e-003
2.107848e+003,8.780247e-003
2.109776e+003,8.650027e-003
2.111705e+003,8.432711e-003
2.113633e+003,8.633669e-003
2.115562e+003,8.652191e-003
2.117490e+003,8.669396e-003
2.119419e+003,9.040533e-003
2.121347e+003,9.386152e-003
2.123276e+003,9.433894e-003
2.125204e+003,9.509142e-003
2.127133e+003,9.544094e-003
2.129061e+003,9.083602e-003
2.130990e+003,8.653272e-003
2.132918e+003,8.700427e-003
2.134847e+003,8.290099e-003
2.136775e+003,8.059257e-003
2.138704e+003,8.374573e-003
2.140632e+003,8.451764e-003
2.142561e+003,8.438656e-003
2.144489e+003,8.976055e-003
2.146418e+003,8.731325e-003
2.148346e+003,7.696984e-003
2.150275e+003,7.293230e-003
2.152203e+003,7.423211e-003
2.154132e+003,7.322006e-003
2.156060e+003,5.855313e-003
2.157989e+003,5.265043e-003
2.159917e+003,4.762328e-003
2.161846e+003,5.124473e-003
2.163774e+003,4.759380e-003
2.165703e+003,3.964570e-003
2.167631e+003,4.253570e-003
2.169560e+003,4.390945e-003
2.171488e+003,4.489126e-003
2.173417e+003,4.982274e-003
2.175345e+003,4.006403e-003
2.177274e+003,4.020448e-003
2.179202e+003,4.275721e-003
2.181131e+003,3.633093e-003
2.183059e+003,3.047835e-003
2.184988e+003,3.958551e-003
2.186916e+003,4.636355e-003
2.188845e+003,4.048006e-003
2.190773e+003,3.758742e-003
2.192702e+003,4.073424e-003
2.194630e+003,3.808443e-003
2.196559e+003,3.426219e-003
2.198487e+003,3.814192e-003
2.200416e+003,4.227639e-003
2.202344e+003,4.108076e-003
2.204273e+003,3.994999e-003
2.206201e+003,4.019880e-003
2.208130e+003,4.273278e-003
2.210058e+003,4.612344e-003
2.211987e+003,4.923523e-003
2.213915e+003,5.098055e-003
2.215844e+003,5.274467e-003
2.217772e+003,5.030305e-003
2.219701e+003,4.935219e-003
2.221629e+003,4.934918e-003
2.223558e+003,5.471116e-003
2.225486e+003,5.951306e-003
2.227415e+003,5.975492e-003
2.229343e+003,5.952750e-003
2.231272e+003,6.034985e-003
2.233200e+003,6.032285e-003
2.235129e+003,5.835546e-003
2.237057e+003,5.638700e-003
2.238986e+003,5.980746e-003
2.240914e+003,6.171292e-003
2.242843e+003,6.034696e-003
2.244771e+003,6.313052e-003
2.246700e+003,6.358256e-003
2.248628e+003,6.489866e-003
2.250557e+003,6.516202e-003
2.252485e+003,6.705679e-003
2.254414e+003,7.019460e-003
2.256342e+003,7.145263e-003
2.258271e+003,7.323724e-003
2.260199e+003,7.125061e-003
2.262128e+003,7.059367e-003
2.264056e+003,7.403180e-003
2.265985e+003,7.908227e-003
2.267913e+003,8.023097e-003
2.269842e+003,7.958651e-003
2.271770e+003,7.877572e-003
2.273699e+003,8.043606e-003
2.275627e+003,8.333862e-003
2.277556e+003,8.314732e-003
2.279484e+003,8.429279e-003
2.281413e+003,8.772599e-003
2.283341e+003,8.848777e-003
2.285270e+003,9.115970e-003
2.287198e+003,9.301573e-003
2.289127e+003,9.180146e-003
2.291055e+003,9.294408e-003
2.292984e+003,9.311658e-003
2.294912e+003,9.430198e-003
2.296841e+003,9.660663e-003
2.298769e+003,9.862190e-003
2.300698e+003,9.900565e-003
2.302626e+003,1.017283e-002
2.304555e+003,1.031666e-002
2.306483e+003,1.058398e-002
2.308412e+003,1.077737e-002
2.310340e+003,1.076354e-002
2.312269e+003,1.058612e-002
2.314197e+003,1.041547e-002
2.316125e+003,1.042799e-002
2.318054e+003,1.079744e-002
2.319983e+003,1.103079e-002
2.321911e+003,1.115598e-002
2.323840e+003,1.122807e-002
2.325768e+003,1.124681e-002
2.327697e+003,1.103068e-002
2.329625e+003,1.070154e-002
2.331553e+003,1.040765e-002
2.333482e+003,1.033381e-002
2.335411e+003,1.028942e-002
2.337339e+003,1.008797e-002
2.339268e+003,9.998055e-003
2.341196e+003,9.632794e-003
2.343125e+003,9.603253e-003
2.345053e+003,9.473412e-003
2.346981e+003,9.431708e-003
2.348910e+003,9.228999e-003
2.350839e+003,9.140518e-003
2.352767e+003,9.245091e-003
2.354696e+003,9.159534e-003
2.356624e+003,9.031969e-003
2.358552e+003,9.115404e-003
2.360481e+003,9.184109e-003
2.362409e+003,9.201186e-003
2.364338e+003,8.812528e-003
2.366267e+003,8.754642e-003
2.368195e+003,8.946808e-003
2.370124e+003,9.047357e-003
2.372052e+003,9.066495e-003
2.373980e+003,9.080507e-003
2.375909e+003,9.204135e-003
2.377838e+003,9.295261e-003
2.379766e+003,9.382053e-003
2.381695e+003,9.482982e-003
2.383623e+003,9.643079e-003
2.385552e+003,9.602495e-003
2.387480e+003,9.399455e-003
2.389408e+003,9.287068e-003
2.391337e+003,9.393672e-003
2.393266e+003,9.500726e-003
2.395194e+003,9.661052e-003
2.397123e+003,9.686416e-003
2.399051e+003,9.687684e-003
2.400979e+003,9.829748e-003
2.402908e+003,9.828595e-003
2.404836e+003,9.697655e-003
2.406765e+003,9.678919e-003
2.408694e+003,9.774507e-003
2.410622e+003,9.898250e-003
2.412551e+003,1.004471e-002
2.414479e+003,1.016440e-002
2.416407e+003,1.032792e-002
2.418336e+003,1.043858e-002
2.420264e+003,1.054248e-002
2.422193e+003,1.069579e-002
2.424122e+003,1.092056e-002
2.426050e+003,1.086181e-002
2.427979e+003,1.086460e-002
2.429907e+003,1.108174e-002
2.431835e+003,1.107614e-002
2.433764e+003,1.112318e-002
2.435692e+003,1.132814e-002
2.437621e+003,1.139127e-002
2.439550e+003,1.139219e-002
2.441478e+003,1.131757e-002
2.443406e+003,1.128890e-002
2.445335e+003,1.122698e-002
2.447263e+003,1.105853e-002
2.449192e+003,1.100201e-002
2.451121e+003,1.097289e-002
2.453049e+003,1.085003e-002
2.454978e+003,1.077631e-002
2.456906e+003,1.067351e-002
2.458834e+003,1.054903e-002
2.460763e+003,1.053637e-002
2.462691e+003,1.060465e-002
2.464620e+003,1.048260e-002
2.466549e+003,1.047439e-002
2.468477e+003,1.044897e-002
2.470406e+003,1.041482e-002
2.472334e+003,1.039999e-002
2.474262e+003,1.040905e-002
2.476191e+003,1.043787e-002
2.478119e+003,1.044761e-002
2.480048e+003,1.051573e-002
2.481977e+003,1.047242e-002
2.483905e+003,1.035526e-002
2.485833e+003,1.035862e-002
2.487762e+003,1.053871e-002
2.489690e+003,1.068227e-002
2.491619e+003,1.070013e-002
2.493547e+003,1.064716e-002
2.495476e+003,1.051807e-002
2.497405e+003,1.055735e-002
2.499333e+003,1.059881e-002
2.501261e+003,1.062006e-002
2.503190e+003,1.065840e-002
2.505118e+003,1.059110e-002
2.507047e+003,1.040708e-002
2.508975e+003,1.045888e-002
2.510904e+003,1.052188e-002
2.512833e+003,1.048345e-002
2.514761e+003,1.058006e-002
2.516689e+003,1.058248e-002
2.518618e+003,1.057355e-002
2.520546e+003,1.062363e-002
2.522475e+003,1.063361e-002
2.524403e+003,1.051417e-002
2.526332e+003,1.039524e-002
2.528260e+003,1.028985e-002
2.530189e+003,1.040043e-002
2.532117e+003,1.040417e-002
2.534046e+003,1.042103e-002
2.535974e+003,1.051814e-002
2.537903e+003,1.054982e-002
2.539831e+003,1.056132e-002
2.541760e+003,1.052921e-002
2.543688e+003,1.042178e-002
2.545617e+003,1.040970e-002
2.547545e+003,1.036809e-002
2.549474e+003,1.032754e-002
2.551402e+003,1.035516e-002
2.553331e+003,1.036799e-002
2.555259e+003,1.052086e-002
2.557188e+003,1.039378e-002
2.559116e+003,1.021952e-002
2.561045e+003,1.023146e-002
2.562973e+003,1.033484e-002
2.564902e+003,1.040288e-002
2.566830e+003,1.036623e-002
2.568759e+003,1.031275e-002
2.570687e+003,1.023845e-002
2.572616e+003,1.030796e-002
2.574544e+003,1.032065e-002
2.576473e+003,1.032887e-002
2.578401e+003,1.023170e-002
2.580330e+003,1.009578e-002
2.582258e+003,1.004902e-002
2.584187e+003,1.001440e-002
2.586115e+003,1.012641e-002
2.588044e+003,1.006496e-002
2.589972e+003,9.891572e-003
2.591901e+003,9.921065e-003
2.593829e+003,9.941167e-003
2.595758e+003,9.860083e-003
2.597686e+003,9.822868e-003
2.599615e+003,9.800161e-003
2.601543e+003,9.728896e-003
2.603472e+003,9.689286e-003
2.605400e+003,9.653848e-003
2.607329e+003,9.727032e-003
2.609257e+003,9.742890e-003
2.611186e+003,9.769457e-003
2.613114e+003,9.763121e-003
2.615043e+003,9.698671e-003
2.616971e+003,9.755970e-003
2.618900e+003,9.811514e-003
2.620828e+003,9.837984e-003
2.622757e+003,9.956084e-003
2.624685e+003,9.964695e-003
2.626614e+003,1.005607e-002
2.628542e+003,1.015595e-002
2.630471e+003,1.018292e-002
2.632399e+003,1.025012e-002
2.634328e+003,1.034451e-002
2.636256e+003,1.041374e-002
2.638185e+003,1.042344e-002
2.640113e+003,1.054982e-002
2.642042e+003,1.058730e-002
2.643970e+003,1.063976e-002
2.645899e+003,1.071857e-002
2.647827e+003,1.075627e-002
2.649756e+003,1.083063e-002
2.651684e+003,1.095773e-002
2.653613e+003,1.099821e-002
2.655541e+003,1.097482e-002
2.657470e+003,1.101673e-002
2.659398e+003,1.115891e-002
2.661327e+003,1.129947e-002
2.663255e+003,1.134821e-002
2.665184e+003,1.138222e-002
2.667112e+003,1.141906e-002
2.669041e+003,1.149271e-002
2.670969e+003,1.156890e-002
2.672898e+003,1.166429e-002
2.674826e+003,1.172301e-002
2.676755e+003,1.171800e-002
2.678683e+003,1.176930e-002
2.680612e+003,1.189859e-002
2.682540e+003,1.200315e-002
2.684469e+003,1.203793e-002
2.686397e+003,1.201173e-002
2.688326e+003,1.205537e-002
2.690254e+003,1.212245e-002
2.692183e+003,1.221330e-002
2.694111e+003,1.227181e-002
2.696040e+003,1.226585e-002
2.697968e+003,1.229843e-002
2.699897e+003,1.235492e-002
2.701825e+003,1.245686e-002
2.703754e+003,1.250480e-002
2.705682e+003,1.245717e-002
2.707611e+003,1.245614e-002
2.709539e+003,1.247500e-002
2.711468e+003,1.249908e-002
2.713396e+003,1.250743e-002
2.715325e+003,1.249672e-002
2.717253e+003,1.250317e-002
2.719182e+003,1.253751e-002
2.721110e+003,1.254273e-002
2.723039e+003,1.249324e-002
2.724967e+003,1.246961e-002
2.726896e+003,1.251118e-002
2.728824e+003,1.250965e-002
2.730753e+003,1.246351e-002
2.732681e+003,1.248206e-002
2.734610e+003,1.252735e-002
2.736538e+003,1.255937e-002
2.738467e+003,1.246641e-002
2.740395e+003,1.242740e-002
2.742324e+003,1.248840e-002
2.744252e+003,1.249014e-002
2.746181e+003,1.248741e-002
2.748109e+003,1.247517e-002
2.750038e+003,1.250774e-002
2.751966e+003,1.249266e-002
2.753895e+003,1.248192e-002
2.755823e+003,1.249706e-002
2.757752e+003,1.250770e-002
2.759680e+003,1.250354e-002
2.761609e+003,1.249781e-002
2.763537e+003,1.256336e-002
2.765466e+003,1.260317e-002
2.767394e+003,1.260620e-002
2.769323e+003,1.259072e-002
2.771251e+003,1.256333e-002
2.773180e+003,1.260699e-002
2.775108e+003,1.262735e-002
2.777037e+003,1.264001e-002
2.778965e+003,1.261384e-002
2.780894e+003,1.262404e-002
2.782822e+003,1.261224e-002
2.784750e+003,1.263233e-002
2.786679e+003,1.268350e-002
2.788608e+003,1.272103e-002
2.790536e+003,1.277617e-002
2.792465e+003,1.278303e-002
2.794393e+003,1.275078e-002
2.796322e+003,1.275174e-002
2.798250e+003,1.277133e-002
2.800178e+003,1.278839e-002
2.802107e+003,1.283661e-002
2.804036e+003,1.287156e-002
2.805964e+003,1.287801e-002
2.807893e+003,1.291292e-002
2.809821e+003,1.293003e-002
2.811750e+003,1.296239e-002
2.813678e+003,1.297488e-002
2.815606e+003,1.295761e-002
2.817535e+003,1.297608e-002
2.819464e+003,1.302602e-002
2.821392e+003,1.309633e-002
2.823321e+003,1.312806e-002
2.825249e+003,1.317826e-002
2.827177e+003,1.325430e-002
2.829106e+003,1.325997e-002
2.831034e+003,1.326649e-002
2.832963e+003,1.327934e-002
2.834892e+003,1.330291e-002
2.836820e+003,1.340904e-002
2.838749e+003,1.342066e-002
2.840677e+003,1.343662e-002
2.842605e+003,1.351338e-002
2.844534e+003,1.352569e-002
2.846462e+003,1.350986e-002
2.848391e+003,1.353471e-002
2.850320e+003,1.356766e-002
2.852248e+003,1.357433e-002
2.854177e+003,1.359416e-002
2.856105e+003,1.362493e-002
2.858033e+003,1.370002e-002
2.859962e+003,1.378657e-002
2.861890e+003,1.388389e-002
2.863819e+003,1.391154e-002
2.865748e+003,1.394373e-002
2.867676e+003,1.404622e-002
2.869604e+003,1.408150e-002
2.871533e+003,1.413877e-002
2.873461e+003,1.419580e-002
2.875390e+003,1.417837e-002
2.877319e+003,1.415441e-002
2.879247e+003,1.411535e-002
2.881176e+003,1.413199e-002
2.883104e+003,1.417081e-002
2.885032e+003,1.419032e-002
2.886961e+003,1.413349e-002
2.888889e+003,1.412377e-002
2.890818e+003,1.416393e-002
2.892747e+003,1.413148e-002
2.894675e+003,1.413459e-002
2.896604e+003,1.417974e-002
2.898532e+003,1.414780e-002
2.900460e+003,1.414284e-002
2.902389e+003,1.415544e-002
2.904317e+003,1.408633e-002
2.906246e+003,1.403208e-002
2.908175e+003,1.402698e-002
2.910103e+003,1.399410e-002
2.912031e+003,1.396741e-002
2.913960e+003,1.392019e-002
2.915888e+003,1.379608e-002
2.917817e+003,1.374690e-002
2.919745e+003,1.372197e-002
2.921674e+003,1.366698e-002
2.923603e+003,1.362934e-002
2.925531e+003,1.359518e-002
2.927459e+003,1.362626e-002
2.929388e+003,1.359194e-002
2.931316e+003,1.354866e-002
2.933245e+003,1.350791e-002
2.935173e+003,1.352570e-002
2.937102e+003,1.351030e-002
2.939031e+003,1.348884e-002
2.940959e+003,1.346809e-002
2.942887e+003,1.345156e-002
2.944816e+003,1.334355e-002
2.946744e+003,1.333165e-002
2.948673e+003,1.332321e-002
2.950601e+003,1.328092e-002
2.952530e+003,1.324050e-002
2.954458e+003,1.316289e-002
2.956387e+003,1.309469e-002
2.958315e+003,1.307241e-002
2.960244e+003,1.309971e-002
2.962172e+003,1.312356e-002
2.964101e+003,1.308019e-002
2.966029e+003,1.305225e-002
2.967958e+003,1.302397e-002
2.969886e+003,1.298153e-002
2.971815e+003,1.294566e-002
2.973743e+003,1.295711e-002
2.975672e+003,1.295866e-002
2.977600e+003,1.295773e-002
2.979529e+003,1.295776e-002
2.981457e+003,1.292662e-002
2.983386e+003,1.284993e-002
2.985314e+003,1.276839e-002
2.987243e+003,1.279329e-002
2.989171e+003,1.280793e-002
2.991100e+003,1.277427e-002
2.993028e+003,1.281756e-002
2.994957e+003,1.283670e-002
2.996885e+003,1.290636e-002
2.998814e+003,1.288520e-002
3.000742e+003,1.285248e-002
3.002671e+003,1.288969e-002
3.004599e+003,1.292581e-002
3.006528e+003,1.291377e-002
3.008456e+003,1.293209e-002
3.010385e+003,1.295312e-002
3.012313e+003,1.288760e-002
3.014242e+003,1.286566e-002
3.016170e+003,1.288258e-002
3.018099e+003,1.294790e-002
3.020027e+003,1.302823e-002
3.021956e+003,1.302777e-002
3.023884e+003,1.303276e-002
3.025813e+003,1.300448e-002
3.027741e+003,1.298902e-002
3.029670e+003,1.303016e-002
3.031598e+003,1.305546e-002
3.033527e+003,1.306947e-002
3.035455e+003,1.306970e-002
3.037384e+003,1.305716e-002
3.039312e+003,1.312197e-002
3.041241e+003,1.321164e-002
3.043169e+003,1.325418e-002
3.045098e+003,1.319118e-002
3.047026e+003,1.318578e-002
3.048955e+003,1.321153e-002
3.050883e+003,1.327368e-002
3.052812e+003,1.330215e-002
3.054740e+003,1.331258e-002
3.056669e+003,1.332353e-002
3.058597e+003,1.328124e-002
3.060526e+003,1.335713e-002
3.062454e+003,1.340428e-002
3.064383e+003,1.341255e-002
3.066311e+003,1.342900e-002
3.068240e+003,1.344186e-002
3.070168e+003,1.350650e-002
3.072097e+003,1.355307e-002
3.074025e+003,1.349326e-002
3.075954e+003,1.348655e-002
3.077882e+003,1.349002e-002
3.079811e+003,1.353713e-002
3.081739e+003,1.358547e-002
3.083668e+003,1.365465e-002
3.085596e+003,1.369705e-002
3.087525e+003,1.367998e-002
3.089453e+003,1.363067e-002
3.091382e+003,1.369322e-002
3.093310e+003,1.376685e-002
3.095239e+003,1.382139e-002
3.097167e+003,1.385417e-002
3.099096e+003,1.381222e-002
3.101024e+003,1.383869e-002
3.102953e+003,1.390463e-002
3.104881e+003,1.384691e-002
3.106810e+003,1.378634e-002
3.108738e+003,1.390420e-002
3.110667e+003,1.396761e-002
3.112595e+003,1.393283e-002
3.114524e+003,1.396962e-002
3.116452e+003,1.401367e-002
3.118381e+003,1.400798e-002
3.120309e+003,1.408021e-002
3.122238e+003,1.413815e-002
3.124166e+003,1.409819e-002
3.126095e+003,1.405813e-002
3.128023e+003,1.418580e-002
3.129952e+003,1.428191e-002
3.131880e+003,1.428791e-002
3.133809e+003,1.432485e-002
3.135737e+003,1.433108e-002
3.137666e+003,1.427335e-002
3.139594e+003,1.429675e-002
3.141523e+003,1.432374e-002
3.143451e+003,1.435802e-002
3.145380e+003,1.442729e-002
3.147308e+003,1.446706e-002
3.149237e+003,1.455342e-002
3.151165e+003,1.456535e-002
3.153094e+003,1.453476e-002
3.155022e+003,1.455300e-002
3.156951e+003,1.461843e-002
3.158879e+003,1.467241e-002
3.160808e+003,1.470673e-002
3.162736e+003,1.469182e-002
3.164665e+003,1.468675e-002
3.166593e+003,1.473919e-002
3.168522e+003,1.479764e-002
3.170450e+003,1.487030e-002
3.172379e+003,1.500031e-002
3.174307e+003,1.503262e-002
3.176236e+003,1.499150e-002
3.178164e+003,1.493633e-002
3.180093e+003,1.496088e-002
3.182021e+003,1.503771e-002
3.183950e+003,1.515321e-002
3.185878e+003,1.514267e-002
3.187807e+003,1.518399e-002
3.189735e+003,1.536150e-002
3.191664e+003,1.537921e-002
3.193592e+003,1.533496e-002
3.195521e+003,1.535427e-002
3.197449e+003,1.546041e-002
3.199378e+003,1.557475e-002
3.201306e+003,1.556331e-002
3.203235e+003,1.555715e-002
3.205163e+003,1.559173e-002
3.207092e+003,1.573086e-002
3.209020e+003,1.579702e-002
3.210948e+003,1.583927e-002
3.212877e+003,1.577045e-002
3.214806e+003,1.576996e-002
3.216734e+003,1.584434e-002
3.218663e+003,1.587481e-002
3.220591e+003,1.589414e-002
3.222520e+003,1.598800e-002
3.224448e+003,1.608233e-002
3.226376e+003,1.607358e-002
3.228305e+003,1.605187e-002
3.230234e+003,1.609591e-002
3.232162e+003,1.616751e-002
3.234091e+003,1.624573e-002
3.236019e+003,1.627283e-002
3.237948e+003,1.636228e-002
3.239876e+003,1.645096e-002
3.241804e+003,1.643671e-002
3.243733e+003,1.648157e-002
3.245662e+003,1.659315e-002
3.247590e+003,1.665317e-002
3.249519e+003,1.666533e-002
3.251447e+003,1.670409e-002
3.253375e+003,1.675262e-002
3.255304e+003,1.683041e-002
3.257232e+003,1.685580e-002
3.259161e+003,1.692295e-002
3.261090e+003,1.701188e-002
3.263018e+003,1.704045e-002
3.264947e+003,1.700628e-002
3.266875e+003,1.706142e-002
3.268803e+003,1.714932e-002
3.270732e+003,1.723603e-002
3.272660e+003,1.727060e-002
3.274589e+003,1.730072e-002
3.276518e+003,1.729835e-002
3.278446e+003,1.730459e-002
3.280375e+003,1.729958e-002
3.282303e+003,1.732399e-002
3.284231e+003,1.736269e-002
3.286160e+003,1.736480e-002
3.288088e+003,1.747890e-002
3.290017e+003,1.751765e-002
3.291946e+003,1.755700e-002
3.293874e+003,1.753915e-002
3.295802e+003,1.750597e-002
3.297731e+003,1.751565e-002
3.299659e+003,1.751666e-002
3.301588e+003,1.754914e-002
3.303516e+003,1.751167e-002
3.305445e+003,1.752386e-002
3.307374e+003,1.753405e-002
3.309302e+003,1.749888e-002
3.311230e+003,1.757023e-002
3.313159e+003,1.764890e-002
3.315087e+003,1.774717e-002
3.317016e+003,1.781156e-002
3.318944e+003,1.782313e-002
3.320873e+003,1.781647e-002
3.322802e+003,1.780677e-002
3.324730e+003,1.790238e-002
3.326658e+003,1.793611e-002
3.328587e+003,1.787293e-002
3.330515e+003,1.782670e-002
3.332444e+003,1.781343e-002
3.334372e+003,1.782480e-002
3.336301e+003,1.787563e-002
3.338229e+003,1.788300e-002
3.340158e+003,1.783087e-002
3.342086e+003,1.790604e-002
3.344015e+003,1.785664e-002
3.345943e+003,1.778799e-002
3.347872e+003,1.781805e-002
3.349800e+003,1.780848e-002
3.351729e+003,1.780444e-002
3.353657e+003,1.775754e-002
3.355586e+003,1.771389e-002
3.357514e+003,1.768406e-002
3.359443e+003,1.768689e-002
3.361371e+003,1.765884e-002
3.363300e+003,1.760763e-002
3.365229e+003,1.753491e-002
3.367157e+003,1.757841e-002
3.369085e+003,1.759771e-002
3.371014e+003,1.749839e-002
3.372942e+003,1.743539e-002
3.374871e+003,1.740788e-002
3.376799e+003,1.739581e-002
3.378728e+003,1.746934e-002
3.380656e+003,1.746573e-002
3.382585e+003,1.739951e-002
3.384513e+003,1.735541e-002
3.386442e+003,1.724762e-002
3.388370e+003,1.723914e-002
3.390299e+003,1.729360e-002
3.392227e+003,1.729378e-002
3.394156e+003,1.728090e-002
3.396084e+003,1.718022e-002
3.398013e+003,1.708406e-002
3.399941e+003,1.704765e-002
3.401870e+003,1.696918e-002
3.403798e+003,1.694256e-002
3.405727e+003,1.693740e-002
3.407655e+003,1.696991e-002
3.409584e+003,1.684991e-002
3.411512e+003,1.673318e-002
3.413441e+003,1.679341e-002
3.415369e+003,1.677819e-002
3.417298e+003,1.674567e-002
3.419226e+003,1.667237e-002
3.421155e+003,1.654429e-002
3.423083e+003,1.641117e-002
3.425012e+003,1.639997e-002
3.426940e+003,1.645720e-002
3.428869e+003,1.641365e-002
3.430797e+003,1.623434e-002
3.432726e+003,1.616073e-002
3.434654e+003,1.610547e-002
3.436583e+003,1.608068e-002
3.438511e+003,1.599808e-002
3.440440e+003,1.594153e-002
3.442368e+003,1.580357e-002
3.444297e+003,1.570420e-002
3.446225e+003,1.561360e-002
3.448154e+003,1.558211e-002
3.450082e+003,1.557924e-002
3.452011e+003,1.551710e-002
3.453939e+003,1.542924e-002
3.455868e+003,1.533142e-002
3.457796e+003,1.518861e-002
3.459725e+003,1.509351e-002
3.461653e+003,1.504036e-002
3.463582e+003,1.507304e-002
3.465510e+003,1.498848e-002
3.467439e+003,1.486764e-002
3.469367e+003,1.479910e-002
3.471296e+003,1.467328e-002
3.473224e+003,1.460216e-002
3.475153e+003,1.458055e-002
3.477081e+003,1.453502e-002
3.479010e+003,1.450511e-002
3.480938e+003,1.436586e-002
3.482867e+003,1.427181e-002
3.484795e+003,1.421006e-002
3.486724e+003,1.414761e-002
3.488652e+003,1.411681e-002
3.490581e+003,1.413279e-002
3.492509e+003,1.411343e-002
3.494438e+003,1.403465e-002
3.496366e+003,1.400754e-002
3.498295e+003,1.389383e-002
3.500223e+003,1.383330e-002
3.502152e+003,1.383103e-002
3.504080e+003,1.386781e-002
3.506009e+003,1.371876e-002
3.507937e+003,1.358815e-002
3.509866e+003,1.362045e-002
3.511794e+003,1.352379e-002
3.513723e+003,1.333405e-002
3.515651e+003,1.331841e-002
3.517580e+003,1.333558e-002
3.519508e+003,1.331729e-002
3.521437e+003,1.340625e-002
3.523365e+003,1.333358e-002
3.525294e+003,1.313765e-002
3.527222e+003,1.311527e-002
3.529151e+003,1.309267e-002
3.531079e+003,1.303939e-002
3.533008e+003,1.291369e-002
3.534936e+003,1.289637e-002
3.536865e+003,1.296408e-002
3.538793e+003,1.289346e-002
3.540722e+003,1.278538e-002
3.542650e+003,1.273122e-002
3.544579e+003,1.277146e-002
3.546507e+003,1.275961e-002
3.548436e+003,1.271228e-002
3.550364e+003,1.263142e-002
3.552293e+003,1.266402e-002
3.554221e+003,1.266276e-002
3.556150e+003,1.262653e-002
3.558078e+003,1.252364e-002
3.560007e+003,1.246855e-002
3.561935e+003,1.243053e-002
3.563864e+003,1.242736e-002
3.565792e+003,1.241022e-002
3.567721e+003,1.231754e-002
3.569649e+003,1.222127e-002
3.571578e+003,1.220824e-002
3.573506e+003,1.225682e-002
3.575435e+003,1.222773e-002
3.577363e+003,1.209261e-002
3.579292e+003,1.202482e-002
3.581220e+003,1.190314e-002
3.583149e+003,1.174483e-002
3.585077e+003,1.170264e-002
3.587006e+003,1.170407e-002
3.588934e+003,1.165291e-002
3.590863e+003,1.149980e-002
3.592791e+003,1.137039e-002
3.594720e+003,1.129495e-002
3.596648e+003,1.119507e-002
3.598577e+003,1.114845e-002
3.600505e+003,1.113976e-002
3.602434e+003,1.115479e-002
3.604362e+003,1.117127e-002
3.606291e+003,1.118134e-002
3.608219e+003,1.122310e-002
3.610148e+003,1.143938e-002
3.612076e+003,1.153026e-002
3.614005e+003,1.145677e-002
3.615933e+003,1.118481e-002
3.617862e+003,1.081994e-002
3.619790e+003,1.065451e-002
3.621719e+003,1.074862e-002
3.623647e+003,1.066584e-002
3.625576e+003,1.063105e-002
3.627504e+003,1.066016e-002
3.629433e+003,1.063082e-002
3.631361e+003,1.057765e-002
3.633290e+003,1.064511e-002
3.635218e+003,1.067812e-002
3.637146e+003,1.077168e-002
3.639075e+003,1.075304e-002
3.641004e+003,1.088990e-002
3.642932e+003,1.098834e-002
3.644861e+003,1.097770e-002
3.646789e+003,1.095402e-002
3.648718e+003,1.089410e-002
3.650646e+003,1.086401e-002
3.652574e+003,1.097252e-002
3.654503e+003,1.093768e-002
3.656432e+003,1.090299e-002
3.658360e+003,1.083107e-002
3.660289e+003,1.088951e-002
3.662217e+003,1.083814e-002
3.664146e+003,1.084649e-002
3.666074e+003,1.096624e-002
3.668002e+003,1.101337e-002
3.669931e+003,1.103506e-002
3.671860e+003,1.091369e-002
3.673788e+003,1.087003e-002
3.675717e+003,1.077871e-002
3.677645e+003,1.078086e-002
3.679573e+003,1.065823e-002
3.681502e+003,1.050700e-002
3.683430e+003,1.045992e-002
3.685359e+003,1.049507e-002
3.687288e+003,1.054755e-002
3.689216e+003,1.055869e-002
3.691145e+003,1.048793e-002
3.693073e+003,1.032323e-002
3.695001e+003,1.013788e-002
3.696930e+003,1.008821e-002
3.698858e+003,1.013354e-002
3.700787e+003,1.002075e-002
3.702716e+003,9.918866e-003
3.704644e+003,9.889474e-003
3.706573e+003,9.934981e-003
3.708501e+003,1.010349e-002
3.710429e+003,1.019763e-002
3.712358e+003,1.037542e-002
3.714286e+003,1.047038e-002
3.716215e+003,1.039577e-002
3.718144e+003,1.013401e-002
3.720072e+003,9.881358e-003
3.722000e+003,9.699359e-003
3.723929e+003,9.585047e-003
3.725857e+003,9.489016e-003
3.727786e+003,9.387952e-003
3.729714e+003,9.449471e-003
3.731643e+003,9.616419e-003
3.733572e+003,9.626782e-003
3.735500e+003,9.686124e-003
3.737428e+003,9.872396e-003
3.739357e+003,9.992716e-003
3.741285e+003,1.019192e-002
3.743214e+003,1.042762e-002
3.745142e+003,1.050228e-002
3.747071e+003,1.055468e-002
3.749000e+003,1.063179e-002
3.750928e+003,1.060238e-002
3.752856e+003,1.060458e-002
3.754785e+003,1.052897e-002
3.756713e+003,1.052166e-002
3.758642e+003,1.053661e-002
3.760570e+003,1.052717e-002
3.762499e+003,1.063799e-002
3.764427e+003,1.073345e-002
3.766356e+003,1.069626e-002
3.768284e+003,1.069471e-002
3.770213e+003,1.070354e-002
3.772141e+003,1.071602e-002
3.774070e+003,1.076486e-002
3.775998e+003,1.085560e-002
3.777927e+003,1.080018e-002
3.779855e+003,1.066878e-002
3.781784e+003,1.066537e-002
3.783712e+003,1.075705e-002
3.785641e+003,1.083017e-002
3.787569e+003,1.086647e-002
3.789498e+003,1.088371e-002
3.791426e+003,1.085866e-002
3.793355e+003,1.093215e-002
3.795283e+003,1.104311e-002
3.797212e+003,1.105887e-002
3.799140e+003,1.107624e-002
3.801069e+003,1.110882e-002
3.802997e+003,1.113489e-002
3.804926e+003,1.120811e-002
3.806854e+003,1.116953e-002
3.808783e+003,1.118310e-002
3.810711e+003,1.122512e-002
3.812640e+003,1.131446e-002
3.814568e+003,1.130738e-002
3.816497e+003,1.127809e-002
3.818425e+003,1.125880e-002
3.820354e+003,1.125305e-002
3.822282e+003,1.123822e-002
3.824211e+003,1.125840e-002
3.826139e+003,1.119249e-002
3.828068e+003,1.117328e-002
3.829996e+003,1.126256e-002
3.831925e+003,1.130289e-002
3.833853e+003,1.127564e-002
3.835782e+003,1.126077e-002
3.837710e+003,1.129980e-002
3.839639e+003,1.131273e-002
3.841567e+003,1.130426e-002
3.843496e+003,1.142313e-002
3.845424e+003,1.145492e-002
3.847353e+003,1.141849e-002
3.849281e+003,1.139293e-002
3.851210e+003,1.141457e-002
3.853138e+003,1.138268e-002
3.855067e+003,1.147020e-002
3.856995e+003,1.154175e-002
3.858924e+003,1.157037e-002
3.860852e+003,1.147888e-002
3.862781e+003,1.150814e-002
3.864709e+003,1.153854e-002
3.866638e+003,1.143941e-002
3.868566e+003,1.145307e-002
3.870495e+003,1.155358e-002
3.872423e+003,1.154386e-002
3.874352e+003,1.147947e-002
3.876280e+003,1.154269e-002
3.878209e+003,1.153035e-002
3.880137e+003,1.146950e-002
3.882066e+003,1.152201e-002
3.883994e+003,1.153644e-002
3.885923e+003,1.155625e-002
3.887851e+003,1.156557e-002
3.889780e+003,1.154706e-002
3.891708e+003,1.158986e-002
3.893637e+003,1.158711e-002
3.895565e+003,1.165283e-002
3.897494e+003,1.167842e-002
3.899422e+003,1.162429e-002
3.901351e+003,1.157787e-002
3.903279e+003,1.162979e-002
3.905208e+003,1.170279e-002
3.907136e+003,1.164865e-002
3.909065e+003,1.158527e-002
3.910993e+003,1.167873e-002
3.912922e+003,1.186013e-002
3.914850e+003,1.177963e-002
3.916779e+003,1.172122e-002
3.918707e+003,1.169948e-002
3.920636e+003,1.174675e-002
3.922564e+003,1.170264e-002
3.924493e+003,1.170643e-002
3.926421e+003,1.173606e-002
3.928350e+003,1.178665e-002
3.930278e+003,1.176177e-002
3.932207e+003,1.175737e-002
3.934135e+003,1.173247e-002
3.936064e+003,1.177833e-002
3.937992e+003,1.182015e-002
3.939921e+003,1.183911e-002
3.941849e+003,1.178054e-002
3.943778e+003,1.174780e-002
3.945706e+003,1.182582e-002
3.947635e+003,1.176029e-002
3.949563e+003,1.166462e-002
3.951492e+003,1.166891e-002
3.953420e+003,1.181108e-002
3.955349e+003,1.187698e-002
3.957277e+003,1.199676e-002
3.959206e+003,1.202394e-002
3.961134e+003,1.191621e-002
3.963063e+003,1.187176e-002
3.964991e+003,1.187584e-002
3.966920e+003,1.192990e-002
3.968848e+003,1.190253e-002
3.970777e+003,1.194388e-002
3.972705e+003,1.204576e-002
3.974634e+003,1.204630e-002
3.976562e+003,1.201898e-002
3.978491e+003,1.195097e-002
3.980419e+003,1.193535e-002
3.982348e+003,1.194753e-002
3.984276e+003,1.202072e-002
3.986205e+003,1.201075e-002
3.988133e+003,1.196975e-002
3.990062e+003,1.198459e-002
3.991990e+003,1.201592e-002
3.993919e+003,1.207211e-002
3.995847e+003,1.206861e-002
3.997776e+003,1.195235e-002
3.999704e+003,1.195267e-002
4.001633e+003,0.000000e+000
