3.991989e+002,7.147064e-002
4.011274e+002,7.002673e-002
4.030559e+002,7.002673e-002
4.049844e+002,6.922524e-002
4.069129e+002,7.186104e-002
4.088414e+002,7.306009e-002
4.107699e+002,7.298531e-002
4.126984e+002,7.332214e-002
4.146269e+002,7.411823e-002
4.165554e+002,7.564440e-002
4.184839e+002,7.790346e-002
4.204124e+002,7.938064e-002
4.223409e+002,8.026017e-002
4.242694e+002,8.177980e-002
4.261979e+002,8.302233e-002
4.281264e+002,8.303767e-002
4.300549e+002,8.345531e-002
4.319834e+002,8.362857e-002
4.339119e+002,8.476584e-002
4.358404e+002,8.604945e-002
4.377689e+002,8.605123e-002
4.396974e+002,8.707108e-002
4.416259e+002,8.784422e-002
4.435544e+002,8.796041e-002
4.454829e+002,8.775117e-002
4.474114e+002,8.845419e-002
4.493399e+002,8.854438e-002
4.512684e+002,8.803273e-002
4.531969e+002,8.827075e-002
4.551254e+002,8.875480e-002
4.570539e+002,8.894453e-002
4.589824e+002,8.923064e-002
4.609109e+002,8.841372e-002
4.628394e+002,8.764523e-002
4.647679e+002,8.742529e-002
4.666964e+002,8.684824e-002
4.686249e+002,8.628518e-002
4.705533e+002,8.518402e-002
4.724819e+002,8.398099e-002
4.744103e+002,8.309217e-002
4.763389e+002,8.188412e-002
4.782673e+002,8.020011e-002
4.801959e+002,7.866606e-002
4.821243e+002,7.709529e-002
4.840529e+002,7.579231e-002
4.859813e+002,7.517800e-002
4.879099e+002,7.380488e-002
4.898383e+002,7.258026e-002
4.917668e+002,7.174733e-002
4.936953e+002,7.078822e-002
4.956238e+002,7.021750e-002
4.975523e+002,6.986450e-002
4.994808e+002,6.921183e-002
5.014093e+002,6.834532e-002
5.033378e+002,6.787059e-002
5.052663e+002,6.755405e-002
5.071948e+002,6.777741e-002
5.091233e+002,6.803867e-002
5.110518e+002,6.826554e-002
5.129803e+002,6.852333e-002
5.149088e+002,6.834488e-002
5.168373e+002,6.896298e-002
5.187658e+002,6.880651e-002
5.206943e+002,6.898873e-002
5.226228e+002,6.942740e-002
5.245513e+002,6.931785e-002
5.264798e+002,6.931125e-002
5.284083e+002,6.970753e-002
5.303368e+002,6.931319e-002
5.322653e+002,6.892532e-002
5.341938e+002,6.815282e-002
5.361223e+002,6.768085e-002
5.380508e+002,6.798408e-002
5.399792e+002,6.832984e-002
5.419078e+002,6.808178e-002
5.438363e+002,6.835705e-002
5.457648e+002,6.852246e-002
5.476932e+002,6.840298e-002
5.496218e+002,6.832308e-002
5.515503e+002,6.860688e-002
5.534788e+002,6.915916e-002
5.554072e+002,6.974918e-002
5.573358e+002,7.031778e-002
5.592643e+002,7.036024e-002
5.611927e+002,7.025521e-002
5.631212e+002,6.958644e-002
5.650497e+002,6.894032e-002
5.669783e+002,6.826572e-002
5.689067e+002,6.756211e-002
5.708352e+002,6.712500e-002
5.727637e+002,6.671172e-002
5.746923e+002,6.652252e-002
5.766207e+002,6.642430e-002
5.785492e+002,6.629027e-002
5.804777e+002,6.624001e-002
5.824063e+002,6.600884e-002
5.843347e+002,6.566645e-002
5.862632e+002,6.568085e-002
5.881917e+002,6.567662e-002
5.901202e+002,6.578816e-002
5.920487e+002,6.544293e-002
5.939772e+002,6.537757e-002
5.959057e+002,6.518746e-002
5.978342e+002,6.474292e-002
5.997627e+002,6.392851e-002
6.016912e+002,6.362173e-002
6.036197e+002,6.373215e-002
6.055482e+002,6.370091e-002
6.074767e+002,6.351289e-002
6.094052e+002,6.335583e-002
6.113337e+002,6.273190e-002
6.132622e+002,6.207500e-002
6.151907e+002,6.172524e-002
6.171192e+002,6.131579e-002
6.190477e+002,6.092417e-002
6.209762e+002,6.030382e-002
6.229047e+002,5.929803e-002
6.248332e+002,5.826066e-002
6.267617e+002,5.743876e-002
6.286902e+002,5.680354e-002
6.306187e+002,5.621563e-002
6.325472e+002,5.560054e-002
6.344756e+002,5.523648e-002
6.364042e+002,5.502246e-002
6.383326e+002,5.446547e-002
6.402612e+002,5.401225e-002
6.421896e+002,5.344224e-002
6.441182e+002,5.327499e-002
6.460466e+002,5.327434e-002
6.479752e+002,5.289077e-002
6.499036e+002,5.253379e-002
6.518322e+002,5.235383e-002
6.537606e+002,5.237468e-002
6.556891e+002,5.237618e-002
6.576177e+002,5.245130e-002
6.595461e+002,5.256243e-002
6.614746e+002,5.296934e-002
6.634031e+002,5.332605e-002
6.653317e+002,5.302698e-002
6.672601e+002,5.264216e-002
6.691886e+002,5.229714e-002
6.711171e+002,5.181914e-002
6.730457e+002,5.081395e-002
6.749741e+002,4.950246e-002
6.769026e+002,4.818770e-002
6.788311e+002,4.719247e-002
6.807596e+002,4.620600e-002
6.826881e+002,4.504732e-002
6.846166e+002,4.435363e-002
6.865451e+002,4.400499e-002
6.884736e+002,4.358657e-002
6.904021e+002,4.353463e-002
6.923306e+002,4.335196e-002
6.942591e+002,4.318435e-002
6.961876e+002,4.295394e-002
6.981161e+002,4.279561e-002
7.000446e+002,4.253948e-002
7.019731e+002,4.220731e-002
7.039016e+002,4.180331e-002
7.058301e+002,4.188196e-002
7.077585e+002,4.165190e-002
7.096871e+002,4.125605e-002
7.116156e+002,4.090654e-002
7.135441e+002,4.076275e-002
7.154725e+002,4.058208e-002
7.174011e+002,4.025567e-002
7.193296e+002,3.985489e-002
7.212581e+002,3.973456e-002
7.231865e+002,3.944006e-002
7.251151e+002,3.906174e-002
7.270436e+002,3.863515e-002
7.289720e+002,3.827711e-002
7.309005e+002,3.794051e-002
7.328290e+002,3.769304e-002
7.347576e+002,3.756256e-002
7.366860e+002,3.731615e-002
7.386145e+002,3.693154e-002
7.405430e+002,3.656675e-002
7.424716e+002,3.624715e-002
7.444000e+002,3.594934e-002
7.463285e+002,3.564380e-002
7.482570e+002,3.544774e-002
7.501855e+002,3.507427e-002
7.521140e+002,3.488319e-002
7.540425e+002,3.463765e-002
7.559710e+002,3.449078e-002
7.578995e+002,3.438289e-002
7.598280e+002,3.432124e-002
7.617565e+002,3.414833e-002
7.636850e+002,3.415690e-002
7.656135e+002,3.400161e-002
7.675420e+002,3.403350e-002
7.694705e+002,3.421264e-002
7.713990e+002,3.421135e-002
7.733275e+002,3.414478e-002
7.752560e+002,3.411536e-002
7.771844e+002,3.420848e-002
7.791130e+002,3.422039e-002
7.810415e+002,3.414661e-002
7.829700e+002,3.422447e-002
7.848984e+002,3.418052e-002
7.868270e+002,3.408955e-002
7.887555e+002,3.399885e-002
7.906840e+002,3.389384e-002
7.926124e+002,3.372722e-002
7.945410e+002,3.366817e-002
7.964695e+002,3.367315e-002
7.983979e+002,3.356532e-002
8.003264e+002,3.324885e-002
8.022549e+002,3.318268e-002
8.041835e+002,3.313626e-002
8.061119e+002,3.311602e-002
8.080404e+002,3.288232e-002
8.099689e+002,3.252592e-002
8.118975e+002,3.235651e-002
8.138259e+002,3.223509e-002
8.157545e+002,3.207110e-002
8.176830e+002,3.189908e-002
8.196115e+002,3.156105e-002
8.215399e+002,3.126580e-002
8.234684e+002,3.097787e-002
8.253970e+002,3.084015e-002
8.273254e+002,3.072395e-002
8.292539e+002,3.050771e-002
8.311824e+002,3.034139e-002
8.331110e+002,3.026116e-002
8.350394e+002,3.011128e-002
8.369679e+002,3.003180e-002
8.388964e+002,2.992036e-002
8.408250e+002,2.984345e-002
8.427534e+002,2.961424e-002
8.446819e+002,2.952142e-002
8.466104e+002,2.954028e-002
8.485389e+002,2.961512e-002
8.504674e+002,2.959562e-002
8.523959e+002,2.959391e-002
8.543244e+002,2.958820e-002
8.562529e+002,2.964868e-002
8.581814e+002,2.973184e-002
8.601099e+002,2.978777e-002
8.620384e+002,2.991316e-002
8.639669e+002,3.003841e-002
8.658954e+002,3.020000e-002
8.678239e+002,3.048382e-002
8.697524e+002,3.080803e-002
8.716809e+002,3.116580e-002
8.736094e+002,3.137720e-002
8.755378e+002,3.164993e-002
8.774664e+002,3.207556e-002
8.793949e+002,3.249903e-002
8.813234e+002,3.292446e-002
8.832518e+002,3.358075e-002
8.851804e+002,3.422494e-002
8.871089e+002,3.506538e-002
8.890374e+002,3.598026e-002
8.909658e+002,3.687399e-002
8.928943e+002,3.766761e-002
8.948229e+002,3.836010e-002
8.967513e+002,3.860186e-002
8.986798e+002,3.861349e-002
9.006083e+002,3.836704e-002
9.025369e+002,3.782013e-002
9.044653e+002,3.715759e-002
9.063938e+002,3.666455e-002
9.083223e+002,3.636076e-002
9.102509e+002,3.622791e-002
9.121793e+002,3.615790e-002
9.141078e+002,3.617954e-002
9.160364e+002,3.629120e-002
9.179648e+002,3.662049e-002
9.198933e+002,3.700072e-002
9.218218e+002,3.723888e-002
9.237504e+002,3.759267e-002
9.256788e+002,3.798959e-002
9.276073e+002,3.843817e-002
9.295358e+002,3.890523e-002
9.314644e+002,3.942590e-002
9.333928e+002,3.986761e-002
9.353213e+002,4.030817e-002
9.372498e+002,4.094495e-002
9.391783e+002,4.166450e-002
9.411068e+002,4.259688e-002
9.430353e+002,4.360936e-002
9.449637e+002,4.463144e-002
9.468923e+002,4.557367e-002
9.488208e+002,4.665510e-002
9.507493e+002,4.791919e-002
9.526777e+002,4.919999e-002
9.546063e+002,5.051541e-002
9.565348e+002,5.184022e-002
9.584633e+002,5.309335e-002
9.603917e+002,5.435152e-002
9.623203e+002,5.555479e-002
9.642488e+002,5.681541e-002
9.661772e+002,5.800713e-002
9.681057e+002,5.900741e-002
9.700343e+002,6.005197e-002
9.719628e+002,6.120291e-002
9.738912e+002,6.241884e-002
9.758197e+002,6.382892e-002
9.777483e+002,6.543732e-002
9.796768e+002,6.741060e-002
9.816052e+002,6.967497e-002
9.835337e+002,7.200638e-002
9.854623e+002,7.423695e-002
9.873907e+002,7.624561e-002
9.893192e+002,7.784347e-002
9.912477e+002,7.892306e-002
9.931763e+002,7.959733e-002
9.951047e+002,8.011547e-002
9.970332e+002,8.083158e-002
9.989617e+002,8.198030e-002
1.000890e+003,8.349469e-002
1.002819e+003,8.500399e-002
1.004747e+003,8.650601e-002
1.006676e+003,8.800233e-002
1.008604e+003,8.949593e-002
1.010533e+003,9.106161e-002
1.012461e+003,9.257939e-002
1.014390e+003,9.431296e-002
1.016318e+003,9.632596e-002
1.018247e+003,9.826860e-002
1.020175e+003,1.000813e-001
1.022104e+003,1.018487e-001
1.024032e+003,1.037251e-001
1.025961e+003,1.055965e-001
1.027889e+003,1.074803e-001
1.029818e+003,1.092332e-001
1.031746e+003,1.107174e-001
1.033675e+003,1.117060e-001
1.035603e+003,1.120117e-001
1.037532e+003,1.115009e-001
1.039460e+003,1.104468e-001
1.041389e+003,1.093410e-001
1.043317e+003,1.085072e-001
1.045246e+003,1.079094e-001
1.047174e+003,1.076697e-001
1.049103e+003,1.075676e-001
1.051031e+003,1.074341e-001
1.052960e+003,1.071430e-001
1.054888e+003,1.065225e-001
1.056817e+003,1.055308e-001
1.058745e+003,1.043104e-001
1.060674e+003,1.028570e-001
1.062602e+003,1.011697e-001
1.064531e+003,9.913294e-002
1.066459e+003,9.702645e-002
1.068388e+003,9.509071e-002
1.070316e+003,9.324548e-002
1.072245e+003,9.150582e-002
1.074173e+003,8.982623e-002
1.076102e+003,8.813357e-002
1.078030e+003,8.644973e-002
1.079959e+003,8.472739e-002
1.081887e+003,8.308138e-002
1.083816e+003,8.177509e-002
1.085744e+003,8.080687e-002
1.087673e+003,8.000355e-002
1.089601e+003,7.940256e-002
1.091530e+003,7.888556e-002
1.093458e+003,7.840770e-002
1.095387e+003,7.795634e-002
1.097315e+003,7.765606e-002
1.099244e+003,7.737318e-002
1.101172e+003,7.702444e-002
1.103101e+003,7.652654e-002
1.105029e+003,7.578750e-002
1.106958e+003,7.456060e-002
1.108886e+003,7.301415e-002
1.110815e+003,7.113086e-002
1.112743e+003,6.891245e-002
1.114672e+003,6.656101e-002
1.116600e+003,6.424954e-002
1.118529e+003,6.220688e-002
1.120457e+003,6.048277e-002
1.122386e+003,5.878459e-002
1.124314e+003,5.705555e-002
1.126243e+003,5.527518e-002
1.128171e+003,5.338745e-002
1.130100e+003,5.169263e-002
1.132028e+003,5.014049e-002
1.133957e+003,4.874020e-002
1.135885e+003,4.753904e-002
1.137814e+003,4.667321e-002
1.139742e+003,4.613616e-002
1.141671e+003,4.591218e-002
1.143599e+003,4.594433e-002
1.145528e+003,4.624384e-002
1.147456e+003,4.668277e-002
1.149385e+003,4.720225e-002
1.151313e+003,4.782419e-002
1.153242e+003,4.844927e-002
1.155170e+003,4.901898e-002
1.157099e+003,4.949091e-002
1.159027e+003,4.971258e-002
1.160956e+003,4.960567e-002
1.162884e+003,4.904539e-002
1.164813e+003,4.808994e-002
1.166741e+003,4.664676e-002
1.168670e+003,4.482547e-002
1.170598e+003,4.286632e-002
1.172526e+003,4.080298e-002
1.174455e+003,3.889617e-002
1.176384e+003,3.730986e-002
1.178312e+003,3.597742e-002
1.180240e+003,3.483095e-002
1.182169e+003,3.383233e-002
1.184098e+003,3.309628e-002
1.186026e+003,3.251099e-002
1.187954e+003,3.207354e-002
1.189883e+003,3.190922e-002
1.191812e+003,3.191928e-002
1.193740e+003,3.198843e-002
1.195668e+003,3.208698e-002
1.197597e+003,3.216160e-002
1.199526e+003,3.226668e-002
1.201454e+003,3.228793e-002
1.203382e+003,3.214431e-002
1.205311e+003,3.186888e-002
1.207240e+003,3.151446e-002
1.209168e+003,3.119973e-002
1.211096e+003,3.102837e-002
1.213025e+003,3.098834e-002
1.214953e+003,3.104794e-002
1.216882e+003,3.117508e-002
1.218810e+003,3.135898e-002
1.220739e+003,3.160590e-002
1.222667e+003,3.192392e-002
1.224596e+003,3.226470e-002
1.226524e+003,3.259515e-002
1.228453e+003,3.290845e-002
1.230381e+003,3.315365e-002
1.232310e+003,3.327763e-002
1.234238e+003,3.327125e-002
1.236167e+003,3.319224e-002
1.238095e+003,3.310205e-002
1.240024e+003,3.298837e-002
1.241952e+003,3.279597e-002
1.243881e+003,3.253099e-002
1.245809e+003,3.225920e-002
1.247738e+003,3.191467e-002
1.249666e+003,3.148845e-002
1.251595e+003,3.105065e-002
1.253523e+003,3.064946e-002
1.255452e+003,3.023961e-002
1.257380e+003,2.981117e-002
1.259309e+003,2.940270e-002
1.261237e+003,2.902268e-002
1.263166e+003,2.854259e-002
1.265094e+003,2.801434e-002
1.267023e+003,2.750030e-002
1.268951e+003,2.699522e-002
1.270880e+003,2.651202e-002
1.272808e+003,2.606866e-002
1.274737e+003,2.570095e-002
1.276665e+003,2.537622e-002
1.278594e+003,2.513633e-002
1.280522e+003,2.496778e-002
1.282451e+003,2.483350e-002
1.284379e+003,2.468164e-002
1.286308e+003,2.453870e-002
1.288236e+003,2.446039e-002
1.290165e+003,2.446555e-002
1.292093e+003,2.458224e-002
1.294022e+003,2.474752e-002
1.295950e+003,2.489356e-002
1.297879e+003,2.506379e-002
1.299807e+003,2.544809e-002
1.301736e+003,2.585014e-002
1.303664e+003,2.607973e-002
1.305593e+003,2.636324e-002
1.307521e+003,2.679360e-002
1.309450e+003,2.723976e-002
1.311378e+003,2.763366e-002
1.313307e+003,2.792781e-002
1.315235e+003,2.812532e-002
1.317164e+003,2.814528e-002
1.319092e+003,2.804039e-002
1.321021e+003,2.786428e-002
1.322949e+003,2.758629e-002
1.324878e+003,2.730566e-002
1.326806e+003,2.708093e-002
1.328735e+003,2.692617e-002
1.330663e+003,2.687652e-002
1.332592e+003,2.677994e-002
1.334520e+003,2.670779e-002
1.336449e+003,2.658883e-002
1.338377e+003,2.636681e-002
1.340306e+003,2.613774e-002
1.342234e+003,2.596922e-002
1.344163e+003,2.578981e-002
1.346091e+003,2.575519e-002
1.348020e+003,2.580395e-002
1.349948e+003,2.590784e-002
1.351877e+003,2.607623e-002
1.353805e+003,2.628786e-002
1.355734e+003,2.657235e-002
1.357662e+003,2.686051e-002
1.359591e+003,2.716238e-002
1.361519e+003,2.745811e-002
1.363448e+003,2.773282e-002
1.365376e+003,2.796625e-002
1.367305e+003,2.815360e-002
1.369233e+003,2.819808e-002
1.371162e+003,2.812834e-002
1.373090e+003,2.787533e-002
1.375019e+003,2.752842e-002
1.376947e+003,2.715193e-002
1.378876e+003,2.669710e-002
1.380804e+003,2.615178e-002
1.382733e+003,2.560590e-002
1.384661e+003,2.514865e-002
1.386590e+003,2.469270e-002
1.388518e+003,2.429605e-002
1.390447e+003,2.399763e-002
1.392375e+003,2.379653e-002
1.394304e+003,2.370238e-002
1.396232e+003,2.362663e-002
1.398161e+003,2.361924e-002
1.400089e+003,2.369728e-002
1.402018e+003,2.372192e-002
1.403946e+003,2.377696e-002
1.405875e+003,2.387240e-002
1.407803e+003,2.399362e-002
1.409732e+003,2.409687e-002
1.411660e+003,2.427711e-002
1.413589e+003,2.449920e-002
1.415517e+003,2.470052e-002
1.417446e+003,2.491842e-002
1.419374e+003,2.518984e-002
1.421303e+003,2.538174e-002
1.423231e+003,2.547000e-002
1.425160e+003,2.549332e-002
1.427088e+003,2.545790e-002
1.429017e+003,2.533587e-002
1.430945e+003,2.511505e-002
1.432874e+003,2.488780e-002
1.434802e+003,2.465494e-002
1.436731e+003,2.436574e-002
1.438659e+003,2.407322e-002
1.440588e+003,2.384315e-002
1.442516e+003,2.364162e-002
1.444445e+003,2.344852e-002
1.446373e+003,2.329406e-002
1.448302e+003,2.316115e-002
1.450230e+003,2.305400e-002
1.452159e+003,2.289095e-002
1.454087e+003,2.270863e-002
1.456016e+003,2.249647e-002
1.457944e+003,2.223329e-002
1.459873e+003,2.198849e-002
1.461801e+003,2.175277e-002
1.463730e+003,2.146655e-002
1.465658e+003,2.113801e-002
1.467587e+003,2.064247e-002
1.469515e+003,2.005010e-002
1.471444e+003,1.944651e-002
1.473372e+003,1.885690e-002
1.475301e+003,1.831961e-002
1.477229e+003,1.792830e-002
1.479158e+003,1.766239e-002
1.481086e+003,1.746202e-002
1.483015e+003,1.735422e-002
1.484943e+003,1.733711e-002
1.486872e+003,1.739555e-002
1.488800e+003,1.750745e-002
1.490729e+003,1.763007e-002
1.492657e+003,1.782290e-002
1.494586e+003,1.807205e-002
1.496514e+003,1.832801e-002
1.498443e+003,1.853087e-002
1.500371e+003,1.876378e-002
1.502300e+003,1.898638e-002
1.504228e+003,1.915609e-002
1.506157e+003,1.928473e-002
1.508085e+003,1.947004e-002
1.510014e+003,1.966606e-002
1.511942e+003,1.981735e-002
1.513871e+003,1.989375e-002
1.515799e+003,1.988174e-002
1.517728e+003,1.973809e-002
1.519656e+003,1.955048e-002
1.521585e+003,1.935092e-002
1.523513e+003,1.919135e-002
1.525442e+003,1.905987e-002
1.527370e+003,1.896456e-002
1.529299e+003,1.895676e-002
1.531227e+003,1.894380e-002
1.533156e+003,1.892962e-002
1.535084e+003,1.892319e-002
1.537013e+003,1.893865e-002
1.538941e+003,1.896275e-002
1.540870e+003,1.892127e-002
1.542798e+003,1.893407e-002
1.544727e+003,1.894061e-002
1.546655e+003,1.888098e-002
1.548584e+003,1.883426e-002
1.550512e+003,1.881618e-002
1.552441e+003,1.877880e-002
1.554369e+003,1.876292e-002
1.556298e+003,1.875015e-002
1.558226e+003,1.870502e-002
1.560155e+003,1.869879e-002
1.562083e+003,1.874079e-002
1.564012e+003,1.877460e-002
1.565940e+003,1.889260e-002
1.567869e+003,1.901251e-002
1.569797e+003,1.907535e-002
1.571726e+003,1.919710e-002
1.573654e+003,1.940163e-002
1.575583e+003,1.963755e-002
1.577511e+003,1.992626e-002
1.579440e+003,2.021432e-002
1.581368e+003,2.049709e-002
1.583297e+003,2.080157e-002
1.585225e+003,2.117888e-002
1.587154e+003,2.153360e-002
1.589082e+003,2.178892e-002
1.591010e+003,2.208515e-002
1.592939e+003,2.238928e-002
1.594868e+003,2.260886e-002
1.596796e+003,2.279639e-002
1.598724e+003,2.296370e-002
1.600653e+003,2.312813e-002
1.602582e+003,2.328935e-002
1.604510e+003,2.341940e-002
1.606438e+003,2.355873e-002
1.608367e+003,2.370129e-002
1.610296e+003,2.384393e-002
1.612224e+003,2.408104e-002
1.614152e+003,2.436993e-002
1.616081e+003,2.467490e-002
1.618010e+003,2.492813e-002
1.619938e+003,2.516626e-002
1.621866e+003,2.539510e-002
1.623795e+003,2.555601e-002
1.625724e+003,2.564288e-002
1.627652e+003,2.566027e-002
1.629580e+003,2.564831e-002
1.631509e+003,2.555993e-002
1.633438e+003,2.541999e-002
1.635366e+003,2.520826e-002
1.637294e+003,2.508667e-002
1.639223e+003,2.498432e-002
1.641151e+003,2.485054e-002
1.643080e+003,2.475801e-002
1.645008e+003,2.468233e-002
1.646937e+003,2.452754e-002
1.648865e+003,2.440373e-002
1.650794e+003,2.425031e-002
1.652722e+003,2.412908e-002
1.654651e+003,2.399358e-002
1.656579e+003,2.367560e-002
1.658508e+003,2.328505e-002
1.660436e+003,2.286911e-002
1.662365e+003,2.248364e-002
1.664293e+003,2.207857e-002
1.666222e+003,2.164586e-002
1.668150e+003,2.117453e-002
1.670079e+003,2.076330e-002
1.672007e+003,2.040756e-002
1.673936e+003,2.003180e-002
1.675864e+003,1.973346e-002
1.677793e+003,1.947857e-002
1.679721e+003,1.914131e-002
1.681650e+003,1.884915e-002
1.683578e+003,1.860338e-002
1.685507e+003,1.833426e-002
1.687435e+003,1.803395e-002
1.689364e+003,1.782966e-002
1.691292e+003,1.763621e-002
1.693221e+003,1.740850e-002
1.695149e+003,1.724909e-002
1.697078e+003,1.709897e-002
1.699006e+003,1.693457e-002
1.700935e+003,1.682544e-002
1.702863e+003,1.674049e-002
1.704792e+003,1.670685e-002
1.706720e+003,1.670458e-002
1.708649e+003,1.680467e-002
1.710577e+003,1.694801e-002
1.712506e+003,1.713411e-002
1.714434e+003,1.729209e-002
1.716363e+003,1.740345e-002
1.718291e+003,1.758533e-002
1.720220e+003,1.783312e-002
1.722148e+003,1.796741e-002
1.724077e+003,1.806837e-002
1.726005e+003,1.815285e-002
1.727934e+003,1.820601e-002
1.729862e+003,1.823344e-002
1.731791e+003,1.819060e-002
1.733719e+003,1.807071e-002
1.735648e+003,1.786661e-002
1.737576e+003,1.760669e-002
1.739505e+003,1.721577e-002
1.741433e+003,1.682679e-002
1.743362e+003,1.648960e-002
1.745290e+003,1.608572e-002
1.747219e+003,1.562294e-002
1.749147e+003,1.522545e-002
1.751076e+003,1.491199e-002
1.753004e+003,1.462375e-002
1.754933e+003,1.434123e-002
1.756861e+003,1.413420e-002
1.758790e+003,1.388750e-002
1.760718e+003,1.368679e-002
1.762647e+003,1.351240e-002
1.764575e+003,1.329019e-002
1.766504e+003,1.314932e-002
1.768432e+003,1.305589e-002
1.770361e+003,1.296542e-002
1.772289e+003,1.292316e-002
1.774218e+003,1.286728e-002
1.776146e+003,1.277776e-002
1.778075e+003,1.273409e-002
1.780003e+003,1.268299e-002
1.781932e+003,1.267106e-002
1.783860e+003,1.268990e-002
1.785789e+003,1.270272e-002
1.787717e+003,1.266052e-002
1.789646e+003,1.265127e-002
1.791574e+003,1.261447e-002
1.793503e+003,1.263076e-002
1.795431e+003,1.268104e-002
1.797360e+003,1.269842e-002
1.799288e+003,1.272755e-002
1.801217e+003,1.273286e-002
1.803145e+003,1.273008e-002
1.805074e+003,1.271893e-002
1.807002e+003,1.269454e-002
1.808931e+003,1.272379e-002
1.810859e+003,1.277422e-002
1.812788e+003,1.279491e-002
1.814716e+003,1.284626e-002
1.816645e+003,1.288492e-002
1.818573e+003,1.288984e-002
1.820502e+003,1.293468e-002
1.822430e+003,1.302032e-002
1.824359e+003,1.304619e-002
1.826287e+003,1.310539e-002
1.828216e+003,1.314717e-002
1.830144e+003,1.316324e-002
1.832073e+003,1.310190e-002
1.834001e+003,1.304903e-002
1.835930e+003,1.298506e-002
1.837858e+003,1.293844e-002
1.839787e+003,1.297261e-002
1.841715e+003,1.308832e-002
1.843644e+003,1.302975e-002
1.845572e+003,1.292051e-002
1.847501e+003,1.300435e-002
1.849429e+003,1.317361e-002
1.851358e+003,1.324742e-002
1.853286e+003,1.311212e-002
1.855215e+003,1.303349e-002
1.857143e+003,1.307430e-002
1.859072e+003,1.301450e-002
1.861000e+003,1.302387e-002
1.862929e+003,1.303761e-002
1.864857e+003,1.296471e-002
1.866786e+003,1.296996e-002
1.868714e+003,1.305872e-002
1.870643e+003,1.292084e-002
1.872571e+003,1.285271e-002
1.874500e+003,1.289886e-002
1.876428e+003,1.285749e-002
1.878357e+003,1.283225e-002
1.880285e+003,1.281939e-002
1.882214e+003,1.282097e-002
1.884142e+003,1.276135e-002
1.886071e+003,1.260444e-002
1.887999e+003,1.265594e-002
1.889928e+003,1.269600e-002
1.891856e+003,1.261961e-002
1.893785e+003,1.270568e-002
1.895713e+003,1.261754e-002
1.897642e+003,1.252311e-002
1.899570e+003,1.267440e-002
1.901499e+003,1.257092e-002
1.903427e+003,1.254507e-002
1.905356e+003,1.244688e-002
1.907284e+003,1.214573e-002
1.909213e+003,1.218020e-002
1.911141e+003,1.227608e-002
1.913070e+003,1.219753e-002
1.914998e+003,1.212197e-002
1.916927e+003,1.226239e-002
1.918855e+003,1.247707e-002
1.920784e+003,1.228446e-002
1.922712e+003,1.216552e-002
1.924641e+003,1.201820e-002
1.926569e+003,1.168918e-002
1.928498e+003,1.182480e-002
1.930426e+003,1.188988e-002
1.932355e+003,1.164889e-002
1.934283e+003,1.171871e-002
1.936212e+003,1.181466e-002
1.938140e+003,1.149177e-002
1.940069e+003,1.140165e-002
1.941997e+003,1.157893e-002
1.943926e+003,1.135610e-002
1.945854e+003,1.093891e-002
1.947783e+003,1.070656e-002
1.949711e+003,1.079520e-002
1.951640e+003,1.041463e-002
1.953568e+003,1.056284e-002
1.955497e+003,9.972137e-003
1.957425e+003,9.572606e-003
1.959354e+003,9.545058e-003
1.961282e+003,9.598438e-003
1.963211e+003,8.882213e-003
1.965139e+003,7.856267e-003
1.967068e+003,7.795838e-003
1.968996e+003,8.102138e-003
1.970925e+003,7.696240e-003
1.972853e+003,7.306739e-003
1.974782e+003,7.118902e-003
1.976710e+003,6.143600e-003
1.978639e+003,5.088303e-003
1.980567e+003,4.919560e-003
1.982496e+003,5.728201e-003
1.984424e+003,6.517785e-003
1.986353e+003,6.342995e-003
1.988281e+003,6.892943e-003
1.990210e+003,6.779286e-003
1.992138e+003,6.230852e-003
1.994067e+003,5.654766e-003
1.995995e+003,5.767175e-003
1.997924e+003,5.567180e-003
1.999852e+003,5.355564e-003
2.001781e+003,4.422931e-003
2.003709e+003,3.661329e-003
2.005638e+003,3.549983e-003
2.007566e+003,2.485383e-003
2.009495e+003,2.317482e-003
2.011423e+003,2.691819e-003
2.013352e+003,2.591932e-003
2.015280e+003,2.569098e-003
2.017208e+003,1.834507e-003
2.019137e+003,1.324004e-003
2.021066e+003,5.225120e-004
2.022994e+003,-5.621070e-005
2.024922e+003,8.775088e-004
2.026851e+003,1.127135e-003
2.028780e+003,4.729738e-005
2.030708e+003,-1.145224e-004
2.032636e+003,3.663798e-004
2.034565e+003,6.543741e-004
2.036494e+003,1.136625e-003
2.038422e+003,1.199748e-003
2.040350e+003,1.770679e-003
2.042279e+003,2.102810e-003
2.044208e+003,1.819003e-003
2.046136e+003,2.647392e-003
2.048064e+003,3.424999e-003
2.049993e+003,3.591554e-003
2.051921e+003,4.478160e-003
2.053850e+003,5.597532e-003
2.055778e+003,5.653019e-003
2.057707e+003,5.555381e-003
2.059635e+003,5.678418e-003
2.061564e+003,5.743532e-003
2.063492e+003,5.751487e-003
2.065421e+003,5.807543e-003
2.067349e+003,6.048471e-003
2.069278e+003,5.832518e-003
2.071206e+003,5.771130e-003
2.073135e+003,6.605759e-003
2.075063e+003,6.916918e-003
2.076992e+003,6.703654e-003
2.078920e+003,6.620565e-003
2.080849e+003,7.037399e-003
2.082777e+003,7.483277e-003
2.084706e+003,7.793141e-003
2.086634e+003,7.845013e-003
2.088563e+003,7.843858e-003
2.090491e+003,7.900854e-003
2.092420e+003,8.264758e-003
2.094348e+003,8.150410e-003
2.096277e+003,8.121327e-003
2.098205e+003,7.906375e-003
2.100134e+003,8.239342e-003
2.102062e+003,8.752151e-003
2.103991e+003,8.823527e-003
2.105919e+003,8.634885e-003
2.107848e+003,8.793163e-003
2.109776e+003,8.699277e-003
2.111705e+003,8.669294e-003
2.113633e+003,8.986643e-003
2.115562e+003,8.766452e-003
2.117490e+003,8.897822e-003
2.119419e+003,9.092093e-003
2.121347e+003,9.137469e-003
2.123276e+003,9.076091e-003
2.125204e+003,9.039382e-003
2.127133e+003,9.127453e-003
2.129061e+003,8.608015e-003
2.130990e+003,8.012712e-003
2.132918e+003,7.810860e-003
2.134847e+003,7.574304e-003
2.136775e+003,7.482705e-003
2.138704e+003,7.013751e-003
2.140632e+003,6.418778e-003
2.142561e+003,6.780658e-003
2.144489e+003,6.861574e-003
2.146418e+003,5.862433e-003
2.148346e+003,4.678722e-003
2.150275e+003,3.794104e-003
2.152203e+003,4.105835e-003
2.154132e+003,3.179389e-003
2.156060e+003,6.282448e-004
2.157989e+003,-9.613465e-004
2.159917e+003,-2.216765e-003
2.161846e+003,-3.654803e-004
2.163774e+003,1.200082e-003
2.165703e+003,1.934392e-003
2.167631e+003,2.732861e-003
2.169560e+003,3.301769e-003
2.171488e+003,2.801187e-003
2.173417e+003,2.969262e-003
2.175345e+003,3.314623e-003
2.177274e+003,3.442717e-003
2.179202e+003,3.558590e-003
2.181131e+003,3.176352e-003
2.183059e+003,2.813993e-003
2.184988e+003,3.813123e-003
2.186916e+003,3.663566e-003
2.188845e+003,3.467867e-003
2.190773e+003,3.968549e-003
2.192702e+003,4.352590e-003
2.194630e+003,4.679626e-003
2.196559e+003,4.795896e-003
2.198487e+003,5.249884e-003
2.200416e+003,5.614987e-003
2.202344e+003,5.259878e-003
2.204273e+003,5.377108e-003
2.206201e+003,5.624989e-003
2.208130e+003,5.579677e-003
2.210058e+003,5.839865e-003
2.211987e+003,6.092748e-003
2.213915e+003,6.579345e-003
2.215844e+003,7.101850e-003
2.217772e+003,6.723481e-003
2.219701e+003,6.706656e-003
2.221629e+003,7.213683e-003
2.223558e+003,7.262198e-003
2.225486e+003,7.160289e-003
2.227415e+003,7.653716e-003
2.229343e+003,7.863794e-003
2.231272e+003,7.721436e-003
2.233200e+003,8.067844e-003
2.235129e+003,8.403049e-003
2.237057e+003,8.463805e-003
2.238986e+003,8.369247e-003
2.240914e+003,8.612687e-003
2.242843e+003,8.538565e-003
2.244771e+003,8.903048e-003
2.246700e+003,9.068622e-003
2.248628e+003,9.283929e-003
2.250557e+003,9.436373e-003
2.252485e+003,9.568426e-003
2.254414e+003,9.880646e-003
2.256342e+003,9.923813e-003
2.258271e+003,9.985541e-003
2.260199e+003,1.009382e-002
2.262128e+003,1.007246e-002
2.264056e+003,1.022737e-002
2.265985e+003,1.051636e-002
2.267913e+003,1.025153e-002
2.269842e+003,1.036337e-002
2.271770e+003,1.082598e-002
2.273699e+003,1.073991e-002
2.275627e+003,1.072055e-002
2.277556e+003,1.078061e-002
2.279484e+003,1.083481e-002
2.281413e+003,1.113687e-002
2.283341e+003,1.114197e-002
2.285270e+003,1.126838e-002
2.287198e+003,1.131548e-002
2.289127e+003,1.118808e-002
2.291055e+003,1.122686e-002
2.292984e+003,1.129382e-002
2.294912e+003,1.128073e-002
2.296841e+003,1.136670e-002
2.298769e+003,1.154890e-002
2.300698e+003,1.173547e-002
2.302626e+003,1.211551e-002
2.304555e+003,1.211940e-002
2.306483e+003,1.203438e-002
2.308412e+003,1.206261e-002
2.310340e+003,1.208994e-002
2.312269e+003,1.211883e-002
2.314197e+003,1.210271e-002
2.316125e+003,1.226992e-002
2.318054e+003,1.243524e-002
2.319983e+003,1.257357e-002
2.321911e+003,1.246856e-002
2.323840e+003,1.217984e-002
2.325768e+003,1.165324e-002
2.327697e+003,1.123317e-002
2.329625e+003,1.079276e-002
2.331553e+003,1.071038e-002
2.333482e+003,1.059369e-002
2.335411e+003,1.056096e-002
2.337339e+003,1.091602e-002
2.339268e+003,1.121076e-002
2.341196e+003,1.119714e-002
2.343125e+003,1.130671e-002
2.345053e+003,1.121997e-002
2.346981e+003,1.131785e-002
2.348910e+003,1.132335e-002
2.350839e+003,1.131584e-002
2.352767e+003,1.137702e-002
2.354696e+003,1.160624e-002
2.356624e+003,1.175702e-002
2.358552e+003,1.215745e-002
2.360481e+003,1.213313e-002
2.362409e+003,1.185617e-002
2.364338e+003,1.161765e-002
2.366267e+003,1.225876e-002
2.368195e+003,1.242901e-002
2.370124e+003,1.232988e-002
2.372052e+003,1.204902e-002
2.373980e+003,1.185756e-002
2.375909e+003,1.192129e-002
2.377838e+003,1.202410e-002
2.379766e+003,1.218025e-002
2.381695e+003,1.238480e-002
2.383623e+003,1.258480e-002
2.385552e+003,1.260159e-002
2.387480e+003,1.265671e-002
2.389408e+003,1.275037e-002
2.391337e+003,1.288836e-002
2.393266e+003,1.294270e-002
2.395194e+003,1.290320e-002
2.397123e+003,1.294967e-002
2.399051e+003,1.307756e-002
2.400979e+003,1.314991e-002
2.402908e+003,1.303132e-002
2.404836e+003,1.296396e-002
2.406765e+003,1.303203e-002
2.408694e+003,1.312099e-002
2.410622e+003,1.309923e-002
2.412551e+003,1.306696e-002
2.414479e+003,1.311139e-002
2.416407e+003,1.320422e-002
2.418336e+003,1.320145e-002
2.420264e+003,1.330352e-002
2.422193e+003,1.352757e-002
2.424122e+003,1.365929e-002
2.426050e+003,1.367352e-002
2.427979e+003,1.376417e-002
2.429907e+003,1.395697e-002
2.431835e+003,1.406104e-002
2.433764e+003,1.405984e-002
2.435692e+003,1.409249e-002
2.437621e+003,1.412918e-002
2.439550e+003,1.431523e-002
2.441478e+003,1.443774e-002
2.443406e+003,1.436026e-002
2.445335e+003,1.421603e-002
2.447263e+003,1.431618e-002
2.449192e+003,1.417159e-002
2.451121e+003,1.401600e-002
2.453049e+003,1.405388e-002
2.454978e+003,1.400806e-002
2.456906e+003,1.390818e-002
2.458834e+003,1.381158e-002
2.460763e+003,1.394941e-002
2.462691e+003,1.396546e-002
2.464620e+003,1.388191e-002
2.466549e+003,1.393412e-002
2.468477e+003,1.393353e-002
2.470406e+003,1.390757e-002
2.472334e+003,1.401336e-002
2.474262e+003,1.395252e-002
2.476191e+003,1.379164e-002
2.478119e+003,1.380275e-002
2.480048e+003,1.394510e-002
2.481977e+003,1.392430e-002
2.483905e+003,1.384257e-002
2.485833e+003,1.391266e-002
2.487762e+003,1.405012e-002
2.489690e+003,1.409054e-002
2.491619e+003,1.397138e-002
2.493547e+003,1.396614e-002
2.495476e+003,1.396453e-002
2.497405e+003,1.392652e-002
2.499333e+003,1.399369e-002
2.501261e+003,1.397305e-002
2.503190e+003,1.393744e-002
2.505118e+003,1.389884e-002
2.507047e+003,1.384811e-002
2.508975e+003,1.386764e-002
2.510904e+003,1.388581e-002
2.512833e+003,1.384914e-002
2.514761e+003,1.390671e-002
2.516689e+003,1.396375e-002
2.518618e+003,1.404615e-002
2.520546e+003,1.407028e-002
2.522475e+003,1.414975e-002
2.524403e+003,1.404433e-002
2.526332e+003,1.394116e-002
2.528260e+003,1.389775e-002
2.530189e+003,1.406826e-002
2.532117e+003,1.414024e-002
2.534046e+003,1.414722e-002
2.535974e+003,1.419292e-002
2.537903e+003,1.419056e-002
2.539831e+003,1.426424e-002
2.541760e+003,1.421244e-002
2.543688e+003,1.420898e-002
2.545617e+003,1.419172e-002
2.547545e+003,1.417765e-002
2.549474e+003,1.430396e-002
2.551402e+003,1.442582e-002
2.553331e+003,1.434372e-002
2.555259e+003,1.424020e-002
2.557188e+003,1.422702e-002
2.559116e+003,1.429495e-002
2.561045e+003,1.431718e-002
2.562973e+003,1.452804e-002
2.564902e+003,1.463529e-002
2.566830e+003,1.455692e-002
2.568759e+003,1.453304e-002
2.570687e+003,1.448837e-002
2.572616e+003,1.458015e-002
2.574544e+003,1.460380e-002
2.576473e+003,1.463549e-002
2.578401e+003,1.462031e-002
2.580330e+003,1.463652e-002
2.582258e+003,1.459372e-002
2.584187e+003,1.445945e-002
2.586115e+003,1.450834e-002
2.588044e+003,1.464249e-002
2.589972e+003,1.463495e-002
2.591901e+003,1.462443e-002
2.593829e+003,1.457618e-002
2.595758e+003,1.466905e-002
2.597686e+003,1.469996e-002
2.599615e+003,1.472964e-002
2.601543e+003,1.472083e-002
2.603472e+003,1.464177e-002
2.605400e+003,1.460650e-002
2.607329e+003,1.456675e-002
2.609257e+003,1.459602e-002
2.611186e+003,1.457518e-002
2.613114e+003,1.460568e-002
2.615043e+003,1.461240e-002
2.616971e+003,1.461706e-002
2.618900e+003,1.469448e-002
2.620828e+003,1.477554e-002
2.622757e+003,1.476807e-002
2.624685e+003,1.475494e-002
2.626614e+003,1.480873e-002
2.628542e+003,1.489016e-002
2.630471e+003,1.494537e-002
2.632399e+003,1.497654e-002
2.634328e+003,1.503372e-002
2.636256e+003,1.513063e-002
2.638185e+003,1.515022e-002
2.640113e+003,1.511653e-002
2.642042e+003,1.512802e-002
2.643970e+003,1.518227e-002
2.645899e+003,1.523933e-002
2.647827e+003,1.526923e-002
2.649756e+003,1.529123e-002
2.651684e+003,1.536890e-002
2.653613e+003,1.544254e-002
2.655541e+003,1.550462e-002
2.657470e+003,1.559782e-002
2.659398e+003,1.566906e-002
2.661327e+003,1.570754e-002
2.663255e+003,1.578742e-002
2.665184e+003,1.583109e-002
2.667112e+003,1.590543e-002
2.669041e+003,1.594375e-002
2.670969e+003,1.596201e-002
2.672898e+003,1.605349e-002
2.674826e+003,1.612982e-002
2.676755e+003,1.613102e-002
2.678683e+003,1.618691e-002
2.680612e+003,1.626657e-002
2.682540e+003,1.632629e-002
2.684469e+003,1.638898e-002
2.686397e+003,1.639046e-002
2.688326e+003,1.641764e-002
2.690254e+003,1.648437e-002
2.692183e+003,1.654701e-002
2.694111e+003,1.659238e-002
2.696040e+003,1.667118e-002
2.697968e+003,1.670141e-002
2.699897e+003,1.675169e-002
2.701825e+003,1.681075e-002
2.703754e+003,1.686710e-002
2.705682e+003,1.689886e-002
2.707611e+003,1.697104e-002
2.709539e+003,1.702179e-002
2.711468e+003,1.702620e-002
2.713396e+003,1.706121e-002
2.715325e+003,1.704960e-002
2.717253e+003,1.705629e-002
2.719182e+003,1.711322e-002
2.721110e+003,1.711736e-002
2.723039e+003,1.711963e-002
2.724967e+003,1.710478e-002
2.726896e+003,1.710636e-002
2.728824e+003,1.713456e-002
2.730753e+003,1.712463e-002
2.732681e+003,1.711601e-002
2.734610e+003,1.715183e-002
2.736538e+003,1.717420e-002
2.738467e+003,1.714883e-002
2.740395e+003,1.713108e-002
2.742324e+003,1.714931e-002
2.744252e+003,1.718267e-002
2.746181e+003,1.718733e-002
2.748109e+003,1.718630e-002
2.750038e+003,1.723959e-002
2.751966e+003,1.724897e-002
2.753895e+003,1.724200e-002
2.755823e+003,1.725104e-002
2.757752e+003,1.724873e-002
2.759680e+003,1.727759e-002
2.761609e+003,1.732179e-002
2.763537e+003,1.740414e-002
2.765466e+003,1.741925e-002
2.767394e+003,1.737476e-002
2.769323e+003,1.737041e-002
2.771251e+003,1.741321e-002
2.773180e+003,1.750034e-002
2.775108e+003,1.754326e-002
2.777037e+003,1.755499e-002
2.778965e+003,1.754346e-002
2.780894e+003,1.756009e-002
2.782822e+003,1.757238e-002
2.784750e+003,1.760798e-002
2.786679e+003,1.764304e-002
2.788608e+003,1.772111e-002
2.790536e+003,1.773581e-002
2.792465e+003,1.774095e-002
2.794393e+003,1.781599e-002
2.796322e+003,1.785249e-002
2.798250e+003,1.787089e-002
2.800178e+003,1.790396e-002
2.802107e+003,1.793383e-002
2.804036e+003,1.802531e-002
2.805964e+003,1.809208e-002
2.807893e+003,1.812023e-002
2.809821e+003,1.813136e-002
2.811750e+003,1.817237e-002
2.813678e+003,1.826055e-002
2.815606e+003,1.832680e-002
2.817535e+003,1.836250e-002
2.819464e+003,1.842372e-002
2.821392e+003,1.858768e-002
2.823321e+003,1.870117e-002
2.825249e+003,1.869715e-002
2.827177e+003,1.878042e-002
2.829106e+003,1.884987e-002
2.831034e+003,1.891579e-002
2.832963e+003,1.904432e-002
2.834892e+003,1.913724e-002
2.836820e+003,1.922666e-002
2.838749e+003,1.933373e-002
2.840677e+003,1.944390e-002
2.842605e+003,1.958800e-002
2.844534e+003,1.973483e-002
2.846462e+003,1.986751e-002
2.848391e+003,2.002761e-002
2.850320e+003,2.015525e-002
2.852248e+003,2.022734e-002
2.854177e+003,2.033122e-002
2.856105e+003,2.040185e-002
2.858033e+003,2.043648e-002
2.859962e+003,2.053418e-002
2.861890e+003,2.069116e-002
2.863819e+003,2.078552e-002
2.865748e+003,2.089888e-002
2.867676e+003,2.102309e-002
2.869604e+003,2.110900e-002
2.871533e+003,2.112040e-002
2.873461e+003,2.114709e-002
2.875390e+003,2.115846e-002
2.877319e+003,2.118466e-002
2.879247e+003,2.120108e-002
2.881176e+003,2.121510e-002
2.883104e+003,2.131264e-002
2.885032e+003,2.141552e-002
2.886961e+003,2.138712e-002
2.888889e+003,2.139039e-002
2.890818e+003,2.146763e-002
2.892747e+003,2.146429e-002
2.894675e+003,2.149855e-002
2.896604e+003,2.155711e-002
2.898532e+003,2.153740e-002
2.900460e+003,2.154381e-002
2.902389e+003,2.148904e-002
2.904317e+003,2.147143e-002
2.906246e+003,2.145506e-002
2.908175e+003,2.144542e-002
2.910103e+003,2.143842e-002
2.912031e+003,2.141009e-002
2.913960e+003,2.138378e-002
2.915888e+003,2.131963e-002
2.917817e+003,2.123218e-002
2.919745e+003,2.108983e-002
2.921674e+003,2.109898e-002
2.923603e+003,2.115220e-002
2.925531e+003,2.103272e-002
2.927459e+003,2.094592e-002
2.929388e+003,2.091981e-002
2.931316e+003,2.078315e-002
2.933245e+003,2.061760e-002
2.935173e+003,2.053717e-002
2.937102e+003,2.049062e-002
2.939031e+003,2.043776e-002
2.940959e+003,2.033889e-002
2.942887e+003,2.022609e-002
2.944816e+003,2.006301e-002
2.946744e+003,1.996370e-002
2.948673e+003,1.985856e-002
2.950601e+003,1.969714e-002
2.952530e+003,1.960211e-002
2.954458e+003,1.953068e-002
2.956387e+003,1.938943e-002
2.958315e+003,1.930324e-002
2.960244e+003,1.926015e-002
2.962172e+003,1.918416e-002
2.964101e+003,1.905384e-002
2.966029e+003,1.897955e-002
2.967958e+003,1.893985e-002
2.969886e+003,1.879807e-002
2.971815e+003,1.872559e-002
2.973743e+003,1.874226e-002
2.975672e+003,1.863081e-002
2.977600e+003,1.852800e-002
2.979529e+003,1.850777e-002
2.981457e+003,1.845705e-002
2.983386e+003,1.838266e-002
2.985314e+003,1.832186e-002
2.987243e+003,1.827019e-002
2.989171e+003,1.822167e-002
2.991100e+003,1.822295e-002
2.993028e+003,1.823912e-002
2.994957e+003,1.824711e-002
2.996885e+003,1.823588e-002
2.998814e+003,1.821010e-002
3.000742e+003,1.818944e-002
3.002671e+003,1.818453e-002
3.004599e+003,1.821656e-002
3.006528e+003,1.825450e-002
3.008456e+003,1.829276e-002
3.010385e+003,1.828820e-002
3.012313e+003,1.827060e-002
3.014242e+003,1.833077e-002
3.016170e+003,1.840308e-002
3.018099e+003,1.842887e-002
3.020027e+003,1.847295e-002
3.021956e+003,1.844654e-002
3.023884e+003,1.847620e-002
3.025813e+003,1.853716e-002
3.027741e+003,1.858509e-002
3.029670e+003,1.859816e-002
3.031598e+003,1.859336e-002
3.033527e+003,1.864430e-002
3.035455e+003,1.865606e-002
3.037384e+003,1.866751e-002
3.039312e+003,1.878527e-002
3.041241e+003,1.890617e-002
3.043169e+003,1.895373e-002
3.045098e+003,1.900568e-002
3.047026e+003,1.909445e-002
3.048955e+003,1.909057e-002
3.050883e+003,1.911058e-002
3.052812e+003,1.911737e-002
3.054740e+003,1.921021e-002
3.056669e+003,1.927366e-002
3.058597e+003,1.928963e-002
3.060526e+003,1.937104e-002
3.062454e+003,1.941383e-002
3.064383e+003,1.947169e-002
3.066311e+003,1.958811e-002
3.068240e+003,1.963869e-002
3.070168e+003,1.965890e-002
3.072097e+003,1.962818e-002
3.074025e+003,1.963668e-002
3.075954e+003,1.976180e-002
3.077882e+003,1.985992e-002
3.079811e+003,1.990418e-002
3.081739e+003,1.986873e-002
3.083668e+003,1.995024e-002
3.085596e+003,2.000381e-002
3.087525e+003,2.008407e-002
3.089453e+003,2.015317e-002
3.091382e+003,2.015577e-002
3.093310e+003,2.017486e-002
3.095239e+003,2.022040e-002
3.097167e+003,2.024429e-002
3.099096e+003,2.033330e-002
3.101024e+003,2.039602e-002
3.102953e+003,2.047947e-002
3.104881e+003,2.056357e-002
3.106810e+003,2.062941e-002
3.108738e+003,2.069241e-002
3.110667e+003,2.076046e-002
3.112595e+003,2.079244e-002
3.114524e+003,2.084489e-002
3.116452e+003,2.090458e-002
3.118381e+003,2.099172e-002
3.120309e+003,2.112872e-002
3.122238e+003,2.118730e-002
3.124166e+003,2.120605e-002
3.126095e+003,2.132520e-002
3.128023e+003,2.142509e-002
3.129952e+003,2.145715e-002
3.131880e+003,2.157278e-002
3.133809e+003,2.165622e-002
3.135737e+003,2.163814e-002
3.137666e+003,2.173804e-002
3.139594e+003,2.175835e-002
3.141523e+003,2.181336e-002
3.143451e+003,2.189287e-002
3.145380e+003,2.198599e-002
3.147308e+003,2.207596e-002
3.149237e+003,2.218820e-002
3.151165e+003,2.227308e-002
3.153094e+003,2.233499e-002
3.155022e+003,2.240316e-002
3.156951e+003,2.256245e-002
3.158879e+003,2.274872e-002
3.160808e+003,2.277425e-002
3.162736e+003,2.282111e-002
3.164665e+003,2.287346e-002
3.166593e+003,2.291915e-002
3.168522e+003,2.298489e-002
3.170450e+003,2.311539e-002
3.172379e+003,2.321860e-002
3.174307e+003,2.329805e-002
3.176236e+003,2.341683e-002
3.178164e+003,2.354624e-002
3.180093e+003,2.358146e-002
3.182021e+003,2.367855e-002
3.183950e+003,2.381742e-002
3.185878e+003,2.392030e-002
3.187807e+003,2.403522e-002
3.189735e+003,2.420040e-002
3.191664e+003,2.430306e-002
3.193592e+003,2.431308e-002
3.195521e+003,2.437192e-002
3.197449e+003,2.455623e-002
3.199378e+003,2.465473e-002
3.201306e+003,2.477399e-002
3.203235e+003,2.479209e-002
3.205163e+003,2.481591e-002
3.207092e+003,2.511295e-002
3.209020e+003,2.525396e-002
3.210948e+003,2.532062e-002
3.212877e+003,2.536238e-002
3.214806e+003,2.548285e-002
3.216734e+003,2.558296e-002
3.218663e+003,2.558778e-002
3.220591e+003,2.574757e-002
3.222520e+003,2.593469e-002
3.224448e+003,2.604923e-002
3.226376e+003,2.603843e-002
3.228305e+003,2.613410e-002
3.230234e+003,2.629649e-002
3.232162e+003,2.636827e-002
3.234091e+003,2.649803e-002
3.236019e+003,2.662611e-002
3.237948e+003,2.679172e-002
3.239876e+003,2.695823e-002
3.241804e+003,2.706303e-002
3.243733e+003,2.718217e-002
3.245662e+003,2.737484e-002
3.247590e+003,2.743752e-002
3.249519e+003,2.754508e-002
3.251447e+003,2.761410e-002
3.253375e+003,2.777818e-002
3.255304e+003,2.794825e-002
3.257232e+003,2.806923e-002
3.259161e+003,2.824709e-002
3.261090e+003,2.838410e-002
3.263018e+003,2.844742e-002
3.264947e+003,2.848800e-002
3.266875e+003,2.862402e-002
3.268803e+003,2.869057e-002
3.270732e+003,2.878724e-002
3.272660e+003,2.893179e-002
3.274589e+003,2.900947e-002
3.276518e+003,2.905010e-002
3.278446e+003,2.909286e-002
3.280375e+003,2.917319e-002
3.282303e+003,2.925760e-002
3.284231e+003,2.922280e-002
3.286160e+003,2.915883e-002
3.288088e+003,2.928490e-002
3.290017e+003,2.940922e-002
3.291946e+003,2.940624e-002
3.293874e+003,2.937043e-002
3.295802e+003,2.942252e-002
3.297731e+003,2.945244e-002
3.299659e+003,2.952447e-002
3.301588e+003,2.955695e-002
3.303516e+003,2.947102e-002
3.305445e+003,2.949003e-002
3.307374e+003,2.954181e-002
3.309302e+003,2.954848e-002
3.311230e+003,2.961963e-002
3.313159e+003,2.974419e-002
3.315087e+003,2.982911e-002
3.317016e+003,2.985512e-002
3.318944e+003,2.988480e-002
3.320873e+003,2.992154e-002
3.322802e+003,2.997876e-002
3.324730e+003,3.005258e-002
3.326658e+003,3.006692e-002
3.328587e+003,3.003681e-002
3.330515e+003,3.004619e-002
3.332444e+003,3.008521e-002
3.334372e+003,3.007377e-002
3.336301e+003,3.013777e-002
3.338229e+003,3.012630e-002
3.340158e+003,3.007807e-002
3.342086e+003,3.010005e-002
3.344015e+003,3.003621e-002
3.345943e+003,3.001178e-002
3.347872e+003,3.006934e-002
3.349800e+003,2.995274e-002
3.351729e+003,2.984962e-002
3.353657e+003,2.977865e-002
3.355586e+003,2.972436e-002
3.357514e+003,2.966752e-002
3.359443e+003,2.957469e-002
3.361371e+003,2.949067e-002
3.363300e+003,2.943479e-002
3.365229e+003,2.943716e-002
3.367157e+003,2.935487e-002
3.369085e+003,2.925388e-002
3.371014e+003,2.917928e-002
3.372942e+003,2.909888e-002
3.374871e+003,2.897978e-002
3.376799e+003,2.891805e-002
3.378728e+003,2.887421e-002
3.380656e+003,2.885176e-002
3.382585e+003,2.885204e-002
3.384513e+003,2.881645e-002
3.386442e+003,2.868660e-002
3.388370e+003,2.860194e-002
3.390299e+003,2.856960e-002
3.392227e+003,2.854666e-002
3.394156e+003,2.847555e-002
3.396084e+003,2.844678e-002
3.398013e+003,2.834060e-002
3.399941e+003,2.818143e-002
3.401870e+003,2.804951e-002
3.403798e+003,2.795331e-002
3.405727e+003,2.790172e-002
3.407655e+003,2.779482e-002
3.409584e+003,2.759327e-002
3.411512e+003,2.746938e-002
3.413441e+003,2.746326e-002
3.415369e+003,2.737551e-002
3.417298e+003,2.721291e-002
3.419226e+003,2.708141e-002
3.421155e+003,2.698106e-002
3.423083e+003,2.684226e-002
3.425012e+003,2.672966e-002
3.426940e+003,2.659944e-002
3.428869e+003,2.639896e-002
3.430797e+003,2.616906e-002
3.432726e+003,2.604667e-002
3.434654e+003,2.593404e-002
3.436583e+003,2.588788e-002
3.438511e+003,2.579544e-002
3.440440e+003,2.564556e-002
3.442368e+003,2.547234e-002
3.444297e+003,2.526829e-002
3.446225e+003,2.494910e-002
3.448154e+003,2.477482e-002
3.450082e+003,2.467498e-002
3.452011e+003,2.446078e-002
3.453939e+003,2.429219e-002
3.455868e+003,2.414961e-002
3.457796e+003,2.395253e-002
3.459725e+003,2.378537e-002
3.461653e+003,2.364777e-002
3.463582e+003,2.352447e-002
3.465510e+003,2.338088e-002
3.467439e+003,2.322125e-002
3.469367e+003,2.298984e-002
3.471296e+003,2.282310e-002
3.473224e+003,2.266419e-002
3.475153e+003,2.243994e-002
3.477081e+003,2.223821e-002
3.479010e+003,2.215162e-002
3.480938e+003,2.196888e-002
3.482867e+003,2.191686e-002
3.484795e+003,2.177313e-002
3.486724e+003,2.157055e-002
3.488652e+003,2.144827e-002
3.490581e+003,2.127341e-002
3.492509e+003,2.113489e-002
3.494438e+003,2.103570e-002
3.496366e+003,2.098499e-002
3.498295e+003,2.086402e-002
3.500223e+003,2.071307e-002
3.502152e+003,2.060042e-002
3.504080e+003,2.045881e-002
3.506009e+003,2.019849e-002
3.507937e+003,2.001072e-002
3.509866e+003,1.995996e-002
3.511794e+003,1.982347e-002
3.513723e+003,1.958737e-002
3.515651e+003,1.949644e-002
3.517580e+003,1.945855e-002
3.519508e+003,1.934496e-002
3.521437e+003,1.927555e-002
3.523365e+003,1.909175e-002
3.525294e+003,1.896711e-002
3.527222e+003,1.888554e-002
3.529151e+003,1.872644e-002
3.531079e+003,1.850770e-002
3.533008e+003,1.845015e-002
3.534936e+003,1.845932e-002
3.536865e+003,1.839011e-002
3.538793e+003,1.819038e-002
3.540722e+003,1.796369e-002
3.542650e+003,1.791243e-002
3.544579e+003,1.789055e-002
3.546507e+003,1.783138e-002
3.548436e+003,1.766694e-002
3.550364e+003,1.742320e-002
3.552293e+003,1.736796e-002
3.554221e+003,1.735243e-002
3.556150e+003,1.727998e-002
3.558078e+003,1.715510e-002
3.560007e+003,1.710404e-002
3.561935e+003,1.698224e-002
3.563864e+003,1.694360e-002
3.565792e+003,1.688499e-002
3.567721e+003,1.679829e-002
3.569649e+003,1.678856e-002
3.571578e+003,1.669974e-002
3.573506e+003,1.660884e-002
3.575435e+003,1.660622e-002
3.577363e+003,1.657067e-002
3.579292e+003,1.657709e-002
3.581220e+003,1.649084e-002
3.583149e+003,1.637173e-002
3.585077e+003,1.635074e-002
3.587006e+003,1.641440e-002
3.588934e+003,1.653274e-002
3.590863e+003,1.648208e-002
3.592791e+003,1.636093e-002
3.594720e+003,1.627985e-002
3.596648e+003,1.621337e-002
3.598577e+003,1.615832e-002
3.600505e+003,1.622939e-002
3.602434e+003,1.613894e-002
3.604362e+003,1.592155e-002
3.606291e+003,1.568846e-002
3.608219e+003,1.539442e-002
3.610148e+003,1.512136e-002
3.612076e+003,1.498116e-002
3.614005e+003,1.493346e-002
3.615933e+003,1.503464e-002
3.617862e+003,1.528547e-002
3.619790e+003,1.554027e-002
3.621719e+003,1.577470e-002
3.623647e+003,1.587068e-002
3.625576e+003,1.573650e-002
3.627504e+003,1.558288e-002
3.629433e+003,1.547369e-002
3.631361e+003,1.531302e-002
3.633290e+003,1.519021e-002
3.635218e+003,1.502032e-002
3.637146e+003,1.471311e-002
3.639075e+003,1.434708e-002
3.641004e+003,1.420865e-002
3.642932e+003,1.414193e-002
3.644861e+003,1.404034e-002
3.646789e+003,1.392290e-002
3.648718e+003,1.384261e-002
3.650646e+003,1.373432e-002
3.652574e+003,1.372898e-002
3.654503e+003,1.361278e-002
3.656432e+003,1.355073e-002
3.658360e+003,1.356746e-002
3.660289e+003,1.358021e-002
3.662217e+003,1.350352e-002
3.664146e+003,1.348879e-002
3.666074e+003,1.356051e-002
3.668002e+003,1.356063e-002
3.669931e+003,1.361288e-002
3.671860e+003,1.366576e-002
3.673788e+003,1.373772e-002
3.675717e+003,1.378541e-002
3.677645e+003,1.379062e-002
3.679573e+003,1.383894e-002
3.681502e+003,1.387740e-002
3.683430e+003,1.392245e-002
3.685359e+003,1.402282e-002
3.687288e+003,1.411980e-002
3.689216e+003,1.443993e-002
3.691145e+003,1.457439e-002
3.693073e+003,1.462269e-002
3.695001e+003,1.473375e-002
3.696930e+003,1.489617e-002
3.698858e+003,1.497509e-002
3.700787e+003,1.497907e-002
3.702716e+003,1.505476e-002
3.704644e+003,1.514340e-002
3.706573e+003,1.496227e-002
3.708501e+003,1.470398e-002
3.710429e+003,1.445183e-002
3.712358e+003,1.411393e-002
3.714286e+003,1.387388e-002
3.716215e+003,1.411666e-002
3.718144e+003,1.438129e-002
3.720072e+003,1.463356e-002
3.722000e+003,1.499652e-002
3.723929e+003,1.525261e-002
3.725857e+003,1.544755e-002
3.727786e+003,1.564119e-002
3.729714e+003,1.564102e-002
3.731643e+003,1.542752e-002
3.733572e+003,1.509432e-002
3.735500e+003,1.489164e-002
3.737428e+003,1.469612e-002
3.739357e+003,1.432648e-002
3.741285e+003,1.405331e-002
3.743214e+003,1.386612e-002
3.745142e+003,1.364823e-002
3.747071e+003,1.348834e-002
3.749000e+003,1.347164e-002
3.750928e+003,1.339362e-002
3.752856e+003,1.333817e-002
3.754785e+003,1.331206e-002
3.756713e+003,1.331557e-002
3.758642e+003,1.331763e-002
3.760570e+003,1.334395e-002
3.762499e+003,1.344134e-002
3.764427e+003,1.360991e-002
3.766356e+003,1.349575e-002
3.768284e+003,1.341904e-002
3.770213e+003,1.341383e-002
3.772141e+003,1.335082e-002
3.774070e+003,1.347302e-002
3.775998e+003,1.357529e-002
3.777927e+003,1.357864e-002
3.779855e+003,1.357222e-002
3.781784e+003,1.354938e-002
3.783712e+003,1.361666e-002
3.785641e+003,1.365390e-002
3.787569e+003,1.362773e-002
3.789498e+003,1.361910e-002
3.791426e+003,1.360240e-002
3.793355e+003,1.361226e-002
3.795283e+003,1.365179e-002
3.797212e+003,1.369266e-002
3.799140e+003,1.373386e-002
3.801069e+003,1.383100e-002
3.802997e+003,1.387910e-002
3.804926e+003,1.388637e-002
3.806854e+003,1.382355e-002
3.808783e+003,1.390973e-002
3.810711e+003,1.397719e-002
3.812640e+003,1.392615e-002
3.814568e+003,1.395857e-002
3.816497e+003,1.399582e-002
3.818425e+003,1.393577e-002
3.820354e+003,1.386701e-002
3.822282e+003,1.392212e-002
3.824211e+003,1.395992e-002
3.826139e+003,1.394795e-002
3.828068e+003,1.401418e-002
3.829996e+003,1.410571e-002
3.831925e+003,1.413815e-002
3.833853e+003,1.413217e-002
3.835782e+003,1.411008e-002
3.837710e+003,1.407821e-002
3.839639e+003,1.410031e-002
3.841567e+003,1.413945e-002
3.843496e+003,1.420982e-002
3.845424e+003,1.419605e-002
3.847353e+003,1.417370e-002
3.849281e+003,1.414566e-002
3.851210e+003,1.413481e-002
3.853138e+003,1.419811e-002
3.855067e+003,1.426264e-002
3.856995e+003,1.423946e-002
3.858924e+003,1.423389e-002
3.860852e+003,1.431463e-002
3.862781e+003,1.427637e-002
3.864709e+003,1.428187e-002
3.866638e+003,1.429286e-002
3.868566e+003,1.421019e-002
3.870495e+003,1.431469e-002
3.872423e+003,1.427070e-002
3.874352e+003,1.427656e-002
3.876280e+003,1.428628e-002
3.878209e+003,1.431464e-002
3.880137e+003,1.436928e-002
3.882066e+003,1.438389e-002
3.883994e+003,1.443963e-002
3.885923e+003,1.448165e-002
3.887851e+003,1.438565e-002
3.889780e+003,1.432342e-002
3.891708e+003,1.441175e-002
3.893637e+003,1.440983e-002
3.895565e+003,1.446137e-002
3.897494e+003,1.449322e-002
3.899422e+003,1.444878e-002
3.901351e+003,1.450632e-002
3.903279e+003,1.460980e-002
3.905208e+003,1.456572e-002
3.907136e+003,1.449774e-002
3.909065e+003,1.442341e-002
3.910993e+003,1.451388e-002
3.912922e+003,1.459769e-002
3.914850e+003,1.457247e-002
3.916779e+003,1.460343e-002
3.918707e+003,1.457806e-002
3.920636e+003,1.459449e-002
3.922564e+003,1.460219e-002
3.924493e+003,1.464212e-002
3.926421e+003,1.462757e-002
3.928350e+003,1.464009e-002
3.930278e+003,1.453737e-002
3.932207e+003,1.456357e-002
3.934135e+003,1.460640e-002
3.936064e+003,1.465783e-002
3.937992e+003,1.467645e-002
3.939921e+003,1.463904e-002
3.941849e+003,1.455629e-002
3.943778e+003,1.462488e-002
3.945706e+003,1.471047e-002
3.947635e+003,1.473398e-002
3.949563e+003,1.471602e-002
3.951492e+003,1.468139e-002
3.953420e+003,1.474157e-002
3.955349e+003,1.476405e-002
3.957277e+003,1.482065e-002
3.959206e+003,1.481232e-002
3.961134e+003,1.479058e-002
3.963063e+003,1.471297e-002
3.964991e+003,1.469659e-002
3.966920e+003,1.476608e-002
3.968848e+003,1.467860e-002
3.970777e+003,1.466243e-002
3.972705e+003,1.473010e-002
3.974634e+003,1.481824e-002
3.976562e+003,1.482677e-002
3.978491e+003,1.476133e-002
3.980419e+003,1.478196e-002
3.982348e+003,1.476150e-002
3.984276e+003,1.487053e-002
3.986205e+003,1.490140e-002
3.988133e+003,1.488589e-002
3.990062e+003,1.484735e-002
3.991990e+003,1.487110e-002
3.993919e+003,1.492332e-002
3.995847e+003,1.489895e-002
3.997776e+003,1.477500e-002
3.999704e+003,1.477499e-002
4.001633e+003,0.000000e+000
