3.991989e+002,4.249854e-002
4.011274e+002,4.515230e-002
4.030559e+002,4.515230e-002
4.049844e+002,4.686750e-002
4.069129e+002,4.856557e-002
4.088414e+002,4.791216e-002
4.107699e+002,4.694254e-002
4.126984e+002,4.811847e-002
4.146269e+002,5.016688e-002
4.165554e+002,5.085682e-002
4.184839e+002,5.144894e-002
4.204124e+002,5.194847e-002
4.223409e+002,5.287082e-002
4.242694e+002,5.302584e-002
4.261979e+002,5.308680e-002
4.281264e+002,5.384595e-002
4.300549e+002,5.421356e-002
4.319834e+002,5.483263e-002
4.339119e+002,5.534608e-002
4.358404e+002,5.455722e-002
4.377689e+002,5.401822e-002
4.396974e+002,5.467231e-002
4.416259e+002,5.508585e-002
4.435544e+002,5.516562e-002
4.454829e+002,5.535300e-002
4.474114e+002,5.505854e-002
4.493399e+002,5.466578e-002
4.512684e+002,5.497487e-002
4.531969e+002,5.530798e-002
4.551254e+002,5.573355e-002
4.570539e+002,5.584014e-002
4.589824e+002,5.567744e-002
4.609109e+002,5.600756e-002
4.628394e+002,5.626959e-002
4.647679e+002,5.528193e-002
4.666964e+002,5.495637e-002
4.686249e+002,5.485048e-002
4.705533e+002,5.563059e-002
4.724819e+002,5.618482e-002
4.744103e+002,5.552764e-002
4.763389e+002,5.490382e-002
4.782673e+002,5.570105e-002
4.801959e+002,5.633531e-002
4.821243e+002,5.642071e-002
4.840529e+002,5.612798e-002
4.859813e+002,5.633066e-002
4.879099e+002,5.728300e-002
4.898383e+002,5.766059e-002
4.917668e+002,5.816332e-002
4.936953e+002,5.840937e-002
4.956238e+002,5.888165e-002
4.975523e+002,5.876487e-002
4.994808e+002,5.853138e-002
5.014093e+002,5.881619e-002
5.033378e+002,5.855802e-002
5.052663e+002,5.907543e-002
5.071948e+002,5.975205e-002
5.091233e+002,6.020449e-002
5.110518e+002,6.033299e-002
5.129803e+002,6.065712e-002
5.149088e+002,6.113097e-002
5.168373e+002,6.190336e-002
5.187658e+002,6.266379e-002
5.206943e+002,6.326411e-002
5.226228e+002,6.360982e-002
5.245513e+002,6.360874e-002
5.264798e+002,6.368697e-002
5.284083e+002,6.427201e-002
5.303368e+002,6.464370e-002
5.322653e+002,6.502968e-002
5.341938e+002,6.539127e-002
5.361223e+002,6.548856e-002
5.380508e+002,6.614450e-002
5.399792e+002,6.654311e-002
5.419078e+002,6.630327e-002
5.438363e+002,6.645075e-002
5.457648e+002,6.745668e-002
5.476932e+002,6.839405e-002
5.496218e+002,6.877722e-002
5.515503e+002,6.875835e-002
5.534788e+002,6.931684e-002
5.554072e+002,7.002986e-002
5.573358e+002,7.079006e-002
5.592643e+002,7.161082e-002
5.611927e+002,7.110850e-002
5.631212e+002,7.061385e-002
5.650497e+002,6.999569e-002
5.669783e+002,6.940721e-002
5.689067e+002,6.906322e-002
5.708352e+002,6.839356e-002
5.727637e+002,6.775460e-002
5.746923e+002,6.741922e-002
5.766207e+002,6.710144e-002
5.785492e+002,6.669485e-002
5.804777e+002,6.606410e-002
5.824063e+002,6.582625e-002
5.843347e+002,6.570575e-002
5.862632e+002,6.528492e-002
5.881917e+002,6.484254e-002
5.901202e+002,6.487621e-002
5.920487e+002,6.492923e-002
5.939772e+002,6.455750e-002
5.959057e+002,6.410634e-002
5.978342e+002,6.341361e-002
5.997627e+002,6.318754e-002
6.016912e+002,6.302074e-002
6.036197e+002,6.241079e-002
6.055482e+002,6.197027e-002
6.074767e+002,6.202016e-002
6.094052e+002,6.184042e-002
6.113337e+002,6.107725e-002
6.132622e+002,6.033005e-002
6.151907e+002,5.953301e-002
6.171192e+002,5.902106e-002
6.190477e+002,5.836862e-002
6.209762e+002,5.744202e-002
6.229047e+002,5.636126e-002
6.248332e+002,5.542799e-002
6.267617e+002,5.456874e-002
6.286902e+002,5.367911e-002
6.306187e+002,5.325055e-002
6.325472e+002,5.284535e-002
6.344756e+002,5.227147e-002
6.364042e+002,5.173292e-002
6.383326e+002,5.101588e-002
6.402612e+002,5.032945e-002
6.421896e+002,5.015447e-002
6.441182e+002,4.992273e-002
6.460466e+002,4.958030e-002
6.479752e+002,4.936746e-002
6.499036e+002,4.903234e-002
6.518322e+002,4.890092e-002
6.537606e+002,4.888258e-002
6.556891e+002,4.874703e-002
6.576177e+002,4.888673e-002
6.595461e+002,4.893120e-002
6.614746e+002,4.898986e-002
6.634031e+002,4.901454e-002
6.653317e+002,4.892546e-002
6.672601e+002,4.854603e-002
6.691886e+002,4.831364e-002
6.711171e+002,4.790631e-002
6.730457e+002,4.731348e-002
6.749741e+002,4.639972e-002
6.769026e+002,4.567490e-002
6.788311e+002,4.512727e-002
6.807596e+002,4.410101e-002
6.826881e+002,4.327481e-002
6.846166e+002,4.285487e-002
6.865451e+002,4.263885e-002
6.884736e+002,4.229917e-002
6.904021e+002,4.190897e-002
6.923306e+002,4.163483e-002
6.942591e+002,4.162143e-002
6.961876e+002,4.153810e-002
6.981161e+002,4.121021e-002
7.000446e+002,4.083229e-002
7.019731e+002,4.058230e-002
7.039016e+002,4.035853e-002
7.058301e+002,4.014934e-002
7.077585e+002,3.985868e-002
7.096871e+002,3.976293e-002
7.116156e+002,3.958536e-002
7.135441e+002,3.924939e-002
7.154725e+002,3.891888e-002
7.174011e+002,3.847244e-002
7.193296e+002,3.796731e-002
7.212581e+002,3.744695e-002
7.231865e+002,3.696549e-002
7.251151e+002,3.651178e-002
7.270436e+002,3.603740e-002
7.289720e+002,3.573194e-002
7.309005e+002,3.543238e-002
7.328290e+002,3.508644e-002
7.347576e+002,3.466680e-002
7.366860e+002,3.431943e-002
7.386145e+002,3.411908e-002
7.405430e+002,3.390119e-002
7.424716e+002,3.357772e-002
7.444000e+002,3.338921e-002
7.463285e+002,3.306710e-002
7.482570e+002,3.275602e-002
7.501855e+002,3.246930e-002
7.521140e+002,3.219597e-002
7.540425e+002,3.198637e-002
7.559710e+002,3.184608e-002
7.578995e+002,3.162889e-002
7.598280e+002,3.130266e-002
7.617565e+002,3.112461e-002
7.636850e+002,3.097613e-002
7.656135e+002,3.075838e-002
7.675420e+002,3.067032e-002
7.694705e+002,3.059861e-002
7.713990e+002,3.044785e-002
7.733275e+002,3.028262e-002
7.752560e+002,3.019268e-002
7.771844e+002,2.992913e-002
7.791130e+002,2.980093e-002
7.810415e+002,2.971194e-002
7.829700e+002,2.974199e-002
7.848984e+002,2.950993e-002
7.868270e+002,2.925239e-002
7.887555e+002,2.917195e-002
7.906840e+002,2.911592e-002
7.926124e+002,2.910055e-002
7.945410e+002,2.909970e-002
7.964695e+002,2.900872e-002
7.983979e+002,2.895563e-002
8.003264e+002,2.900890e-002
8.022549e+002,2.905534e-002
8.041835e+002,2.906427e-002
8.061119e+002,2.901382e-002
8.080404e+002,2.899810e-002
8.099689e+002,2.904610e-002
8.118975e+002,2.899013e-002
8.138259e+002,2.898549e-002
8.157545e+002,2.897153e-002
8.176830e+002,2.883908e-002
8.196115e+002,2.874951e-002
8.215399e+002,2.875298e-002
8.234684e+002,2.866448e-002
8.253970e+002,2.870448e-002
8.273254e+002,2.882155e-002
8.292539e+002,2.890597e-002
8.311824e+002,2.891345e-002
8.331110e+002,2.894125e-002
8.350394e+002,2.902201e-002
8.369679e+002,2.895113e-002
8.388964e+002,2.875779e-002
8.408250e+002,2.867959e-002
8.427534e+002,2.857483e-002
8.446819e+002,2.848952e-002
8.466104e+002,2.849416e-002
8.485389e+002,2.847732e-002
8.504674e+002,2.832231e-002
8.523959e+002,2.834113e-002
8.543244e+002,2.849458e-002
8.562529e+002,2.868249e-002
8.581814e+002,2.878551e-002
8.601099e+002,2.903125e-002
8.620384e+002,2.933116e-002
8.639669e+002,2.969707e-002
8.658954e+002,3.034672e-002
8.678239e+002,3.141100e-002
8.697524e+002,3.276357e-002
8.716809e+002,3.373187e-002
8.736094e+002,3.355394e-002
8.755378e+002,3.271713e-002
8.774664e+002,3.174239e-002
8.793949e+002,3.087248e-002
8.813234e+002,3.029182e-002
8.832518e+002,2.988419e-002
8.851804e+002,2.972815e-002
8.871089e+002,2.987379e-002
8.890374e+002,3.025175e-002
8.909658e+002,3.079935e-002
8.928943e+002,3.139672e-002
8.948229e+002,3.175379e-002
8.967513e+002,3.195471e-002
8.986798e+002,3.191441e-002
9.006083e+002,3.171615e-002
9.025369e+002,3.132217e-002
9.044653e+002,3.081109e-002
9.063938e+002,3.051165e-002
9.083223e+002,3.038563e-002
9.102509e+002,3.018110e-002
9.121793e+002,3.000518e-002
9.141078e+002,2.986723e-002
9.160364e+002,2.983120e-002
9.179648e+002,2.992100e-002
9.198933e+002,3.006813e-002
9.218218e+002,3.028820e-002
9.237504e+002,3.062250e-002
9.256788e+002,3.092788e-002
9.276073e+002,3.126228e-002
9.295358e+002,3.162202e-002
9.314644e+002,3.207641e-002
9.333928e+002,3.255478e-002
9.353213e+002,3.313887e-002
9.372498e+002,3.372622e-002
9.391783e+002,3.437073e-002
9.411068e+002,3.518012e-002
9.430353e+002,3.603170e-002
9.449637e+002,3.691785e-002
9.468923e+002,3.788828e-002
9.488208e+002,3.886116e-002
9.507493e+002,3.987066e-002
9.526777e+002,4.085991e-002
9.546063e+002,4.192224e-002
9.565348e+002,4.301377e-002
9.584633e+002,4.414627e-002
9.603917e+002,4.534296e-002
9.623203e+002,4.656133e-002
9.642488e+002,4.784767e-002
9.661772e+002,4.914137e-002
9.681057e+002,5.037339e-002
9.700343e+002,5.166243e-002
9.719628e+002,5.311301e-002
9.738912e+002,5.472336e-002
9.758197e+002,5.645392e-002
9.777483e+002,5.834657e-002
9.796768e+002,6.048775e-002
9.816052e+002,6.275431e-002
9.835337e+002,6.505459e-002
9.854623e+002,6.735113e-002
9.873907e+002,6.944167e-002
9.893192e+002,7.112485e-002
9.912477e+002,7.252254e-002
9.931763e+002,7.370415e-002
9.951047e+002,7.471449e-002
9.970332e+002,7.573373e-002
9.989617e+002,7.693060e-002
1.000890e+003,7.820572e-002
1.002819e+003,7.955395e-002
1.004747e+003,8.091736e-002
1.006676e+003,8.228305e-002
1.008604e+003,8.361658e-002
1.010533e+003,8.506858e-002
1.012461e+003,8.662362e-002
1.014390e+003,8.816211e-002
1.016318e+003,8.985434e-002
1.018247e+003,9.159758e-002
1.020175e+003,9.339389e-002
1.022104e+003,9.512135e-002
1.024032e+003,9.688777e-002
1.025961e+003,9.868394e-002
1.027889e+003,1.006098e-001
1.029818e+003,1.024380e-001
1.031746e+003,1.040787e-001
1.033675e+003,1.052189e-001
1.035603e+003,1.056782e-001
1.037532e+003,1.052317e-001
1.039460e+003,1.042645e-001
1.041389e+003,1.029961e-001
1.043317e+003,1.018251e-001
1.045246e+003,1.008794e-001
1.047174e+003,1.001801e-001
1.049103e+003,9.966676e-002
1.051031e+003,9.917345e-002
1.052960e+003,9.867134e-002
1.054888e+003,9.796446e-002
1.056817e+003,9.685278e-002
1.058745e+003,9.558617e-002
1.060674e+003,9.420173e-002
1.062602e+003,9.244151e-002
1.064531e+003,9.033456e-002
1.066459e+003,8.826373e-002
1.068388e+003,8.633936e-002
1.070316e+003,8.454946e-002
1.072245e+003,8.277710e-002
1.074173e+003,8.105387e-002
1.076102e+003,7.941958e-002
1.078030e+003,7.778584e-002
1.079959e+003,7.594174e-002
1.081887e+003,7.411212e-002
1.083816e+003,7.252708e-002
1.085744e+003,7.116513e-002
1.087673e+003,7.000636e-002
1.089601e+003,6.909419e-002
1.091530e+003,6.814737e-002
1.093458e+003,6.722238e-002
1.095387e+003,6.635907e-002
1.097315e+003,6.568120e-002
1.099244e+003,6.513908e-002
1.101172e+003,6.469002e-002
1.103101e+003,6.423356e-002
1.105029e+003,6.369028e-002
1.106958e+003,6.290821e-002
1.108886e+003,6.184554e-002
1.110815e+003,6.048840e-002
1.112743e+003,5.893310e-002
1.114672e+003,5.715732e-002
1.116600e+003,5.532493e-002
1.118529e+003,5.367965e-002
1.120457e+003,5.225129e-002
1.122386e+003,5.085637e-002
1.124314e+003,4.943737e-002
1.126243e+003,4.785729e-002
1.128171e+003,4.624937e-002
1.130100e+003,4.464466e-002
1.132028e+003,4.315947e-002
1.133957e+003,4.177713e-002
1.135885e+003,4.059341e-002
1.137814e+003,3.964071e-002
1.139742e+003,3.895839e-002
1.141671e+003,3.862483e-002
1.143599e+003,3.852322e-002
1.145528e+003,3.859683e-002
1.147456e+003,3.881841e-002
1.149385e+003,3.904796e-002
1.151313e+003,3.939041e-002
1.153242e+003,3.978870e-002
1.155170e+003,4.011356e-002
1.157099e+003,4.039242e-002
1.159027e+003,4.044610e-002
1.160956e+003,4.021529e-002
1.162884e+003,3.969212e-002
1.164813e+003,3.874407e-002
1.166741e+003,3.740180e-002
1.168670e+003,3.577074e-002
1.170598e+003,3.394360e-002
1.172526e+003,3.208712e-002
1.174455e+003,3.029133e-002
1.176384e+003,2.868104e-002
1.178312e+003,2.726532e-002
1.180240e+003,2.609222e-002
1.182169e+003,2.513977e-002
1.184098e+003,2.442173e-002
1.186026e+003,2.385921e-002
1.187954e+003,2.348221e-002
1.189883e+003,2.330537e-002
1.191812e+003,2.331281e-002
1.193740e+003,2.352744e-002
1.195668e+003,2.386127e-002
1.197597e+003,2.426062e-002
1.199526e+003,2.469769e-002
1.201454e+003,2.509320e-002
1.203382e+003,2.540206e-002
1.205311e+003,2.556930e-002
1.207240e+003,2.565818e-002
1.209168e+003,2.573285e-002
1.211096e+003,2.583064e-002
1.213025e+003,2.601144e-002
1.214953e+003,2.625234e-002
1.216882e+003,2.654317e-002
1.218810e+003,2.685003e-002
1.220739e+003,2.718931e-002
1.222667e+003,2.758428e-002
1.224596e+003,2.795989e-002
1.226524e+003,2.834874e-002
1.228453e+003,2.877329e-002
1.230381e+003,2.911128e-002
1.232310e+003,2.943032e-002
1.234238e+003,2.974671e-002
1.236167e+003,2.995919e-002
1.238095e+003,3.009875e-002
1.240024e+003,3.026072e-002
1.241952e+003,3.040899e-002
1.243881e+003,3.048747e-002
1.245809e+003,3.050862e-002
1.247738e+003,3.045408e-002
1.249666e+003,3.037124e-002
1.251595e+003,3.031048e-002
1.253523e+003,3.022042e-002
1.255452e+003,3.010900e-002
1.257380e+003,2.997311e-002
1.259309e+003,2.973974e-002
1.261237e+003,2.948838e-002
1.263166e+003,2.916304e-002
1.265094e+003,2.884254e-002
1.267023e+003,2.855196e-002
1.268951e+003,2.816318e-002
1.270880e+003,2.774931e-002
1.272808e+003,2.741062e-002
1.274737e+003,2.703167e-002
1.276665e+003,2.667598e-002
1.278594e+003,2.637919e-002
1.280522e+003,2.612669e-002
1.282451e+003,2.587662e-002
1.284379e+003,2.559417e-002
1.286308e+003,2.532986e-002
1.288236e+003,2.508697e-002
1.290165e+003,2.490311e-002
1.292093e+003,2.482889e-002
1.294022e+003,2.485455e-002
1.295950e+003,2.493164e-002
1.297879e+003,2.506403e-002
1.299807e+003,2.531064e-002
1.301736e+003,2.563140e-002
1.303664e+003,2.594208e-002
1.305593e+003,2.628082e-002
1.307521e+003,2.664827e-002
1.309450e+003,2.704775e-002
1.311378e+003,2.739954e-002
1.313307e+003,2.770578e-002
1.315235e+003,2.790742e-002
1.317164e+003,2.805694e-002
1.319092e+003,2.809384e-002
1.321021e+003,2.798270e-002
1.322949e+003,2.780925e-002
1.324878e+003,2.768544e-002
1.326806e+003,2.757839e-002
1.328735e+003,2.753805e-002
1.330663e+003,2.759479e-002
1.332592e+003,2.763315e-002
1.334520e+003,2.767898e-002
1.336449e+003,2.766090e-002
1.338377e+003,2.754849e-002
1.340306e+003,2.745247e-002
1.342234e+003,2.729416e-002
1.344163e+003,2.718896e-002
1.346091e+003,2.717798e-002
1.348020e+003,2.725087e-002
1.349948e+003,2.739548e-002
1.351877e+003,2.757265e-002
1.353805e+003,2.776342e-002
1.355734e+003,2.798188e-002
1.357662e+003,2.823071e-002
1.359591e+003,2.851409e-002
1.361519e+003,2.882244e-002
1.363448e+003,2.909706e-002
1.365376e+003,2.933901e-002
1.367305e+003,2.953241e-002
1.369233e+003,2.969646e-002
1.371162e+003,2.976769e-002
1.373090e+003,2.970381e-002
1.375019e+003,2.954169e-002
1.376947e+003,2.939773e-002
1.378876e+003,2.916310e-002
1.380804e+003,2.885552e-002
1.382733e+003,2.853180e-002
1.384661e+003,2.821919e-002
1.386590e+003,2.801591e-002
1.388518e+003,2.784357e-002
1.390447e+003,2.769069e-002
1.392375e+003,2.761489e-002
1.394304e+003,2.762777e-002
1.396232e+003,2.766420e-002
1.398161e+003,2.771469e-002
1.400089e+003,2.782188e-002
1.402018e+003,2.793684e-002
1.403946e+003,2.807339e-002
1.405875e+003,2.825038e-002
1.407803e+003,2.844831e-002
1.409732e+003,2.867262e-002
1.411660e+003,2.889782e-002
1.413589e+003,2.911114e-002
1.415517e+003,2.930861e-002
1.417446e+003,2.949462e-002
1.419374e+003,2.963007e-002
1.421303e+003,2.968287e-002
1.423231e+003,2.966731e-002
1.425160e+003,2.953106e-002
1.427088e+003,2.933404e-002
1.429017e+003,2.908933e-002
1.430945e+003,2.877163e-002
1.432874e+003,2.841412e-002
1.434802e+003,2.805803e-002
1.436731e+003,2.773092e-002
1.438659e+003,2.752608e-002
1.440588e+003,2.737526e-002
1.442516e+003,2.726292e-002
1.444445e+003,2.721857e-002
1.446373e+003,2.717107e-002
1.448302e+003,2.713176e-002
1.450230e+003,2.711385e-002
1.452159e+003,2.703468e-002
1.454087e+003,2.684683e-002
1.456016e+003,2.664769e-002
1.457944e+003,2.642138e-002
1.459873e+003,2.612441e-002
1.461801e+003,2.585920e-002
1.463730e+003,2.560895e-002
1.465658e+003,2.518816e-002
1.467587e+003,2.464056e-002
1.469515e+003,2.395596e-002
1.471444e+003,2.316918e-002
1.473372e+003,2.245031e-002
1.475301e+003,2.190961e-002
1.477229e+003,2.146621e-002
1.479158e+003,2.112437e-002
1.481086e+003,2.086698e-002
1.483015e+003,2.071248e-002
1.484943e+003,2.067310e-002
1.486872e+003,2.065151e-002
1.488800e+003,2.069285e-002
1.490729e+003,2.080978e-002
1.492657e+003,2.095906e-002
1.494586e+003,2.113455e-002
1.496514e+003,2.133560e-002
1.498443e+003,2.158338e-002
1.500371e+003,2.187760e-002
1.502300e+003,2.217510e-002
1.504228e+003,2.244217e-002
1.506157e+003,2.255539e-002
1.508085e+003,2.254647e-002
1.510014e+003,2.244565e-002
1.511942e+003,2.230317e-002
1.513871e+003,2.211735e-002
1.515799e+003,2.178005e-002
1.517728e+003,2.128505e-002
1.519656e+003,2.069576e-002
1.521585e+003,2.016604e-002
1.523513e+003,1.978030e-002
1.525442e+003,1.952858e-002
1.527370e+003,1.934351e-002
1.529299e+003,1.916099e-002
1.531227e+003,1.899840e-002
1.533156e+003,1.887443e-002
1.535084e+003,1.876564e-002
1.537013e+003,1.871865e-002
1.538941e+003,1.863594e-002
1.540870e+003,1.849943e-002
1.542798e+003,1.839704e-002
1.544727e+003,1.829026e-002
1.546655e+003,1.818598e-002
1.548584e+003,1.807142e-002
1.550512e+003,1.794482e-002
1.552441e+003,1.784609e-002
1.554369e+003,1.776912e-002
1.556298e+003,1.774715e-002
1.558226e+003,1.776164e-002
1.560155e+003,1.774334e-002
1.562083e+003,1.774037e-002
1.564012e+003,1.779571e-002
1.565940e+003,1.787536e-002
1.567869e+003,1.800290e-002
1.569797e+003,1.813012e-002
1.571726e+003,1.828988e-002
1.573654e+003,1.856583e-002
1.575583e+003,1.884535e-002
1.577511e+003,1.910195e-002
1.579440e+003,1.942211e-002
1.581368e+003,1.974302e-002
1.583297e+003,2.007492e-002
1.585225e+003,2.041122e-002
1.587154e+003,2.072909e-002
1.589082e+003,2.100605e-002
1.591010e+003,2.127761e-002
1.592939e+003,2.154455e-002
1.594868e+003,2.176314e-002
1.596796e+003,2.198528e-002
1.598724e+003,2.219327e-002
1.600653e+003,2.230139e-002
1.602582e+003,2.233953e-002
1.604510e+003,2.232725e-002
1.606438e+003,2.222325e-002
1.608367e+003,2.206062e-002
1.610296e+003,2.188977e-002
1.612224e+003,2.179213e-002
1.614152e+003,2.177498e-002
1.616081e+003,2.184441e-002
1.618010e+003,2.200629e-002
1.619938e+003,2.218155e-002
1.621866e+003,2.237917e-002
1.623795e+003,2.265760e-002
1.625724e+003,2.288502e-002
1.627652e+003,2.310600e-002
1.629580e+003,2.330303e-002
1.631509e+003,2.341488e-002
1.633438e+003,2.346351e-002
1.635366e+003,2.343520e-002
1.637294e+003,2.333106e-002
1.639223e+003,2.323890e-002
1.641151e+003,2.313222e-002
1.643080e+003,2.301702e-002
1.645008e+003,2.287847e-002
1.646937e+003,2.277482e-002
1.648865e+003,2.263908e-002
1.650794e+003,2.245392e-002
1.652722e+003,2.230309e-002
1.654651e+003,2.215462e-002
1.656579e+003,2.195830e-002
1.658508e+003,2.168022e-002
1.660436e+003,2.140795e-002
1.662365e+003,2.114698e-002
1.664293e+003,2.081572e-002
1.666222e+003,2.048950e-002
1.668150e+003,2.013938e-002
1.670079e+003,1.978195e-002
1.672007e+003,1.940090e-002
1.673936e+003,1.902299e-002
1.675864e+003,1.865942e-002
1.677793e+003,1.833663e-002
1.679721e+003,1.804785e-002
1.681650e+003,1.775248e-002
1.683578e+003,1.742619e-002
1.685507e+003,1.710072e-002
1.687435e+003,1.684210e-002
1.689364e+003,1.662428e-002
1.691292e+003,1.640192e-002
1.693221e+003,1.615206e-002
1.695149e+003,1.586968e-002
1.697078e+003,1.562085e-002
1.699006e+003,1.541967e-002
1.700935e+003,1.514150e-002
1.702863e+003,1.496595e-002
1.704792e+003,1.488189e-002
1.706720e+003,1.472548e-002
1.708649e+003,1.457461e-002
1.710577e+003,1.450741e-002
1.712506e+003,1.441464e-002
1.714434e+003,1.431394e-002
1.716363e+003,1.426715e-002
1.718291e+003,1.426676e-002
1.720220e+003,1.420914e-002
1.722148e+003,1.414842e-002
1.724077e+003,1.406124e-002
1.726005e+003,1.392799e-002
1.727934e+003,1.383393e-002
1.729862e+003,1.365732e-002
1.731791e+003,1.351195e-002
1.733719e+003,1.345096e-002
1.735648e+003,1.325945e-002
1.737576e+003,1.303062e-002
1.739505e+003,1.286892e-002
1.741433e+003,1.269763e-002
1.743362e+003,1.247440e-002
1.745290e+003,1.218185e-002
1.747219e+003,1.196065e-002
1.749147e+003,1.171555e-002
1.751076e+003,1.141782e-002
1.753004e+003,1.120709e-002
1.754933e+003,1.100177e-002
1.756861e+003,1.077463e-002
1.758790e+003,1.061291e-002
1.760718e+003,1.046001e-002
1.762647e+003,1.033721e-002
1.764575e+003,1.028964e-002
1.766504e+003,1.014179e-002
1.768432e+003,1.004862e-002
1.770361e+003,1.002207e-002
1.772289e+003,9.984576e-003
1.774218e+003,9.941597e-003
1.776146e+003,9.995094e-003
1.778075e+003,9.956265e-003
1.780003e+003,9.873643e-003
1.781932e+003,9.828836e-003
1.783860e+003,9.772711e-003
1.785789e+003,9.824838e-003
1.787717e+003,9.845931e-003
1.789646e+003,9.865321e-003
1.791574e+003,9.811175e-003
1.793503e+003,9.770534e-003
1.795431e+003,9.857903e-003
1.797360e+003,9.863677e-003
1.799288e+003,9.781146e-003
1.801217e+003,9.714331e-003
1.803145e+003,9.740692e-003
1.805074e+003,9.734608e-003
1.807002e+003,9.672089e-003
1.808931e+003,9.670747e-003
1.810859e+003,9.657139e-003
1.812788e+003,9.617478e-003
1.814716e+003,9.539868e-003
1.816645e+003,9.405283e-003
1.818573e+003,9.385104e-003
1.820502e+003,9.381690e-003
1.822430e+003,9.323126e-003
1.824359e+003,9.290973e-003
1.826287e+003,9.340847e-003
1.828216e+003,9.325687e-003
1.830144e+003,9.328215e-003
1.832073e+003,9.353115e-003
1.834001e+003,9.419770e-003
1.835930e+003,9.409294e-003
1.837858e+003,9.339534e-003
1.839787e+003,9.227555e-003
1.841715e+003,9.300780e-003
1.843644e+003,9.316373e-003
1.845572e+003,9.274481e-003
1.847501e+003,9.243424e-003
1.849429e+003,9.297313e-003
1.851358e+003,9.217689e-003
1.853286e+003,9.132088e-003
1.855215e+003,9.034259e-003
1.857143e+003,9.065903e-003
1.859072e+003,9.142710e-003
1.861000e+003,9.156721e-003
1.862929e+003,9.086755e-003
1.864857e+003,9.137464e-003
1.866786e+003,9.106585e-003
1.868714e+003,8.999238e-003
1.870643e+003,8.924616e-003
1.872571e+003,9.045061e-003
1.874500e+003,9.199942e-003
1.876428e+003,9.124568e-003
1.878357e+003,9.104263e-003
1.880285e+003,9.098025e-003
1.882214e+003,8.865178e-003
1.884142e+003,8.722607e-003
1.886071e+003,8.753938e-003
1.887999e+003,8.738491e-003
1.889928e+003,8.787657e-003
1.891856e+003,8.886940e-003
1.893785e+003,8.980015e-003
1.895713e+003,8.881926e-003
1.897642e+003,8.690075e-003
1.899570e+003,8.521074e-003
1.901499e+003,8.517633e-003
1.903427e+003,8.403736e-003
1.905356e+003,8.527558e-003
1.907284e+003,8.526717e-003
1.909213e+003,8.391304e-003
1.911141e+003,8.358684e-003
1.913070e+003,8.048519e-003
1.914998e+003,7.912097e-003
1.916927e+003,7.933262e-003
1.918855e+003,7.861347e-003
1.920784e+003,7.849039e-003
1.922712e+003,7.903400e-003
1.924641e+003,7.740561e-003
1.926569e+003,7.452108e-003
1.928498e+003,7.396240e-003
1.930426e+003,7.343039e-003
1.932355e+003,7.129124e-003
1.934283e+003,7.071206e-003
1.936212e+003,6.625411e-003
1.938140e+003,6.352254e-003
1.940069e+003,6.523527e-003
1.941997e+003,6.124307e-003
1.943926e+003,5.415277e-003
1.945854e+003,5.456112e-003
1.947783e+003,5.367942e-003
1.949711e+003,4.712800e-003
1.951640e+003,4.381076e-003
1.953568e+003,4.325570e-003
1.955497e+003,4.105686e-003
1.957425e+003,3.355992e-003
1.959354e+003,2.057381e-003
1.961282e+003,1.283012e-003
1.963211e+003,1.038149e-003
1.965139e+003,5.465026e-004
1.967068e+003,3.586297e-004
1.968996e+003,-3.641912e-004
1.970925e+003,-1.050461e-003
1.972853e+003,-1.527265e-003
1.974782e+003,-1.852346e-003
1.976710e+003,-1.970303e-003
1.978639e+003,-1.291137e-003
1.980567e+003,-2.853643e-004
1.982496e+003,3.322875e-004
1.984424e+003,1.117671e-003
1.986353e+003,1.748489e-003
1.988281e+003,1.397779e-003
1.990210e+003,7.158695e-004
1.992138e+003,7.273112e-004
1.994067e+003,4.898986e-004
1.995995e+003,6.014007e-004
1.997924e+003,9.821812e-004
1.999852e+003,3.189402e-004
2.001781e+003,-4.507561e-004
2.003709e+003,-1.791605e-003
2.005638e+003,-3.096972e-003
2.007566e+003,-2.648112e-003
2.009495e+003,-2.428719e-003
2.011423e+003,-2.620405e-003
2.013352e+003,-2.785725e-003
2.015280e+003,-2.877681e-003
2.017208e+003,-3.163245e-003
2.019137e+003,-3.249731e-003
2.021066e+003,-3.694466e-003
2.022994e+003,-3.565854e-003
2.024922e+003,-4.033952e-003
2.026851e+003,-4.203117e-003
2.028780e+003,-4.246868e-003
2.030708e+003,-4.045377e-003
2.032636e+003,-3.947742e-003
2.034565e+003,-3.489426e-003
2.036494e+003,-2.537947e-003
2.038422e+003,-2.253013e-003
2.040350e+003,-1.129105e-003
2.042279e+003,2.484522e-004
2.044208e+003,-6.615150e-005
2.046136e+003,8.366681e-005
2.048064e+003,6.984653e-004
2.049993e+003,1.340804e-003
2.051921e+003,2.876762e-003
2.053850e+003,3.398054e-003
2.055778e+003,3.597897e-003
2.057707e+003,3.228151e-003
2.059635e+003,2.872577e-003
2.061564e+003,3.151358e-003
2.063492e+003,3.889670e-003
2.065421e+003,4.395709e-003
2.067349e+003,4.294327e-003
2.069278e+003,3.869203e-003
2.071206e+003,4.248332e-003
2.073135e+003,4.810684e-003
2.075063e+003,4.917779e-003
2.076992e+003,5.154219e-003
2.078920e+003,5.588322e-003
2.080849e+003,5.952581e-003
2.082777e+003,6.154570e-003
2.084706e+003,6.000662e-003
2.086634e+003,6.007884e-003
2.088563e+003,6.045355e-003
2.090491e+003,5.936481e-003
2.092420e+003,5.712982e-003
2.094348e+003,5.395315e-003
2.096277e+003,5.643497e-003
2.098205e+003,5.756454e-003
2.100134e+003,5.717238e-003
2.102062e+003,5.899679e-003
2.103991e+003,5.906968e-003
2.105919e+003,5.829018e-003
2.107848e+003,5.713109e-003
2.109776e+003,5.985940e-003
2.111705e+003,6.607065e-003
2.113633e+003,6.429471e-003
2.115562e+003,6.393054e-003
2.117490e+003,6.473863e-003
2.119419e+003,6.580017e-003
2.121347e+003,6.276423e-003
2.123276e+003,6.143759e-003
2.125204e+003,6.193499e-003
2.127133e+003,5.653286e-003
2.129061e+003,4.940682e-003
2.130990e+003,4.632504e-003
2.132918e+003,4.469508e-003
2.134847e+003,3.608435e-003
2.136775e+003,2.665847e-003
2.138704e+003,2.021767e-003
2.140632e+003,1.297211e-003
2.142561e+003,1.302728e-003
2.144489e+003,9.719473e-004
2.146418e+003,-2.580706e-004
2.148346e+003,-1.879300e-003
2.150275e+003,-2.660450e-003
2.152203e+003,-3.232590e-003
2.154132e+003,-4.139295e-003
2.156060e+003,-6.286755e-003
2.157989e+003,-9.515461e-003
2.159917e+003,-1.023055e-002
2.161846e+003,-7.368276e-003
2.163774e+003,-4.691563e-003
2.165703e+003,-3.445622e-003
2.167631e+003,-2.733190e-003
2.169560e+003,-2.187293e-003
2.171488e+003,-1.401790e-003
2.173417e+003,-6.891711e-004
2.175345e+003,-1.251259e-003
2.177274e+003,-1.737977e-003
2.179202e+003,-1.248979e-003
2.181131e+003,-1.009976e-003
2.183059e+003,-9.459069e-004
2.184988e+003,-6.660796e-004
2.186916e+003,4.613382e-004
2.188845e+003,5.782424e-004
2.190773e+003,8.749567e-004
2.192702e+003,2.035382e-003
2.194630e+003,2.227839e-003
2.196559e+003,2.343454e-003
2.198487e+003,2.939105e-003
2.200416e+003,3.334823e-003
2.202344e+003,3.281670e-003
2.204273e+003,3.574792e-003
2.206201e+003,4.353861e-003
2.208130e+003,4.471148e-003
2.210058e+003,3.891849e-003
2.211987e+003,3.982660e-003
2.213915e+003,4.519693e-003
2.215844e+003,4.853155e-003
2.217772e+003,4.670014e-003
2.219701e+003,4.957606e-003
2.221629e+003,5.230298e-003
2.223558e+003,5.453132e-003
2.225486e+003,5.936123e-003
2.227415e+003,6.277465e-003
2.229343e+003,6.479749e-003
2.231272e+003,6.777578e-003
2.233200e+003,6.944180e-003
2.235129e+003,7.246841e-003
2.237057e+003,7.325023e-003
2.238986e+003,7.342234e-003
2.240914e+003,7.604288e-003
2.242843e+003,7.546248e-003
2.244771e+003,7.786181e-003
2.246700e+003,8.144770e-003
2.248628e+003,8.036290e-003
2.250557e+003,7.646403e-003
2.252485e+003,7.566878e-003
2.254414e+003,7.986088e-003
2.256342e+003,8.618826e-003
2.258271e+003,8.797589e-003
2.260199e+003,8.442360e-003
2.262128e+003,8.432363e-003
2.264056e+003,8.763187e-003
2.265985e+003,8.816148e-003
2.267913e+003,8.939104e-003
2.269842e+003,9.093983e-003
2.271770e+003,9.306318e-003
2.273699e+003,9.386873e-003
2.275627e+003,9.520215e-003
2.277556e+003,9.461232e-003
2.279484e+003,9.508606e-003
2.281413e+003,9.698618e-003
2.283341e+003,9.850582e-003
2.285270e+003,1.001240e-002
2.287198e+003,1.035182e-002
2.289127e+003,1.037286e-002
2.291055e+003,1.029600e-002
2.292984e+003,1.038709e-002
2.294912e+003,1.029238e-002
2.296841e+003,1.028853e-002
2.298769e+003,1.038717e-002
2.300698e+003,1.030339e-002
2.302626e+003,1.029467e-002
2.304555e+003,1.035382e-002
2.306483e+003,1.043158e-002
2.308412e+003,1.036025e-002
2.310340e+003,1.026631e-002
2.312269e+003,1.032589e-002
2.314197e+003,1.044598e-002
2.316125e+003,1.048739e-002
2.318054e+003,1.055821e-002
2.319983e+003,1.062831e-002
2.321911e+003,1.074967e-002
2.323840e+003,1.094719e-002
2.325768e+003,1.096328e-002
2.327697e+003,1.105472e-002
2.329625e+003,1.086811e-002
2.331553e+003,1.080429e-002
2.333482e+003,1.095092e-002
2.335411e+003,1.098233e-002
2.337339e+003,1.110581e-002
2.339268e+003,1.121691e-002
2.341196e+003,1.107119e-002
2.343125e+003,1.108001e-002
2.345053e+003,1.128613e-002
2.346981e+003,1.129560e-002
2.348910e+003,1.134945e-002
2.350839e+003,1.140472e-002
2.352767e+003,1.140826e-002
2.354696e+003,1.145899e-002
2.356624e+003,1.148460e-002
2.358552e+003,1.144728e-002
2.360481e+003,1.154616e-002
2.362409e+003,1.171841e-002
2.364338e+003,1.153132e-002
2.366267e+003,1.144191e-002
2.368195e+003,1.173574e-002
2.370124e+003,1.157228e-002
2.372052e+003,1.148918e-002
2.373980e+003,1.182182e-002
2.375909e+003,1.178572e-002
2.377838e+003,1.169457e-002
2.379766e+003,1.172441e-002
2.381695e+003,1.187495e-002
2.383623e+003,1.189159e-002
2.385552e+003,1.186824e-002
2.387480e+003,1.181953e-002
2.389408e+003,1.179808e-002
2.391337e+003,1.172166e-002
2.393266e+003,1.158525e-002
2.395194e+003,1.150534e-002
2.397123e+003,1.151196e-002
2.399051e+003,1.135169e-002
2.400979e+003,1.128761e-002
2.402908e+003,1.129760e-002
2.404836e+003,1.121756e-002
2.406765e+003,1.116122e-002
2.408694e+003,1.125714e-002
2.410622e+003,1.127781e-002
2.412551e+003,1.123000e-002
2.414479e+003,1.118159e-002
2.416407e+003,1.132617e-002
2.418336e+003,1.133590e-002
2.420264e+003,1.124656e-002
2.422193e+003,1.129393e-002
2.424122e+003,1.133131e-002
2.426050e+003,1.130889e-002
2.427979e+003,1.135763e-002
2.429907e+003,1.143855e-002
2.431835e+003,1.138477e-002
2.433764e+003,1.127394e-002
2.435692e+003,1.129223e-002
2.437621e+003,1.135396e-002
2.439550e+003,1.133859e-002
2.441478e+003,1.131743e-002
2.443406e+003,1.133685e-002
2.445335e+003,1.127577e-002
2.447263e+003,1.131767e-002
2.449192e+003,1.130356e-002
2.451121e+003,1.133083e-002
2.453049e+003,1.135232e-002
2.454978e+003,1.141086e-002
2.456906e+003,1.144355e-002
2.458834e+003,1.146625e-002
2.460763e+003,1.139712e-002
2.462691e+003,1.138331e-002
2.464620e+003,1.145355e-002
2.466549e+003,1.143706e-002
2.468477e+003,1.147938e-002
2.470406e+003,1.147206e-002
2.472334e+003,1.149122e-002
2.474262e+003,1.146189e-002
2.476191e+003,1.140154e-002
2.478119e+003,1.147169e-002
2.480048e+003,1.153171e-002
2.481977e+003,1.138300e-002
2.483905e+003,1.134596e-002
2.485833e+003,1.133627e-002
2.487762e+003,1.141845e-002
2.489690e+003,1.142753e-002
2.491619e+003,1.142491e-002
2.493547e+003,1.144039e-002
2.495476e+003,1.151565e-002
2.497405e+003,1.149601e-002
2.499333e+003,1.145318e-002
2.501261e+003,1.150006e-002
2.503190e+003,1.156682e-002
2.505118e+003,1.157118e-002
2.507047e+003,1.159483e-002
2.508975e+003,1.160970e-002
2.510904e+003,1.161994e-002
2.512833e+003,1.144774e-002
2.514761e+003,1.134202e-002
2.516689e+003,1.143702e-002
2.518618e+003,1.162634e-002
2.520546e+003,1.162335e-002
2.522475e+003,1.164183e-002
2.524403e+003,1.164571e-002
2.526332e+003,1.163185e-002
2.528260e+003,1.157972e-002
2.530189e+003,1.165462e-002
2.532117e+003,1.164063e-002
2.534046e+003,1.160579e-002
2.535974e+003,1.167549e-002
2.537903e+003,1.166837e-002
2.539831e+003,1.157594e-002
2.541760e+003,1.150932e-002
2.543688e+003,1.136964e-002
2.545617e+003,1.145454e-002
2.547545e+003,1.172580e-002
2.549474e+003,1.177199e-002
2.551402e+003,1.169799e-002
2.553331e+003,1.169999e-002
2.555259e+003,1.167038e-002
2.557188e+003,1.170745e-002
2.559116e+003,1.182037e-002
2.561045e+003,1.186062e-002
2.562973e+003,1.182013e-002
2.564902e+003,1.182868e-002
2.566830e+003,1.181159e-002
2.568759e+003,1.181036e-002
2.570687e+003,1.189008e-002
2.572616e+003,1.189297e-002
2.574544e+003,1.186821e-002
2.576473e+003,1.189454e-002
2.578401e+003,1.205251e-002
2.580330e+003,1.211053e-002
2.582258e+003,1.215639e-002
2.584187e+003,1.221388e-002
2.586115e+003,1.229322e-002
2.588044e+003,1.223218e-002
2.589972e+003,1.226254e-002
2.591901e+003,1.232277e-002
2.593829e+003,1.246167e-002
2.595758e+003,1.242143e-002
2.597686e+003,1.235615e-002
2.599615e+003,1.239153e-002
2.601543e+003,1.251333e-002
2.603472e+003,1.257854e-002
2.605400e+003,1.252871e-002
2.607329e+003,1.246388e-002
2.609257e+003,1.246596e-002
2.611186e+003,1.257977e-002
2.613114e+003,1.267763e-002
2.615043e+003,1.265658e-002
2.616971e+003,1.269309e-002
2.618900e+003,1.279620e-002
2.620828e+003,1.288726e-002
2.622757e+003,1.289702e-002
2.624685e+003,1.292692e-002
2.626614e+003,1.293187e-002
2.628542e+003,1.290593e-002
2.630471e+003,1.299199e-002
2.632399e+003,1.308680e-002
2.634328e+003,1.312249e-002
2.636256e+003,1.314571e-002
2.638185e+003,1.321197e-002
2.640113e+003,1.325412e-002
2.642042e+003,1.328678e-002
2.643970e+003,1.332877e-002
2.645899e+003,1.336349e-002
2.647827e+003,1.342910e-002
2.649756e+003,1.348064e-002
2.651684e+003,1.352432e-002
2.653613e+003,1.358264e-002
2.655541e+003,1.362223e-002
2.657470e+003,1.361621e-002
2.659398e+003,1.363211e-002
2.661327e+003,1.367061e-002
2.663255e+003,1.368924e-002
2.665184e+003,1.369981e-002
2.667112e+003,1.368494e-002
2.669041e+003,1.369113e-002
2.670969e+003,1.373168e-002
2.672898e+003,1.371181e-002
2.674826e+003,1.370320e-002
2.676755e+003,1.369530e-002
2.678683e+003,1.372040e-002
2.680612e+003,1.376718e-002
2.682540e+003,1.378059e-002
2.684469e+003,1.374307e-002
2.686397e+003,1.372457e-002
2.688326e+003,1.371352e-002
2.690254e+003,1.374519e-002
2.692183e+003,1.378733e-002
2.694111e+003,1.380357e-002
2.696040e+003,1.383641e-002
2.697968e+003,1.387811e-002
2.699897e+003,1.389905e-002
2.701825e+003,1.392481e-002
2.703754e+003,1.395293e-002
2.705682e+003,1.396659e-002
2.707611e+003,1.395338e-002
2.709539e+003,1.396758e-002
2.711468e+003,1.398674e-002
2.713396e+003,1.404581e-002
2.715325e+003,1.405611e-002
2.717253e+003,1.407609e-002
2.719182e+003,1.407370e-002
2.721110e+003,1.405943e-002
2.723039e+003,1.405334e-002
2.724967e+003,1.403900e-002
2.726896e+003,1.408451e-002
2.728824e+003,1.411484e-002
2.730753e+003,1.411874e-002
2.732681e+003,1.410820e-002
2.734610e+003,1.411409e-002
2.736538e+003,1.419207e-002
2.738467e+003,1.421233e-002
2.740395e+003,1.416933e-002
2.742324e+003,1.415516e-002
2.744252e+003,1.423048e-002
2.746181e+003,1.422565e-002
2.748109e+003,1.426105e-002
2.750038e+003,1.423952e-002
2.751966e+003,1.423349e-002
2.753895e+003,1.425907e-002
2.755823e+003,1.431711e-002
2.757752e+003,1.432430e-002
2.759680e+003,1.434149e-002
2.761609e+003,1.435249e-002
2.763537e+003,1.435988e-002
2.765466e+003,1.440393e-002
2.767394e+003,1.442732e-002
2.769323e+003,1.441646e-002
2.771251e+003,1.442969e-002
2.773180e+003,1.445356e-002
2.775108e+003,1.450782e-002
2.777037e+003,1.443691e-002
2.778965e+003,1.445459e-002
2.780894e+003,1.454596e-002
2.782822e+003,1.461062e-002
2.784750e+003,1.464228e-002
2.786679e+003,1.460154e-002
2.788608e+003,1.456710e-002
2.790536e+003,1.460877e-002
2.792465e+003,1.469712e-002
2.794393e+003,1.472296e-002
2.796322e+003,1.475196e-002
2.798250e+003,1.478082e-002
2.800178e+003,1.478322e-002
2.802107e+003,1.484510e-002
2.804036e+003,1.490199e-002
2.805964e+003,1.490099e-002
2.807893e+003,1.492510e-002
2.809821e+003,1.500865e-002
2.811750e+003,1.505032e-002
2.813678e+003,1.509327e-002
2.815606e+003,1.515063e-002
2.817535e+003,1.519112e-002
2.819464e+003,1.523378e-002
2.821392e+003,1.528838e-002
2.823321e+003,1.536355e-002
2.825249e+003,1.548185e-002
2.827177e+003,1.550259e-002
2.829106e+003,1.553398e-002
2.831034e+003,1.563499e-002
2.832963e+003,1.578546e-002
2.834892e+003,1.591928e-002
2.836820e+003,1.599436e-002
2.838749e+003,1.609970e-002
2.840677e+003,1.621033e-002
2.842605e+003,1.638185e-002
2.844534e+003,1.648973e-002
2.846462e+003,1.659410e-002
2.848391e+003,1.675703e-002
2.850320e+003,1.688557e-002
2.852248e+003,1.694630e-002
2.854177e+003,1.704491e-002
2.856105e+003,1.708772e-002
2.858033e+003,1.715234e-002
2.859962e+003,1.728158e-002
2.861890e+003,1.739217e-002
2.863819e+003,1.744194e-002
2.865748e+003,1.747481e-002
2.867676e+003,1.758066e-002
2.869604e+003,1.768259e-002
2.871533e+003,1.775631e-002
2.873461e+003,1.782241e-002
2.875390e+003,1.789105e-002
2.877319e+003,1.792696e-002
2.879247e+003,1.790749e-002
2.881176e+003,1.794053e-002
2.883104e+003,1.796184e-002
2.885032e+003,1.797517e-002
2.886961e+003,1.803892e-002
2.888889e+003,1.811557e-002
2.890818e+003,1.818311e-002
2.892747e+003,1.816186e-002
2.894675e+003,1.814376e-002
2.896604e+003,1.826020e-002
2.898532e+003,1.828782e-002
2.900460e+003,1.823660e-002
2.902389e+003,1.828222e-002
2.904317e+003,1.832476e-002
2.906246e+003,1.833596e-002
2.908175e+003,1.828571e-002
2.910103e+003,1.824690e-002
2.912031e+003,1.829417e-002
2.913960e+003,1.837011e-002
2.915888e+003,1.841767e-002
2.917817e+003,1.843876e-002
2.919745e+003,1.840678e-002
2.921674e+003,1.836696e-002
2.923603e+003,1.832352e-002
2.925531e+003,1.823135e-002
2.927459e+003,1.817765e-002
2.929388e+003,1.814919e-002
2.931316e+003,1.803112e-002
2.933245e+003,1.783971e-002
2.935173e+003,1.775631e-002
2.937102e+003,1.774692e-002
2.939031e+003,1.768345e-002
2.940959e+003,1.751907e-002
2.942887e+003,1.739400e-002
2.944816e+003,1.730193e-002
2.946744e+003,1.720146e-002
2.948673e+003,1.708961e-002
2.950601e+003,1.692243e-002
2.952530e+003,1.677456e-002
2.954458e+003,1.671942e-002
2.956387e+003,1.662742e-002
2.958315e+003,1.650818e-002
2.960244e+003,1.643271e-002
2.962172e+003,1.640470e-002
2.964101e+003,1.634793e-002
2.966029e+003,1.625914e-002
2.967958e+003,1.620648e-002
2.969886e+003,1.610867e-002
2.971815e+003,1.596610e-002
2.973743e+003,1.589388e-002
2.975672e+003,1.584230e-002
2.977600e+003,1.575234e-002
2.979529e+003,1.564921e-002
2.981457e+003,1.553116e-002
2.983386e+003,1.552450e-002
2.985314e+003,1.556499e-002
2.987243e+003,1.544673e-002
2.989171e+003,1.542901e-002
2.991100e+003,1.540333e-002
2.993028e+003,1.535867e-002
2.994957e+003,1.541030e-002
2.996885e+003,1.542029e-002
2.998814e+003,1.537312e-002
3.000742e+003,1.536767e-002
3.002671e+003,1.539836e-002
3.004599e+003,1.536770e-002
3.006528e+003,1.533372e-002
3.008456e+003,1.528999e-002
3.010385e+003,1.536914e-002
3.012313e+003,1.547859e-002
3.014242e+003,1.549964e-002
3.016170e+003,1.544632e-002
3.018099e+003,1.542620e-002
3.020027e+003,1.551114e-002
3.021956e+003,1.556770e-002
3.023884e+003,1.558543e-002
3.025813e+003,1.562743e-002
3.027741e+003,1.561613e-002
3.029670e+003,1.564715e-002
3.031598e+003,1.569782e-002
3.033527e+003,1.581013e-002
3.035455e+003,1.582694e-002
3.037384e+003,1.583522e-002
3.039312e+003,1.589306e-002
3.041241e+003,1.599642e-002
3.043169e+003,1.609468e-002
3.045098e+003,1.609550e-002
3.047026e+003,1.608722e-002
3.048955e+003,1.613501e-002
3.050883e+003,1.617329e-002
3.052812e+003,1.619337e-002
3.054740e+003,1.630114e-002
3.056669e+003,1.641433e-002
3.058597e+003,1.648943e-002
3.060526e+003,1.653912e-002
3.062454e+003,1.652436e-002
3.064383e+003,1.654408e-002
3.066311e+003,1.660122e-002
3.068240e+003,1.657331e-002
3.070168e+003,1.661826e-002
3.072097e+003,1.675899e-002
3.074025e+003,1.680803e-002
3.075954e+003,1.689256e-002
3.077882e+003,1.696639e-002
3.079811e+003,1.700219e-002
3.081739e+003,1.703864e-002
3.083668e+003,1.702958e-002
3.085596e+003,1.709764e-002
3.087525e+003,1.715434e-002
3.089453e+003,1.719870e-002
3.091382e+003,1.728896e-002
3.093310e+003,1.738559e-002
3.095239e+003,1.736527e-002
3.097167e+003,1.742590e-002
3.099096e+003,1.748354e-002
3.101024e+003,1.752432e-002
3.102953e+003,1.757155e-002
3.104881e+003,1.760715e-002
3.106810e+003,1.766395e-002
3.108738e+003,1.774720e-002
3.110667e+003,1.779652e-002
3.112595e+003,1.787241e-002
3.114524e+003,1.800618e-002
3.116452e+003,1.805737e-002
3.118381e+003,1.810711e-002
3.120309e+003,1.823176e-002
3.122238e+003,1.825969e-002
3.124166e+003,1.829749e-002
3.126095e+003,1.835310e-002
3.128023e+003,1.843924e-002
3.129952e+003,1.853868e-002
3.131880e+003,1.862656e-002
3.133809e+003,1.864046e-002
3.135737e+003,1.873261e-002
3.137666e+003,1.886938e-002
3.139594e+003,1.894061e-002
3.141523e+003,1.901108e-002
3.143451e+003,1.908846e-002
3.145380e+003,1.916820e-002
3.147308e+003,1.928935e-002
3.149237e+003,1.936979e-002
3.151165e+003,1.941279e-002
3.153094e+003,1.947457e-002
3.155022e+003,1.949813e-002
3.156951e+003,1.961785e-002
3.158879e+003,1.970563e-002
3.160808e+003,1.984972e-002
3.162736e+003,1.988479e-002
3.164665e+003,1.996221e-002
3.166593e+003,2.010590e-002
3.168522e+003,2.016445e-002
3.170450e+003,2.022103e-002
3.172379e+003,2.030181e-002
3.174307e+003,2.040018e-002
3.176236e+003,2.054304e-002
3.178164e+003,2.063414e-002
3.180093e+003,2.070902e-002
3.182021e+003,2.083957e-002
3.183950e+003,2.095976e-002
3.185878e+003,2.105282e-002
3.187807e+003,2.109981e-002
3.189735e+003,2.120539e-002
3.191664e+003,2.128852e-002
3.193592e+003,2.136592e-002
3.195521e+003,2.138910e-002
3.197449e+003,2.144452e-002
3.199378e+003,2.164260e-002
3.201306e+003,2.180967e-002
3.203235e+003,2.196926e-002
3.205163e+003,2.206101e-002
3.207092e+003,2.205682e-002
3.209020e+003,2.211724e-002
3.210948e+003,2.230482e-002
3.212877e+003,2.248097e-002
3.214806e+003,2.254511e-002
3.216734e+003,2.263799e-002
3.218663e+003,2.277124e-002
3.220591e+003,2.287968e-002
3.222520e+003,2.295432e-002
3.224448e+003,2.299307e-002
3.226376e+003,2.312878e-002
3.228305e+003,2.323957e-002
3.230234e+003,2.329715e-002
3.232162e+003,2.347768e-002
3.234091e+003,2.362324e-002
3.236019e+003,2.369605e-002
3.237948e+003,2.385106e-002
3.239876e+003,2.392345e-002
3.241804e+003,2.398623e-002
3.243733e+003,2.418877e-002
3.245662e+003,2.434539e-002
3.247590e+003,2.442530e-002
3.249519e+003,2.453187e-002
3.251447e+003,2.473488e-002
3.253375e+003,2.480630e-002
3.255304e+003,2.485201e-002
3.257232e+003,2.501701e-002
3.259161e+003,2.519662e-002
3.261090e+003,2.537137e-002
3.263018e+003,2.545337e-002
3.264947e+003,2.552259e-002
3.266875e+003,2.557780e-002
3.268803e+003,2.577595e-002
3.270732e+003,2.584599e-002
3.272660e+003,2.583428e-002
3.274589e+003,2.593733e-002
3.276518e+003,2.606590e-002
3.278446e+003,2.623457e-002
3.280375e+003,2.628776e-002
3.282303e+003,2.626439e-002
3.284231e+003,2.628086e-002
3.286160e+003,2.641140e-002
3.288088e+003,2.646053e-002
3.290017e+003,2.652790e-002
3.291946e+003,2.661931e-002
3.293874e+003,2.659352e-002
3.295802e+003,2.666187e-002
3.297731e+003,2.670017e-002
3.299659e+003,2.672282e-002
3.301588e+003,2.678537e-002
3.303516e+003,2.686097e-002
3.305445e+003,2.684955e-002
3.307374e+003,2.684737e-002
3.309302e+003,2.688103e-002
3.311230e+003,2.699353e-002
3.313159e+003,2.716471e-002
3.315087e+003,2.725381e-002
3.317016e+003,2.720308e-002
3.318944e+003,2.723042e-002
3.320873e+003,2.733313e-002
3.322802e+003,2.738719e-002
3.324730e+003,2.732597e-002
3.326658e+003,2.737710e-002
3.328587e+003,2.750706e-002
3.330515e+003,2.756146e-002
3.332444e+003,2.750310e-002
3.334372e+003,2.744229e-002
3.336301e+003,2.750699e-002
3.338229e+003,2.759193e-002
3.340158e+003,2.752326e-002
3.342086e+003,2.745309e-002
3.344015e+003,2.747451e-002
3.345943e+003,2.735868e-002
3.347872e+003,2.713151e-002
3.349800e+003,2.709536e-002
3.351729e+003,2.719934e-002
3.353657e+003,2.722503e-002
3.355586e+003,2.706617e-002
3.357514e+003,2.699278e-002
3.359443e+003,2.696761e-002
3.361371e+003,2.691180e-002
3.363300e+003,2.684638e-002
3.365229e+003,2.680606e-002
3.367157e+003,2.674735e-002
3.369085e+003,2.666500e-002
3.371014e+003,2.669509e-002
3.372942e+003,2.656013e-002
3.374871e+003,2.642810e-002
3.376799e+003,2.631075e-002
3.378728e+003,2.624784e-002
3.380656e+003,2.627544e-002
3.382585e+003,2.617393e-002
3.384513e+003,2.610500e-002
3.386442e+003,2.601021e-002
3.388370e+003,2.595484e-002
3.390299e+003,2.585250e-002
3.392227e+003,2.576684e-002
3.394156e+003,2.575541e-002
3.396084e+003,2.566377e-002
3.398013e+003,2.554265e-002
3.399941e+003,2.548822e-002
3.401870e+003,2.544318e-002
3.403798e+003,2.533586e-002
3.405727e+003,2.521249e-002
3.407655e+003,2.511365e-002
3.409584e+003,2.499504e-002
3.411512e+003,2.498669e-002
3.413441e+003,2.490850e-002
3.415369e+003,2.474114e-002
3.417298e+003,2.454944e-002
3.419226e+003,2.438072e-002
3.421155e+003,2.427172e-002
3.423083e+003,2.415914e-002
3.425012e+003,2.404772e-002
3.426940e+003,2.389186e-002
3.428869e+003,2.372441e-002
3.430797e+003,2.358003e-002
3.432726e+003,2.345238e-002
3.434654e+003,2.332437e-002
3.436583e+003,2.314532e-002
3.438511e+003,2.296713e-002
3.440440e+003,2.281665e-002
3.442368e+003,2.269430e-002
3.444297e+003,2.257764e-002
3.446225e+003,2.242702e-002
3.448154e+003,2.219078e-002
3.450082e+003,2.195211e-002
3.452011e+003,2.177659e-002
3.453939e+003,2.164525e-002
3.455868e+003,2.152530e-002
3.457796e+003,2.138116e-002
3.459725e+003,2.119320e-002
3.461653e+003,2.106772e-002
3.463582e+003,2.086502e-002
3.465510e+003,2.072912e-002
3.467439e+003,2.065378e-002
3.469367e+003,2.051212e-002
3.471296e+003,2.031821e-002
3.473224e+003,2.008594e-002
3.475153e+003,1.990333e-002
3.477081e+003,1.978610e-002
3.479010e+003,1.965982e-002
3.480938e+003,1.952268e-002
3.482867e+003,1.939165e-002
3.484795e+003,1.921208e-002
3.486724e+003,1.895587e-002
3.488652e+003,1.873064e-002
3.490581e+003,1.864112e-002
3.492509e+003,1.855719e-002
3.494438e+003,1.845584e-002
3.496366e+003,1.833692e-002
3.498295e+003,1.818505e-002
3.500223e+003,1.799058e-002
3.502152e+003,1.780054e-002
3.504080e+003,1.760121e-002
3.506009e+003,1.752468e-002
3.507937e+003,1.739988e-002
3.509866e+003,1.718033e-002
3.511794e+003,1.708563e-002
3.513723e+003,1.700817e-002
3.515651e+003,1.690377e-002
3.517580e+003,1.676031e-002
3.519508e+003,1.656356e-002
3.521437e+003,1.639861e-002
3.523365e+003,1.628025e-002
3.525294e+003,1.612380e-002
3.527222e+003,1.600435e-002
3.529151e+003,1.589968e-002
3.531079e+003,1.576553e-002
3.533008e+003,1.570262e-002
3.534936e+003,1.554165e-002
3.536865e+003,1.531330e-002
3.538793e+003,1.519162e-002
3.540722e+003,1.505807e-002
3.542650e+003,1.496083e-002
3.544579e+003,1.489794e-002
3.546507e+003,1.477937e-002
3.548436e+003,1.468690e-002
3.550364e+003,1.461013e-002
3.552293e+003,1.446791e-002
3.554221e+003,1.422270e-002
3.556150e+003,1.405190e-002
3.558078e+003,1.400726e-002
3.560007e+003,1.384986e-002
3.561935e+003,1.374075e-002
3.563864e+003,1.361863e-002
3.565792e+003,1.353521e-002
3.567721e+003,1.344638e-002
3.569649e+003,1.327784e-002
3.571578e+003,1.316534e-002
3.573506e+003,1.310648e-002
3.575435e+003,1.300428e-002
3.577363e+003,1.289968e-002
3.579292e+003,1.284915e-002
3.581220e+003,1.282186e-002
3.583149e+003,1.263078e-002
3.585077e+003,1.257668e-002
3.587006e+003,1.236962e-002
3.588934e+003,1.231079e-002
3.590863e+003,1.245301e-002
3.592791e+003,1.236606e-002
3.594720e+003,1.218594e-002
3.596648e+003,1.213436e-002
3.598577e+003,1.211885e-002
3.600505e+003,1.198848e-002
3.602434e+003,1.181398e-002
3.604362e+003,1.169747e-002
3.606291e+003,1.161638e-002
3.608219e+003,1.155180e-002
3.610148e+003,1.137944e-002
3.612076e+003,1.111054e-002
3.614005e+003,1.112874e-002
3.615933e+003,1.120206e-002
3.617862e+003,1.122778e-002
3.619790e+003,1.121662e-002
3.621719e+003,1.109209e-002
3.623647e+003,1.110372e-002
3.625576e+003,1.104521e-002
3.627504e+003,1.103336e-002
3.629433e+003,1.088810e-002
3.631361e+003,1.073180e-002
3.633290e+003,1.077750e-002
3.635218e+003,1.081156e-002
3.637146e+003,1.072074e-002
3.639075e+003,1.056624e-002
3.641004e+003,1.041840e-002
3.642932e+003,1.029581e-002
3.644861e+003,1.024006e-002
3.646789e+003,1.020894e-002
3.648718e+003,1.005940e-002
3.650646e+003,1.001634e-002
3.652574e+003,9.932848e-003
3.654503e+003,9.744644e-003
3.656432e+003,9.728257e-003
3.658360e+003,9.872579e-003
3.660289e+003,9.860694e-003
3.662217e+003,9.749259e-003
3.664146e+003,9.666967e-003
3.666074e+003,9.614785e-003
3.668002e+003,9.656551e-003
3.669931e+003,9.764473e-003
3.671860e+003,9.729507e-003
3.673788e+003,9.793438e-003
3.675717e+003,9.784417e-003
3.677645e+003,9.713124e-003
3.679573e+003,9.671702e-003
3.681502e+003,9.726505e-003
3.683430e+003,9.803689e-003
3.685359e+003,9.820011e-003
3.687288e+003,9.777114e-003
3.689216e+003,9.870928e-003
3.691145e+003,9.993219e-003
3.693073e+003,1.010956e-002
3.695001e+003,1.007368e-002
3.696930e+003,9.970268e-003
3.698858e+003,1.005606e-002
3.700787e+003,1.021038e-002
3.702716e+003,1.016759e-002
3.704644e+003,1.016226e-002
3.706573e+003,1.028890e-002
3.708501e+003,1.024440e-002
3.710429e+003,1.008983e-002
3.712358e+003,1.001054e-002
3.714286e+003,9.956502e-003
3.716215e+003,9.965638e-003
3.718144e+003,1.012708e-002
3.720072e+003,1.029336e-002
3.722000e+003,1.049975e-002
3.723929e+003,1.052014e-002
3.725857e+003,1.050557e-002
3.727786e+003,1.036060e-002
3.729714e+003,1.034402e-002
3.731643e+003,1.041070e-002
3.733572e+003,1.037625e-002
3.735500e+003,1.031385e-002
3.737428e+003,1.017423e-002
3.739357e+003,1.009475e-002
3.741285e+003,1.007427e-002
3.743214e+003,1.005267e-002
3.745142e+003,9.978848e-003
3.747071e+003,9.876800e-003
3.749000e+003,9.795427e-003
3.750928e+003,9.902665e-003
3.752856e+003,9.937158e-003
3.754785e+003,9.893274e-003
3.756713e+003,9.993332e-003
3.758642e+003,1.000939e-002
3.760570e+003,1.001151e-002
3.762499e+003,1.006186e-002
3.764427e+003,9.950342e-003
3.766356e+003,9.868209e-003
3.768284e+003,9.991365e-003
3.770213e+003,1.001196e-002
3.772141e+003,1.000434e-002
3.774070e+003,9.894687e-003
3.775998e+003,9.878195e-003
3.777927e+003,9.939278e-003
3.779855e+003,9.968069e-003
3.781784e+003,1.003482e-002
3.783712e+003,1.011523e-002
3.785641e+003,1.014177e-002
3.787569e+003,1.004546e-002
3.789498e+003,9.947670e-003
3.791426e+003,1.001567e-002
3.793355e+003,9.989399e-003
3.795283e+003,9.956478e-003
3.797212e+003,9.933465e-003
3.799140e+003,9.911865e-003
3.801069e+003,9.995886e-003
3.802997e+003,1.009880e-002
3.804926e+003,1.013490e-002
3.806854e+003,1.011483e-002
3.808783e+003,1.012067e-002
3.810711e+003,1.012887e-002
3.812640e+003,1.011583e-002
3.814568e+003,1.005768e-002
3.816497e+003,1.012028e-002
3.818425e+003,1.015624e-002
3.820354e+003,1.009317e-002
3.822282e+003,1.010146e-002
3.824211e+003,1.013159e-002
3.826139e+003,1.014015e-002
3.828068e+003,1.011632e-002
3.829996e+003,1.010287e-002
3.831925e+003,1.015784e-002
3.833853e+003,1.017881e-002
3.835782e+003,1.021951e-002
3.837710e+003,1.020812e-002
3.839639e+003,1.021294e-002
3.841567e+003,1.019465e-002
3.843496e+003,1.012633e-002
3.845424e+003,1.023238e-002
3.847353e+003,1.027738e-002
3.849281e+003,1.024485e-002
3.851210e+003,1.023246e-002
3.853138e+003,1.021376e-002
3.855067e+003,1.022718e-002
3.856995e+003,1.027940e-002
3.858924e+003,1.029049e-002
3.860852e+003,1.024836e-002
3.862781e+003,1.022155e-002
3.864709e+003,1.020810e-002
3.866638e+003,1.021714e-002
3.868566e+003,1.020934e-002
3.870495e+003,1.026641e-002
3.872423e+003,1.017333e-002
3.874352e+003,1.013960e-002
3.876280e+003,1.022779e-002
3.878209e+003,1.019776e-002
3.880137e+003,1.027948e-002
3.882066e+003,1.033862e-002
3.883994e+003,1.024057e-002
3.885923e+003,1.023256e-002
3.887851e+003,1.031905e-002
3.889780e+003,1.030452e-002
3.891708e+003,1.025282e-002
3.893637e+003,1.037537e-002
3.895565e+003,1.034274e-002
3.897494e+003,1.021812e-002
3.899422e+003,1.022738e-002
3.901351e+003,1.033792e-002
3.903279e+003,1.041027e-002
3.905208e+003,1.039436e-002
3.907136e+003,1.034622e-002
3.909065e+003,1.038593e-002
3.910993e+003,1.043132e-002
3.912922e+003,1.034958e-002
3.914850e+003,1.028173e-002
3.916779e+003,1.027597e-002
3.918707e+003,1.031191e-002
3.920636e+003,1.032518e-002
3.922564e+003,1.036545e-002
3.924493e+003,1.037502e-002
3.926421e+003,1.028849e-002
3.928350e+003,1.028138e-002
3.930278e+003,1.036553e-002
3.932207e+003,1.036904e-002
3.934135e+003,1.033770e-002
3.936064e+003,1.035078e-002
3.937992e+003,1.039847e-002
3.939921e+003,1.038896e-002
3.941849e+003,1.040243e-002
3.943778e+003,1.039570e-002
3.945706e+003,1.032533e-002
3.947635e+003,1.037197e-002
3.949563e+003,1.044738e-002
3.951492e+003,1.039167e-002
3.953420e+003,1.034256e-002
3.955349e+003,1.035608e-002
3.957277e+003,1.039247e-002
3.959206e+003,1.042540e-002
3.961134e+003,1.041106e-002
3.963063e+003,1.042288e-002
3.964991e+003,1.041485e-002
3.966920e+003,1.045324e-002
3.968848e+003,1.049169e-002
3.970777e+003,1.041947e-002
3.972705e+003,1.038102e-002
3.974634e+003,1.033133e-002
3.976562e+003,1.035770e-002
3.978491e+003,1.032281e-002
3.980419e+003,1.034038e-002
3.982348e+003,1.039886e-002
3.984276e+003,1.034350e-002
3.986205e+003,1.030751e-002
3.988133e+003,1.033961e-002
3.990062e+003,1.039995e-002
3.991990e+003,1.039815e-002
3.993919e+003,1.040326e-002
3.995847e+003,1.046678e-002
3.997776e+003,1.041693e-002
3.999704e+003,1.041669e-002
4.001633e+003,0.000000e+000
