3.991989e+002,7.130017e-002
4.011274e+002,7.266556e-002
4.030559e+002,7.266556e-002
4.049844e+002,7.499348e-002
4.069129e+002,7.776079e-002
4.088414e+002,7.707944e-002
4.107699e+002,7.465490e-002
4.126984e+002,7.312125e-002
4.146269e+002,7.353889e-002
4.165554e+002,7.314771e-002
4.184839e+002,7.141281e-002
4.204124e+002,7.052805e-002
4.223409e+002,7.210848e-002
4.242694e+002,7.273116e-002
4.261979e+002,7.162355e-002
4.281264e+002,7.186091e-002
4.300549e+002,7.255694e-002
4.319834e+002,7.322843e-002
4.339119e+002,7.288758e-002
4.358404e+002,7.162215e-002
4.377689e+002,7.208262e-002
4.396974e+002,7.305203e-002
4.416259e+002,7.209994e-002
4.435544e+002,7.021711e-002
4.454829e+002,6.905811e-002
4.474114e+002,6.855398e-002
4.493399e+002,6.721558e-002
4.512684e+002,6.619863e-002
4.531969e+002,6.682505e-002
4.551254e+002,6.714465e-002
4.570539e+002,6.681063e-002
4.589824e+002,6.647355e-002
4.609109e+002,6.669892e-002
4.628394e+002,6.647935e-002
4.647679e+002,6.660037e-002
4.666964e+002,6.756181e-002
4.686249e+002,6.741797e-002
4.705533e+002,6.755331e-002
4.724819e+002,6.800051e-002
4.744103e+002,6.803910e-002
4.763389e+002,6.765808e-002
4.782673e+002,6.827927e-002
4.801959e+002,6.854894e-002
4.821243e+002,6.849356e-002
4.840529e+002,6.805114e-002
4.859813e+002,6.824446e-002
4.879099e+002,6.850991e-002
4.898383e+002,6.852212e-002
4.917668e+002,6.820453e-002
4.936953e+002,6.747890e-002
4.956238e+002,6.805769e-002
4.975523e+002,6.878600e-002
4.994808e+002,6.893157e-002
5.014093e+002,6.896508e-002
5.033378e+002,6.934360e-002
5.052663e+002,7.010509e-002
5.071948e+002,7.040617e-002
5.091233e+002,7.081901e-002
5.110518e+002,7.096955e-002
5.129803e+002,7.127214e-002
5.149088e+002,7.237163e-002
5.168373e+002,7.316069e-002
5.187658e+002,7.317802e-002
5.206943e+002,7.365073e-002
5.226228e+002,7.397910e-002
5.245513e+002,7.388546e-002
5.264798e+002,7.389756e-002
5.284083e+002,7.325880e-002
5.303368e+002,7.231479e-002
5.322653e+002,7.195354e-002
5.341938e+002,7.154522e-002
5.361223e+002,7.050553e-002
5.380508e+002,6.936309e-002
5.399792e+002,6.808186e-002
5.419078e+002,6.677082e-002
5.438363e+002,6.612919e-002
5.457648e+002,6.571133e-002
5.476932e+002,6.526793e-002
5.496218e+002,6.528843e-002
5.515503e+002,6.570946e-002
5.534788e+002,6.596924e-002
5.554072e+002,6.637980e-002
5.573358e+002,6.696142e-002
5.592643e+002,6.732922e-002
5.611927e+002,6.786508e-002
5.631212e+002,6.861040e-002
5.650497e+002,6.959613e-002
5.669783e+002,7.116047e-002
5.689067e+002,7.251717e-002
5.708352e+002,7.332989e-002
5.727637e+002,7.354018e-002
5.746923e+002,7.342097e-002
5.766207e+002,7.252435e-002
5.785492e+002,7.087357e-002
5.804777e+002,6.888002e-002
5.824063e+002,6.748962e-002
5.843347e+002,6.620052e-002
5.862632e+002,6.428807e-002
5.881917e+002,6.280590e-002
5.901202e+002,6.228883e-002
5.920487e+002,6.204683e-002
5.939772e+002,6.166469e-002
5.959057e+002,6.132360e-002
5.978342e+002,6.087238e-002
5.997627e+002,6.095510e-002
6.016912e+002,6.101718e-002
6.036197e+002,6.067740e-002
6.055482e+002,6.032091e-002
6.074767e+002,6.008274e-002
6.094052e+002,6.005118e-002
6.113337e+002,5.968300e-002
6.132622e+002,5.906540e-002
6.151907e+002,5.819780e-002
6.171192e+002,5.715928e-002
6.190477e+002,5.648316e-002
6.209762e+002,5.592766e-002
6.229047e+002,5.525696e-002
6.248332e+002,5.443473e-002
6.267617e+002,5.386192e-002
6.286902e+002,5.351036e-002
6.306187e+002,5.316063e-002
6.325472e+002,5.265854e-002
6.344756e+002,5.217299e-002
6.364042e+002,5.181105e-002
6.383326e+002,5.145012e-002
6.402612e+002,5.117849e-002
6.421896e+002,5.109851e-002
6.441182e+002,5.106219e-002
6.460466e+002,5.074121e-002
6.479752e+002,5.049470e-002
6.499036e+002,5.039584e-002
6.518322e+002,5.037605e-002
6.537606e+002,5.021452e-002
6.556891e+002,4.981188e-002
6.576177e+002,4.967858e-002
6.595461e+002,4.944355e-002
6.614746e+002,4.903822e-002
6.634031e+002,4.892768e-002
6.653317e+002,4.864002e-002
6.672601e+002,4.839766e-002
6.691886e+002,4.842317e-002
6.711171e+002,4.806270e-002
6.730457e+002,4.771232e-002
6.749741e+002,4.741481e-002
6.769026e+002,4.747256e-002
6.788311e+002,4.733058e-002
6.807596e+002,4.711375e-002
6.826881e+002,4.690253e-002
6.846166e+002,4.664505e-002
6.865451e+002,4.657276e-002
6.884736e+002,4.652551e-002
6.904021e+002,4.615795e-002
6.923306e+002,4.607782e-002
6.942591e+002,4.637114e-002
6.961876e+002,4.656409e-002
6.981161e+002,4.670775e-002
7.000446e+002,4.704132e-002
7.019731e+002,4.717598e-002
7.039016e+002,4.724683e-002
7.058301e+002,4.712785e-002
7.077585e+002,4.686884e-002
7.096871e+002,4.649216e-002
7.116156e+002,4.598035e-002
7.135441e+002,4.529936e-002
7.154725e+002,4.454796e-002
7.174011e+002,4.386906e-002
7.193296e+002,4.303056e-002
7.212581e+002,4.227459e-002
7.231865e+002,4.178406e-002
7.251151e+002,4.100546e-002
7.270436e+002,4.031694e-002
7.289720e+002,3.989355e-002
7.309005e+002,3.942593e-002
7.328290e+002,3.906402e-002
7.347576e+002,3.881322e-002
7.366860e+002,3.842201e-002
7.386145e+002,3.844994e-002
7.405430e+002,3.864099e-002
7.424716e+002,3.863686e-002
7.444000e+002,3.880746e-002
7.463285e+002,3.917481e-002
7.482570e+002,3.945387e-002
7.501855e+002,3.971574e-002
7.521140e+002,3.996992e-002
7.540425e+002,4.025470e-002
7.559710e+002,4.056192e-002
7.578995e+002,4.064009e-002
7.598280e+002,4.066389e-002
7.617565e+002,4.060022e-002
7.636850e+002,4.031399e-002
7.656135e+002,3.987611e-002
7.675420e+002,3.925047e-002
7.694705e+002,3.856699e-002
7.713990e+002,3.781579e-002
7.733275e+002,3.697774e-002
7.752560e+002,3.621091e-002
7.771844e+002,3.534945e-002
7.791130e+002,3.461068e-002
7.810415e+002,3.395951e-002
7.829700e+002,3.353453e-002
7.848984e+002,3.318204e-002
7.868270e+002,3.278995e-002
7.887555e+002,3.241488e-002
7.906840e+002,3.216811e-002
7.926124e+002,3.206339e-002
7.945410e+002,3.178816e-002
7.964695e+002,3.151199e-002
7.983979e+002,3.134265e-002
8.003264e+002,3.106534e-002
8.022549e+002,3.078053e-002
8.041835e+002,3.057735e-002
8.061119e+002,3.042408e-002
8.080404e+002,3.050369e-002
8.099689e+002,3.058453e-002
8.118975e+002,3.049146e-002
8.138259e+002,3.040972e-002
8.157545e+002,3.038197e-002
8.176830e+002,3.033762e-002
8.196115e+002,3.036015e-002
8.215399e+002,3.055882e-002
8.234684e+002,3.067740e-002
8.253970e+002,3.084854e-002
8.273254e+002,3.106463e-002
8.292539e+002,3.139487e-002
8.311824e+002,3.172203e-002
8.331110e+002,3.206525e-002
8.350394e+002,3.234502e-002
8.369679e+002,3.259846e-002
8.388964e+002,3.298005e-002
8.408250e+002,3.341718e-002
8.427534e+002,3.372439e-002
8.446819e+002,3.393213e-002
8.466104e+002,3.413958e-002
8.485389e+002,3.432971e-002
8.504674e+002,3.458973e-002
8.523959e+002,3.486337e-002
8.543244e+002,3.513299e-002
8.562529e+002,3.550807e-002
8.581814e+002,3.584627e-002
8.601099e+002,3.607069e-002
8.620384e+002,3.600330e-002
8.639669e+002,3.549246e-002
8.658954e+002,3.476519e-002
8.678239e+002,3.395231e-002
8.697524e+002,3.304411e-002
8.716809e+002,3.221385e-002
8.736094e+002,3.156487e-002
8.755378e+002,3.101698e-002
8.774664e+002,3.069898e-002
8.793949e+002,3.065646e-002
8.813234e+002,3.079241e-002
8.832518e+002,3.100524e-002
8.851804e+002,3.138083e-002
8.871089e+002,3.177129e-002
8.890374e+002,3.221353e-002
8.909658e+002,3.261393e-002
8.928943e+002,3.304876e-002
8.948229e+002,3.344202e-002
8.967513e+002,3.384494e-002
8.986798e+002,3.416228e-002
9.006083e+002,3.454513e-002
9.025369e+002,3.487314e-002
9.044653e+002,3.519744e-002
9.063938e+002,3.558603e-002
9.083223e+002,3.615686e-002
9.102509e+002,3.672472e-002
9.121793e+002,3.737909e-002
9.141078e+002,3.808156e-002
9.160364e+002,3.883196e-002
9.179648e+002,3.960488e-002
9.198933e+002,4.023790e-002
9.218218e+002,4.072524e-002
9.237504e+002,4.108661e-002
9.256788e+002,4.127725e-002
9.276073e+002,4.146819e-002
9.295358e+002,4.153618e-002
9.314644e+002,4.155951e-002
9.333928e+002,4.143225e-002
9.353213e+002,4.121265e-002
9.372498e+002,4.082707e-002
9.391783e+002,4.038097e-002
9.411068e+002,4.002821e-002
9.430353e+002,3.978841e-002
9.449637e+002,3.963907e-002
9.468923e+002,3.964866e-002
9.488208e+002,3.980268e-002
9.507493e+002,4.015420e-002
9.526777e+002,4.075279e-002
9.546063e+002,4.166355e-002
9.565348e+002,4.272661e-002
9.584633e+002,4.391440e-002
9.603917e+002,4.522260e-002
9.623203e+002,4.663248e-002
9.642488e+002,4.806051e-002
9.661772e+002,4.967476e-002
9.681057e+002,5.144544e-002
9.700343e+002,5.335219e-002
9.719628e+002,5.551529e-002
9.738912e+002,5.789229e-002
9.758197e+002,6.052775e-002
9.777483e+002,6.339575e-002
9.796768e+002,6.645034e-002
9.816052e+002,6.968590e-002
9.835337e+002,7.293783e-002
9.854623e+002,7.611815e-002
9.873907e+002,7.909313e-002
9.893192e+002,8.169642e-002
9.912477e+002,8.374498e-002
9.931763e+002,8.534709e-002
9.951047e+002,8.655114e-002
9.970332e+002,8.728792e-002
9.989617e+002,8.764856e-002
1.000890e+003,8.766580e-002
1.002819e+003,8.750255e-002
1.004747e+003,8.740274e-002
1.006676e+003,8.736611e-002
1.008604e+003,8.751982e-002
1.010533e+003,8.780323e-002
1.012461e+003,8.816089e-002
1.014390e+003,8.839290e-002
1.016318e+003,8.816524e-002
1.018247e+003,8.750024e-002
1.020175e+003,8.652198e-002
1.022104e+003,8.506266e-002
1.024032e+003,8.315131e-002
1.025961e+003,8.090343e-002
1.027889e+003,7.849427e-002
1.029818e+003,7.605881e-002
1.031746e+003,7.379721e-002
1.033675e+003,7.172305e-002
1.035603e+003,7.007551e-002
1.037532e+003,6.890904e-002
1.039460e+003,6.814478e-002
1.041389e+003,6.755307e-002
1.043317e+003,6.686766e-002
1.045246e+003,6.586151e-002
1.047174e+003,6.462642e-002
1.049103e+003,6.314580e-002
1.051031e+003,6.119112e-002
1.052960e+003,5.860163e-002
1.054888e+003,5.577781e-002
1.056817e+003,5.306220e-002
1.058745e+003,5.060519e-002
1.060674e+003,4.835133e-002
1.062602e+003,4.628840e-002
1.064531e+003,4.475990e-002
1.066459e+003,4.438108e-002
1.068388e+003,4.546892e-002
1.070316e+003,4.806999e-002
1.072245e+003,5.136734e-002
1.074173e+003,5.407467e-002
1.076102e+003,5.527631e-002
1.078030e+003,5.488628e-002
1.079959e+003,5.337512e-002
1.081887e+003,5.132512e-002
1.083816e+003,4.898385e-002
1.085744e+003,4.655620e-002
1.087673e+003,4.433425e-002
1.089601e+003,4.232884e-002
1.091530e+003,4.065938e-002
1.093458e+003,3.933357e-002
1.095387e+003,3.847365e-002
1.097315e+003,3.814859e-002
1.099244e+003,3.809404e-002
1.101172e+003,3.818955e-002
1.103101e+003,3.817182e-002
1.105029e+003,3.788665e-002
1.106958e+003,3.724639e-002
1.108886e+003,3.639052e-002
1.110815e+003,3.551724e-002
1.112743e+003,3.478680e-002
1.114672e+003,3.424322e-002
1.116600e+003,3.402415e-002
1.118529e+003,3.398262e-002
1.120457e+003,3.397298e-002
1.122386e+003,3.395052e-002
1.124314e+003,3.388990e-002
1.126243e+003,3.363237e-002
1.128171e+003,3.321716e-002
1.130100e+003,3.278880e-002
1.132028e+003,3.251221e-002
1.133957e+003,3.261421e-002
1.135885e+003,3.312156e-002
1.137814e+003,3.406504e-002
1.139742e+003,3.525727e-002
1.141671e+003,3.661278e-002
1.143599e+003,3.793199e-002
1.145528e+003,3.901476e-002
1.147456e+003,3.974302e-002
1.149385e+003,3.994465e-002
1.151313e+003,3.964783e-002
1.153242e+003,3.878881e-002
1.155170e+003,3.733236e-002
1.157099e+003,3.548642e-002
1.159027e+003,3.345268e-002
1.160956e+003,3.125982e-002
1.162884e+003,2.898272e-002
1.164813e+003,2.670982e-002
1.166741e+003,2.455943e-002
1.168670e+003,2.267492e-002
1.170598e+003,2.113780e-002
1.172526e+003,1.995749e-002
1.174455e+003,1.903130e-002
1.176384e+003,1.830537e-002
1.178312e+003,1.780508e-002
1.180240e+003,1.742708e-002
1.182169e+003,1.716744e-002
1.184098e+003,1.709209e-002
1.186026e+003,1.717486e-002
1.187954e+003,1.731206e-002
1.189883e+003,1.758385e-002
1.191812e+003,1.794149e-002
1.193740e+003,1.827292e-002
1.195668e+003,1.861639e-002
1.197597e+003,1.895427e-002
1.199526e+003,1.930032e-002
1.201454e+003,1.956238e-002
1.203382e+003,1.977509e-002
1.205311e+003,1.994201e-002
1.207240e+003,2.001340e-002
1.209168e+003,2.002599e-002
1.211096e+003,2.007825e-002
1.213025e+003,2.012535e-002
1.214953e+003,2.018780e-002
1.216882e+003,2.030649e-002
1.218810e+003,2.049547e-002
1.220739e+003,2.073427e-002
1.222667e+003,2.106040e-002
1.224596e+003,2.143644e-002
1.226524e+003,2.179586e-002
1.228453e+003,2.211583e-002
1.230381e+003,2.242634e-002
1.232310e+003,2.271329e-002
1.234238e+003,2.298135e-002
1.236167e+003,2.315262e-002
1.238095e+003,2.320489e-002
1.240024e+003,2.329252e-002
1.241952e+003,2.332429e-002
1.243881e+003,2.320967e-002
1.245809e+003,2.308899e-002
1.247738e+003,2.298928e-002
1.249666e+003,2.286707e-002
1.251595e+003,2.272633e-002
1.253523e+003,2.262195e-002
1.255452e+003,2.255753e-002
1.257380e+003,2.249931e-002
1.259309e+003,2.249235e-002
1.261237e+003,2.248806e-002
1.263166e+003,2.248145e-002
1.265094e+003,2.244705e-002
1.267023e+003,2.237492e-002
1.268951e+003,2.232334e-002
1.270880e+003,2.229860e-002
1.272808e+003,2.235313e-002
1.274737e+003,2.242438e-002
1.276665e+003,2.251823e-002
1.278594e+003,2.266057e-002
1.280522e+003,2.283599e-002
1.282451e+003,2.298500e-002
1.284379e+003,2.310307e-002
1.286308e+003,2.325432e-002
1.288236e+003,2.339300e-002
1.290165e+003,2.349286e-002
1.292093e+003,2.362550e-002
1.294022e+003,2.372612e-002
1.295950e+003,2.387356e-002
1.297879e+003,2.405384e-002
1.299807e+003,2.414716e-002
1.301736e+003,2.421687e-002
1.303664e+003,2.433765e-002
1.305593e+003,2.446920e-002
1.307521e+003,2.459327e-002
1.309450e+003,2.468580e-002
1.311378e+003,2.475504e-002
1.313307e+003,2.482779e-002
1.315235e+003,2.491472e-002
1.317164e+003,2.497679e-002
1.319092e+003,2.506938e-002
1.321021e+003,2.519995e-002
1.322949e+003,2.531522e-002
1.324878e+003,2.550995e-002
1.326806e+003,2.575080e-002
1.328735e+003,2.602916e-002
1.330663e+003,2.624842e-002
1.332592e+003,2.641085e-002
1.334520e+003,2.654521e-002
1.336449e+003,2.654843e-002
1.338377e+003,2.641918e-002
1.340306e+003,2.626508e-002
1.342234e+003,2.605835e-002
1.344163e+003,2.585950e-002
1.346091e+003,2.572849e-002
1.348020e+003,2.562564e-002
1.349948e+003,2.555605e-002
1.351877e+003,2.551522e-002
1.353805e+003,2.543880e-002
1.355734e+003,2.538860e-002
1.357662e+003,2.535267e-002
1.359591e+003,2.533086e-002
1.361519e+003,2.530319e-002
1.363448e+003,2.529415e-002
1.365376e+003,2.525680e-002
1.367305e+003,2.515073e-002
1.369233e+003,2.505454e-002
1.371162e+003,2.489179e-002
1.373090e+003,2.471362e-002
1.375019e+003,2.452957e-002
1.376947e+003,2.442664e-002
1.378876e+003,2.434523e-002
1.380804e+003,2.419261e-002
1.382733e+003,2.407281e-002
1.384661e+003,2.390488e-002
1.386590e+003,2.372688e-002
1.388518e+003,2.356456e-002
1.390447e+003,2.343892e-002
1.392375e+003,2.339670e-002
1.394304e+003,2.344981e-002
1.396232e+003,2.356187e-002
1.398161e+003,2.366713e-002
1.400089e+003,2.377114e-002
1.402018e+003,2.384038e-002
1.403946e+003,2.389432e-002
1.405875e+003,2.394006e-002
1.407803e+003,2.398618e-002
1.409732e+003,2.402118e-002
1.411660e+003,2.404520e-002
1.413589e+003,2.400896e-002
1.415517e+003,2.393885e-002
1.417446e+003,2.385670e-002
1.419374e+003,2.375305e-002
1.421303e+003,2.359587e-002
1.423231e+003,2.344318e-002
1.425160e+003,2.330701e-002
1.427088e+003,2.319714e-002
1.429017e+003,2.311167e-002
1.430945e+003,2.304632e-002
1.432874e+003,2.303734e-002
1.434802e+003,2.298392e-002
1.436731e+003,2.294569e-002
1.438659e+003,2.294492e-002
1.440588e+003,2.291719e-002
1.442516e+003,2.287229e-002
1.444445e+003,2.291552e-002
1.446373e+003,2.291436e-002
1.448302e+003,2.289007e-002
1.450230e+003,2.288334e-002
1.452159e+003,2.285892e-002
1.454087e+003,2.276953e-002
1.456016e+003,2.262110e-002
1.457944e+003,2.235210e-002
1.459873e+003,2.197074e-002
1.461801e+003,2.150488e-002
1.463730e+003,2.105202e-002
1.465658e+003,2.060345e-002
1.467587e+003,2.015342e-002
1.469515e+003,1.963792e-002
1.471444e+003,1.905752e-002
1.473372e+003,1.851632e-002
1.475301e+003,1.813184e-002
1.477229e+003,1.790474e-002
1.479158e+003,1.777342e-002
1.481086e+003,1.767892e-002
1.483015e+003,1.767566e-002
1.484943e+003,1.776179e-002
1.486872e+003,1.792066e-002
1.488800e+003,1.809691e-002
1.490729e+003,1.829239e-002
1.492657e+003,1.854702e-002
1.494586e+003,1.884285e-002
1.496514e+003,1.914856e-002
1.498443e+003,1.944580e-002
1.500371e+003,1.973090e-002
1.502300e+003,2.006580e-002
1.504228e+003,2.041085e-002
1.506157e+003,2.072536e-002
1.508085e+003,2.108905e-002
1.510014e+003,2.148851e-002
1.511942e+003,2.188097e-002
1.513871e+003,2.224610e-002
1.515799e+003,2.252820e-002
1.517728e+003,2.263730e-002
1.519656e+003,2.265512e-002
1.521585e+003,2.269414e-002
1.523513e+003,2.275105e-002
1.525442e+003,2.280191e-002
1.527370e+003,2.288136e-002
1.529299e+003,2.295363e-002
1.531227e+003,2.294626e-002
1.533156e+003,2.295145e-002
1.535084e+003,2.295282e-002
1.537013e+003,2.290371e-002
1.538941e+003,2.276854e-002
1.540870e+003,2.261150e-002
1.542798e+003,2.246746e-002
1.544727e+003,2.230565e-002
1.546655e+003,2.207154e-002
1.548584e+003,2.180495e-002
1.550512e+003,2.150585e-002
1.552441e+003,2.118603e-002
1.554369e+003,2.083389e-002
1.556298e+003,2.052230e-002
1.558226e+003,2.020461e-002
1.560155e+003,1.991037e-002
1.562083e+003,1.969078e-002
1.564012e+003,1.948214e-002
1.565940e+003,1.924480e-002
1.567869e+003,1.906373e-002
1.569797e+003,1.891665e-002
1.571726e+003,1.878223e-002
1.573654e+003,1.870353e-002
1.575583e+003,1.864887e-002
1.577511e+003,1.861333e-002
1.579440e+003,1.863415e-002
1.581368e+003,1.865724e-002
1.583297e+003,1.868529e-002
1.585225e+003,1.878043e-002
1.587154e+003,1.892876e-002
1.589082e+003,1.911608e-002
1.591010e+003,1.931249e-002
1.592939e+003,1.955680e-002
1.594868e+003,1.981945e-002
1.596796e+003,2.011535e-002
1.598724e+003,2.045270e-002
1.600653e+003,2.080954e-002
1.602582e+003,2.119457e-002
1.604510e+003,2.165213e-002
1.606438e+003,2.213191e-002
1.608367e+003,2.268932e-002
1.610296e+003,2.329358e-002
1.612224e+003,2.396335e-002
1.614152e+003,2.468492e-002
1.616081e+003,2.546053e-002
1.618010e+003,2.626194e-002
1.619938e+003,2.702497e-002
1.621866e+003,2.773462e-002
1.623795e+003,2.836126e-002
1.625724e+003,2.883561e-002
1.627652e+003,2.914445e-002
1.629580e+003,2.936508e-002
1.631509e+003,2.952989e-002
1.633438e+003,2.960881e-002
1.635366e+003,2.965234e-002
1.637294e+003,2.971983e-002
1.639223e+003,2.979545e-002
1.641151e+003,2.981647e-002
1.643080e+003,2.986417e-002
1.645008e+003,2.996454e-002
1.646937e+003,2.998605e-002
1.648865e+003,2.994369e-002
1.650794e+003,2.987145e-002
1.652722e+003,2.980490e-002
1.654651e+003,2.963557e-002
1.656579e+003,2.931939e-002
1.658508e+003,2.892528e-002
1.660436e+003,2.847465e-002
1.662365e+003,2.796802e-002
1.664293e+003,2.744082e-002
1.666222e+003,2.686888e-002
1.668150e+003,2.618599e-002
1.670079e+003,2.554685e-002
1.672007e+003,2.493262e-002
1.673936e+003,2.424656e-002
1.675864e+003,2.356113e-002
1.677793e+003,2.286442e-002
1.679721e+003,2.220079e-002
1.681650e+003,2.153241e-002
1.683578e+003,2.082351e-002
1.685507e+003,2.011793e-002
1.687435e+003,1.949699e-002
1.689364e+003,1.888714e-002
1.691292e+003,1.832554e-002
1.693221e+003,1.772280e-002
1.695149e+003,1.711124e-002
1.697078e+003,1.649800e-002
1.699006e+003,1.587882e-002
1.700935e+003,1.523594e-002
1.702863e+003,1.475617e-002
1.704792e+003,1.440582e-002
1.706720e+003,1.409308e-002
1.708649e+003,1.385757e-002
1.710577e+003,1.371865e-002
1.712506e+003,1.355640e-002
1.714434e+003,1.342994e-002
1.716363e+003,1.332660e-002
1.718291e+003,1.326642e-002
1.720220e+003,1.318253e-002
1.722148e+003,1.314962e-002
1.724077e+003,1.312549e-002
1.726005e+003,1.311043e-002
1.727934e+003,1.309548e-002
1.729862e+003,1.304278e-002
1.731791e+003,1.299963e-002
1.733719e+003,1.298227e-002
1.735648e+003,1.292385e-002
1.737576e+003,1.286321e-002
1.739505e+003,1.282395e-002
1.741433e+003,1.279541e-002
1.743362e+003,1.270253e-002
1.745290e+003,1.265876e-002
1.747219e+003,1.261074e-002
1.749147e+003,1.251619e-002
1.751076e+003,1.244911e-002
1.753004e+003,1.242131e-002
1.754933e+003,1.240325e-002
1.756861e+003,1.237025e-002
1.758790e+003,1.235934e-002
1.760718e+003,1.226423e-002
1.762647e+003,1.223565e-002
1.764575e+003,1.230763e-002
1.766504e+003,1.229684e-002
1.768432e+003,1.227331e-002
1.770361e+003,1.226303e-002
1.772289e+003,1.222110e-002
1.774218e+003,1.227121e-002
1.776146e+003,1.229844e-002
1.778075e+003,1.231005e-002
1.780003e+003,1.229106e-002
1.781932e+003,1.225578e-002
1.783860e+003,1.226573e-002
1.785789e+003,1.223074e-002
1.787717e+003,1.221624e-002
1.789646e+003,1.221237e-002
1.791574e+003,1.219469e-002
1.793503e+003,1.218587e-002
1.795431e+003,1.222658e-002
1.797360e+003,1.219766e-002
1.799288e+003,1.219037e-002
1.801217e+003,1.222830e-002
1.803145e+003,1.228384e-002
1.805074e+003,1.223019e-002
1.807002e+003,1.217784e-002
1.808931e+003,1.215370e-002
1.810859e+003,1.219660e-002
1.812788e+003,1.213402e-002
1.814716e+003,1.208864e-002
1.816645e+003,1.204229e-002
1.818573e+003,1.205308e-002
1.820502e+003,1.204175e-002
1.822430e+003,1.194531e-002
1.824359e+003,1.187780e-002
1.826287e+003,1.195919e-002
1.828216e+003,1.202530e-002
1.830144e+003,1.203369e-002
1.832073e+003,1.202986e-002
1.834001e+003,1.205988e-002
1.835930e+003,1.197212e-002
1.837858e+003,1.187090e-002
1.839787e+003,1.185976e-002
1.841715e+003,1.180560e-002
1.843644e+003,1.184987e-002
1.845572e+003,1.182145e-002
1.847501e+003,1.179658e-002
1.849429e+003,1.191690e-002
1.851358e+003,1.183453e-002
1.853286e+003,1.177057e-002
1.855215e+003,1.171212e-002
1.857143e+003,1.168867e-002
1.859072e+003,1.167834e-002
1.861000e+003,1.180815e-002
1.862929e+003,1.182504e-002
1.864857e+003,1.184915e-002
1.866786e+003,1.180906e-002
1.868714e+003,1.182786e-002
1.870643e+003,1.183365e-002
1.872571e+003,1.179383e-002
1.874500e+003,1.188328e-002
1.876428e+003,1.197929e-002
1.878357e+003,1.187888e-002
1.880285e+003,1.168098e-002
1.882214e+003,1.166117e-002
1.884142e+003,1.177906e-002
1.886071e+003,1.164962e-002
1.887999e+003,1.156466e-002
1.889928e+003,1.162079e-002
1.891856e+003,1.171849e-002
1.893785e+003,1.167334e-002
1.895713e+003,1.147886e-002
1.897642e+003,1.134780e-002
1.899570e+003,1.151716e-002
1.901499e+003,1.148770e-002
1.903427e+003,1.135605e-002
1.905356e+003,1.158225e-002
1.907284e+003,1.179007e-002
1.909213e+003,1.144956e-002
1.911141e+003,1.129999e-002
1.913070e+003,1.119018e-002
1.914998e+003,1.110455e-002
1.916927e+003,1.103857e-002
1.918855e+003,1.123127e-002
1.920784e+003,1.114727e-002
1.922712e+003,1.113668e-002
1.924641e+003,1.093551e-002
1.926569e+003,1.079376e-002
1.928498e+003,1.084661e-002
1.930426e+003,1.058124e-002
1.932355e+003,1.025340e-002
1.934283e+003,1.034200e-002
1.936212e+003,1.032940e-002
1.938140e+003,9.773478e-003
1.940069e+003,9.186131e-003
1.941997e+003,9.013222e-003
1.943926e+003,8.927912e-003
1.945854e+003,8.792650e-003
1.947783e+003,8.640794e-003
1.949711e+003,8.228018e-003
1.951640e+003,8.132455e-003
1.953568e+003,7.696628e-003
1.955497e+003,7.226217e-003
1.957425e+003,6.835896e-003
1.959354e+003,6.348299e-003
1.961282e+003,5.471290e-003
1.963211e+003,4.707134e-003
1.965139e+003,3.813432e-003
1.967068e+003,3.358109e-003
1.968996e+003,3.501669e-003
1.970925e+003,2.145397e-003
1.972853e+003,7.628266e-004
1.974782e+003,7.261017e-004
1.976710e+003,4.635239e-004
1.978639e+003,6.663973e-004
1.980567e+003,2.484833e-003
1.982496e+003,4.211483e-003
1.984424e+003,4.179907e-003
1.986353e+003,3.970683e-003
1.988281e+003,3.916495e-003
1.990210e+003,3.772810e-003
1.992138e+003,3.998124e-003
1.994067e+003,4.266964e-003
1.995995e+003,4.324914e-003
1.997924e+003,3.610519e-003
1.999852e+003,3.256838e-003
2.001781e+003,2.934621e-003
2.003709e+003,2.353676e-003
2.005638e+003,1.664482e-003
2.007566e+003,1.627893e-003
2.009495e+003,1.063615e-003
2.011423e+003,7.232581e-004
2.013352e+003,5.819743e-004
2.015280e+003,1.249604e-004
2.017208e+003,-3.136320e-004
2.019137e+003,1.226978e-004
2.021066e+003,3.979211e-005
2.022994e+003,-2.427576e-004
2.024922e+003,-1.067926e-003
2.026851e+003,-6.421775e-004
2.028780e+003,-4.116121e-004
2.030708e+003,-4.817878e-004
2.032636e+003,-1.851141e-004
2.034565e+003,5.816182e-004
2.036494e+003,1.038157e-003
2.038422e+003,1.734863e-003
2.040350e+003,2.166089e-003
2.042279e+003,2.729289e-003
2.044208e+003,3.028735e-003
2.046136e+003,3.883539e-003
2.048064e+003,4.393922e-003
2.049993e+003,5.304212e-003
2.051921e+003,6.665706e-003
2.053850e+003,6.894647e-003
2.055778e+003,6.994531e-003
2.057707e+003,7.195732e-003
2.059635e+003,7.446391e-003
2.061564e+003,7.732057e-003
2.063492e+003,8.328329e-003
2.065421e+003,8.595185e-003
2.067349e+003,8.170974e-003
2.069278e+003,8.144495e-003
2.071206e+003,8.567680e-003
2.073135e+003,8.914087e-003
2.075063e+003,9.009941e-003
2.076992e+003,9.327174e-003
2.078920e+003,9.545564e-003
2.080849e+003,9.623061e-003
2.082777e+003,9.752760e-003
2.084706e+003,9.853594e-003
2.086634e+003,9.934475e-003
2.088563e+003,9.889829e-003
2.090491e+003,9.871046e-003
2.092420e+003,9.443140e-003
2.094348e+003,9.242228e-003
2.096277e+003,9.581406e-003
2.098205e+003,9.487094e-003
2.100134e+003,9.432574e-003
2.102062e+003,9.667264e-003
2.103991e+003,9.419978e-003
2.105919e+003,9.322233e-003
2.107848e+003,9.432168e-003
2.109776e+003,9.508024e-003
2.111705e+003,9.531630e-003
2.113633e+003,9.748481e-003
2.115562e+003,9.889098e-003
2.117490e+003,9.978834e-003
2.119419e+003,9.987920e-003
2.121347e+003,9.662385e-003
2.123276e+003,9.400474e-003
2.125204e+003,9.630539e-003
2.127133e+003,9.611840e-003
2.129061e+003,9.026357e-003
2.130990e+003,8.726018e-003
2.132918e+003,7.999178e-003
2.134847e+003,7.420684e-003
2.136775e+003,6.783586e-003
2.138704e+003,6.093622e-003
2.140632e+003,5.397472e-003
2.142561e+003,4.869908e-003
2.144489e+003,4.150725e-003
2.146418e+003,3.539415e-003
2.148346e+003,2.479627e-003
2.150275e+003,1.022792e-003
2.152203e+003,6.452012e-004
2.154132e+003,-1.355161e-005
2.156060e+003,-3.485296e-003
2.157989e+003,-6.773672e-003
2.159917e+003,-6.831245e-003
2.161846e+003,-4.727027e-003
2.163774e+003,-2.629098e-003
2.165703e+003,-7.871143e-004
2.167631e+003,2.159551e-004
2.169560e+003,7.198700e-004
2.171488e+003,1.607387e-003
2.173417e+003,3.104397e-003
2.175345e+003,3.303505e-003
2.177274e+003,3.015904e-003
2.179202e+003,2.720658e-003
2.181131e+003,2.955484e-003
2.183059e+003,4.212951e-003
2.184988e+003,4.750269e-003
2.186916e+003,4.664923e-003
2.188845e+003,4.809163e-003
2.190773e+003,5.649057e-003
2.192702e+003,6.500130e-003
2.194630e+003,6.521757e-003
2.196559e+003,6.826264e-003
2.198487e+003,7.490458e-003
2.200416e+003,7.744946e-003
2.202344e+003,7.836534e-003
2.204273e+003,7.851952e-003
2.206201e+003,7.809207e-003
2.208130e+003,7.773348e-003
2.210058e+003,8.034212e-003
2.211987e+003,8.209593e-003
2.213915e+003,8.145610e-003
2.215844e+003,9.054437e-003
2.217772e+003,8.797254e-003
2.219701e+003,8.608083e-003
2.221629e+003,8.933436e-003
2.223558e+003,9.048922e-003
2.225486e+003,9.395971e-003
2.227415e+003,9.862253e-003
2.229343e+003,1.011037e-002
2.231272e+003,1.003383e-002
2.233200e+003,1.011613e-002
2.235129e+003,1.022816e-002
2.237057e+003,1.048789e-002
2.238986e+003,1.082513e-002
2.240914e+003,1.076622e-002
2.242843e+003,1.060095e-002
2.244771e+003,1.090616e-002
2.246700e+003,1.118707e-002
2.248628e+003,1.103366e-002
2.250557e+003,1.078486e-002
2.252485e+003,1.096930e-002
2.254414e+003,1.100569e-002
2.256342e+003,1.121965e-002
2.258271e+003,1.129699e-002
2.260199e+003,1.109162e-002
2.262128e+003,1.118144e-002
2.264056e+003,1.167941e-002
2.265985e+003,1.186349e-002
2.267913e+003,1.159405e-002
2.269842e+003,1.161663e-002
2.271770e+003,1.166713e-002
2.273699e+003,1.156833e-002
2.275627e+003,1.162712e-002
2.277556e+003,1.152377e-002
2.279484e+003,1.169945e-002
2.281413e+003,1.185707e-002
2.283341e+003,1.186475e-002
2.285270e+003,1.219790e-002
2.287198e+003,1.245480e-002
2.289127e+003,1.235300e-002
2.291055e+003,1.234801e-002
2.292984e+003,1.233714e-002
2.294912e+003,1.209902e-002
2.296841e+003,1.228230e-002
2.298769e+003,1.251360e-002
2.300698e+003,1.242524e-002
2.302626e+003,1.247514e-002
2.304555e+003,1.264348e-002
2.306483e+003,1.255899e-002
2.308412e+003,1.231077e-002
2.310340e+003,1.226302e-002
2.312269e+003,1.227644e-002
2.314197e+003,1.203570e-002
2.316125e+003,1.193045e-002
2.318054e+003,1.215096e-002
2.319983e+003,1.231300e-002
2.321911e+003,1.236060e-002
2.323840e+003,1.236608e-002
2.325768e+003,1.211741e-002
2.327697e+003,1.199808e-002
2.329625e+003,1.167173e-002
2.331553e+003,1.148441e-002
2.333482e+003,1.176912e-002
2.335411e+003,1.182915e-002
2.337339e+003,1.195535e-002
2.339268e+003,1.213968e-002
2.341196e+003,1.218018e-002
2.343125e+003,1.223499e-002
2.345053e+003,1.250765e-002
2.346981e+003,1.264904e-002
2.348910e+003,1.283134e-002
2.350839e+003,1.288038e-002
2.352767e+003,1.295473e-002
2.354696e+003,1.347110e-002
2.356624e+003,1.346416e-002
2.358552e+003,1.356305e-002
2.360481e+003,1.363045e-002
2.362409e+003,1.358359e-002
2.364338e+003,1.357373e-002
2.366267e+003,1.373678e-002
2.368195e+003,1.395893e-002
2.370124e+003,1.396538e-002
2.372052e+003,1.392103e-002
2.373980e+003,1.383706e-002
2.375909e+003,1.367713e-002
2.377838e+003,1.366193e-002
2.379766e+003,1.375095e-002
2.381695e+003,1.387732e-002
2.383623e+003,1.399252e-002
2.385552e+003,1.399337e-002
2.387480e+003,1.401845e-002
2.389408e+003,1.403004e-002
2.391337e+003,1.393222e-002
2.393266e+003,1.391277e-002
2.395194e+003,1.389500e-002
2.397123e+003,1.391890e-002
2.399051e+003,1.387816e-002
2.400979e+003,1.381568e-002
2.402908e+003,1.382040e-002
2.404836e+003,1.371181e-002
2.406765e+003,1.371906e-002
2.408694e+003,1.387421e-002
2.410622e+003,1.395725e-002
2.412551e+003,1.396919e-002
2.414479e+003,1.395170e-002
2.416407e+003,1.397808e-002
2.418336e+003,1.389799e-002
2.420264e+003,1.379940e-002
2.422193e+003,1.371735e-002
2.424122e+003,1.369130e-002
2.426050e+003,1.361792e-002
2.427979e+003,1.341331e-002
2.429907e+003,1.341194e-002
2.431835e+003,1.356120e-002
2.433764e+003,1.351570e-002
2.435692e+003,1.333376e-002
2.437621e+003,1.358007e-002
2.439550e+003,1.364305e-002
2.441478e+003,1.357388e-002
2.443406e+003,1.350073e-002
2.445335e+003,1.354158e-002
2.447263e+003,1.368104e-002
2.449192e+003,1.373124e-002
2.451121e+003,1.372731e-002
2.453049e+003,1.368918e-002
2.454978e+003,1.365245e-002
2.456906e+003,1.366394e-002
2.458834e+003,1.369742e-002
2.460763e+003,1.370456e-002
2.462691e+003,1.365396e-002
2.464620e+003,1.361566e-002
2.466549e+003,1.356937e-002
2.468477e+003,1.355125e-002
2.470406e+003,1.350333e-002
2.472334e+003,1.352422e-002
2.474262e+003,1.355867e-002
2.476191e+003,1.359611e-002
2.478119e+003,1.361064e-002
2.480048e+003,1.354445e-002
2.481977e+003,1.346003e-002
2.483905e+003,1.347175e-002
2.485833e+003,1.349198e-002
2.487762e+003,1.345685e-002
2.489690e+003,1.341246e-002
2.491619e+003,1.346775e-002
2.493547e+003,1.354999e-002
2.495476e+003,1.345230e-002
2.497405e+003,1.348443e-002
2.499333e+003,1.350319e-002
2.501261e+003,1.349161e-002
2.503190e+003,1.356852e-002
2.505118e+003,1.358920e-002
2.507047e+003,1.361912e-002
2.508975e+003,1.360469e-002
2.510904e+003,1.376448e-002
2.512833e+003,1.376838e-002
2.514761e+003,1.359450e-002
2.516689e+003,1.364257e-002
2.518618e+003,1.372344e-002
2.520546e+003,1.364086e-002
2.522475e+003,1.366124e-002
2.524403e+003,1.366934e-002
2.526332e+003,1.368897e-002
2.528260e+003,1.371882e-002
2.530189e+003,1.366432e-002
2.532117e+003,1.373196e-002
2.534046e+003,1.370214e-002
2.535974e+003,1.363539e-002
2.537903e+003,1.371017e-002
2.539831e+003,1.365495e-002
2.541760e+003,1.363348e-002
2.543688e+003,1.358353e-002
2.545617e+003,1.362633e-002
2.547545e+003,1.379194e-002
2.549474e+003,1.386449e-002
2.551402e+003,1.394219e-002
2.553331e+003,1.392816e-002
2.555259e+003,1.380857e-002
2.557188e+003,1.383159e-002
2.559116e+003,1.387541e-002
2.561045e+003,1.396214e-002
2.562973e+003,1.391670e-002
2.564902e+003,1.394554e-002
2.566830e+003,1.397145e-002
2.568759e+003,1.410782e-002
2.570687e+003,1.415859e-002
2.572616e+003,1.404485e-002
2.574544e+003,1.407312e-002
2.576473e+003,1.418186e-002
2.578401e+003,1.432413e-002
2.580330e+003,1.421425e-002
2.582258e+003,1.415338e-002
2.584187e+003,1.421668e-002
2.586115e+003,1.427578e-002
2.588044e+003,1.434290e-002
2.589972e+003,1.438851e-002
2.591901e+003,1.439208e-002
2.593829e+003,1.445449e-002
2.595758e+003,1.439749e-002
2.597686e+003,1.434978e-002
2.599615e+003,1.441903e-002
2.601543e+003,1.459801e-002
2.603472e+003,1.468358e-002
2.605400e+003,1.474582e-002
2.607329e+003,1.467515e-002
2.609257e+003,1.469945e-002
2.611186e+003,1.471950e-002
2.613114e+003,1.484116e-002
2.615043e+003,1.489026e-002
2.616971e+003,1.490501e-002
2.618900e+003,1.496265e-002
2.620828e+003,1.504682e-002
2.622757e+003,1.509180e-002
2.624685e+003,1.512017e-002
2.626614e+003,1.509893e-002
2.628542e+003,1.509382e-002
2.630471e+003,1.525769e-002
2.632399e+003,1.531834e-002
2.634328e+003,1.537223e-002
2.636256e+003,1.545239e-002
2.638185e+003,1.544982e-002
2.640113e+003,1.549222e-002
2.642042e+003,1.550637e-002
2.643970e+003,1.546568e-002
2.645899e+003,1.548683e-002
2.647827e+003,1.556348e-002
2.649756e+003,1.559264e-002
2.651684e+003,1.564368e-002
2.653613e+003,1.571307e-002
2.655541e+003,1.574485e-002
2.657470e+003,1.576144e-002
2.659398e+003,1.579178e-002
2.661327e+003,1.582663e-002
2.663255e+003,1.584962e-002
2.665184e+003,1.585457e-002
2.667112e+003,1.586539e-002
2.669041e+003,1.585738e-002
2.670969e+003,1.583089e-002
2.672898e+003,1.582756e-002
2.674826e+003,1.582707e-002
2.676755e+003,1.581793e-002
2.678683e+003,1.581652e-002
2.680612e+003,1.586051e-002
2.682540e+003,1.591076e-002
2.684469e+003,1.587395e-002
2.686397e+003,1.577804e-002
2.688326e+003,1.577436e-002
2.690254e+003,1.578824e-002
2.692183e+003,1.585866e-002
2.694111e+003,1.587285e-002
2.696040e+003,1.581096e-002
2.697968e+003,1.581350e-002
2.699897e+003,1.583910e-002
2.701825e+003,1.581821e-002
2.703754e+003,1.578199e-002
2.705682e+003,1.582515e-002
2.707611e+003,1.583656e-002
2.709539e+003,1.581931e-002
2.711468e+003,1.584573e-002
2.713396e+003,1.587886e-002
2.715325e+003,1.590296e-002
2.717253e+003,1.591784e-002
2.719182e+003,1.593341e-002
2.721110e+003,1.592547e-002
2.723039e+003,1.591516e-002
2.724967e+003,1.591468e-002
2.726896e+003,1.595520e-002
2.728824e+003,1.595180e-002
2.730753e+003,1.591454e-002
2.732681e+003,1.591052e-002
2.734610e+003,1.595482e-002
2.736538e+003,1.604472e-002
2.738467e+003,1.606941e-002
2.740395e+003,1.605988e-002
2.742324e+003,1.605466e-002
2.744252e+003,1.608663e-002
2.746181e+003,1.609726e-002
2.748109e+003,1.614794e-002
2.750038e+003,1.616029e-002
2.751966e+003,1.612566e-002
2.753895e+003,1.614000e-002
2.755823e+003,1.619578e-002
2.757752e+003,1.621896e-002
2.759680e+003,1.622722e-002
2.761609e+003,1.620861e-002
2.763537e+003,1.619802e-002
2.765466e+003,1.626003e-002
2.767394e+003,1.629584e-002
2.769323e+003,1.629722e-002
2.771251e+003,1.626794e-002
2.773180e+003,1.628690e-002
2.775108e+003,1.633609e-002
2.777037e+003,1.630926e-002
2.778965e+003,1.635381e-002
2.780894e+003,1.642500e-002
2.782822e+003,1.642521e-002
2.784750e+003,1.642380e-002
2.786679e+003,1.647521e-002
2.788608e+003,1.651813e-002
2.790536e+003,1.648650e-002
2.792465e+003,1.650213e-002
2.794393e+003,1.651417e-002
2.796322e+003,1.659128e-002
2.798250e+003,1.668141e-002
2.800178e+003,1.669955e-002
2.802107e+003,1.674177e-002
2.804036e+003,1.677387e-002
2.805964e+003,1.674701e-002
2.807893e+003,1.676877e-002
2.809821e+003,1.683187e-002
2.811750e+003,1.685577e-002
2.813678e+003,1.686145e-002
2.815606e+003,1.687017e-002
2.817535e+003,1.690320e-002
2.819464e+003,1.697059e-002
2.821392e+003,1.708241e-002
2.823321e+003,1.715596e-002
2.825249e+003,1.719012e-002
2.827177e+003,1.716985e-002
2.829106e+003,1.717568e-002
2.831034e+003,1.723804e-002
2.832963e+003,1.738686e-002
2.834892e+003,1.750783e-002
2.836820e+003,1.758545e-002
2.838749e+003,1.761174e-002
2.840677e+003,1.764280e-002
2.842605e+003,1.769515e-002
2.844534e+003,1.774088e-002
2.846462e+003,1.781330e-002
2.848391e+003,1.793397e-002
2.850320e+003,1.803277e-002
2.852248e+003,1.815012e-002
2.854177e+003,1.824583e-002
2.856105e+003,1.823318e-002
2.858033e+003,1.832618e-002
2.859962e+003,1.848253e-002
2.861890e+003,1.861224e-002
2.863819e+003,1.866225e-002
2.865748e+003,1.874264e-002
2.867676e+003,1.882758e-002
2.869604e+003,1.892887e-002
2.871533e+003,1.911190e-002
2.873461e+003,1.919878e-002
2.875390e+003,1.924702e-002
2.877319e+003,1.935410e-002
2.879247e+003,1.946559e-002
2.881176e+003,1.947218e-002
2.883104e+003,1.949959e-002
2.885032e+003,1.953082e-002
2.886961e+003,1.960503e-002
2.888889e+003,1.963439e-002
2.890818e+003,1.970490e-002
2.892747e+003,1.966396e-002
2.894675e+003,1.964073e-002
2.896604e+003,1.973167e-002
2.898532e+003,1.973549e-002
2.900460e+003,1.970088e-002
2.902389e+003,1.971222e-002
2.904317e+003,1.975022e-002
2.906246e+003,1.978715e-002
2.908175e+003,1.985579e-002
2.910103e+003,1.990248e-002
2.912031e+003,1.996769e-002
2.913960e+003,2.007310e-002
2.915888e+003,2.020277e-002
2.917817e+003,2.035073e-002
2.919745e+003,2.040501e-002
2.921674e+003,2.042620e-002
2.923603e+003,2.046638e-002
2.925531e+003,2.051435e-002
2.927459e+003,2.058904e-002
2.929388e+003,2.057928e-002
2.931316e+003,2.047430e-002
2.933245e+003,2.027331e-002
2.935173e+003,2.007568e-002
2.937102e+003,1.989722e-002
2.939031e+003,1.971800e-002
2.940959e+003,1.950847e-002
2.942887e+003,1.923689e-002
2.944816e+003,1.905691e-002
2.946744e+003,1.886616e-002
2.948673e+003,1.869228e-002
2.950601e+003,1.858966e-002
2.952530e+003,1.844989e-002
2.954458e+003,1.838021e-002
2.956387e+003,1.828702e-002
2.958315e+003,1.813579e-002
2.960244e+003,1.806181e-002
2.962172e+003,1.802416e-002
2.964101e+003,1.789358e-002
2.966029e+003,1.773963e-002
2.967958e+003,1.761888e-002
2.969886e+003,1.755347e-002
2.971815e+003,1.745392e-002
2.973743e+003,1.733981e-002
2.975672e+003,1.726305e-002
2.977600e+003,1.714361e-002
2.979529e+003,1.706183e-002
2.981457e+003,1.698127e-002
2.983386e+003,1.693984e-002
2.985314e+003,1.689538e-002
2.987243e+003,1.682179e-002
2.989171e+003,1.678518e-002
2.991100e+003,1.674249e-002
2.993028e+003,1.664671e-002
2.994957e+003,1.665026e-002
2.996885e+003,1.669046e-002
2.998814e+003,1.667655e-002
3.000742e+003,1.668316e-002
3.002671e+003,1.674995e-002
3.004599e+003,1.680617e-002
3.006528e+003,1.688676e-002
3.008456e+003,1.690751e-002
3.010385e+003,1.689107e-002
3.012313e+003,1.692964e-002
3.014242e+003,1.698062e-002
3.016170e+003,1.697629e-002
3.018099e+003,1.700065e-002
3.020027e+003,1.710191e-002
3.021956e+003,1.722743e-002
3.023884e+003,1.728674e-002
3.025813e+003,1.732911e-002
3.027741e+003,1.736309e-002
3.029670e+003,1.748673e-002
3.031598e+003,1.752883e-002
3.033527e+003,1.756191e-002
3.035455e+003,1.761095e-002
3.037384e+003,1.764839e-002
3.039312e+003,1.770209e-002
3.041241e+003,1.779537e-002
3.043169e+003,1.787767e-002
3.045098e+003,1.792272e-002
3.047026e+003,1.794718e-002
3.048955e+003,1.806376e-002
3.050883e+003,1.814874e-002
3.052812e+003,1.823840e-002
3.054740e+003,1.835348e-002
3.056669e+003,1.844784e-002
3.058597e+003,1.848658e-002
3.060526e+003,1.851961e-002
3.062454e+003,1.858102e-002
3.064383e+003,1.867010e-002
3.066311e+003,1.874441e-002
3.068240e+003,1.869533e-002
3.070168e+003,1.877519e-002
3.072097e+003,1.894189e-002
3.074025e+003,1.903565e-002
3.075954e+003,1.905820e-002
3.077882e+003,1.907122e-002
3.079811e+003,1.915946e-002
3.081739e+003,1.928518e-002
3.083668e+003,1.933835e-002
3.085596e+003,1.932793e-002
3.087525e+003,1.939302e-002
3.089453e+003,1.946281e-002
3.091382e+003,1.953829e-002
3.093310e+003,1.961704e-002
3.095239e+003,1.961430e-002
3.097167e+003,1.965037e-002
3.099096e+003,1.965894e-002
3.101024e+003,1.972899e-002
3.102953e+003,1.987957e-002
3.104881e+003,1.997910e-002
3.106810e+003,1.997446e-002
3.108738e+003,2.003638e-002
3.110667e+003,2.010897e-002
3.112595e+003,2.024096e-002
3.114524e+003,2.036077e-002
3.116452e+003,2.037172e-002
3.118381e+003,2.045343e-002
3.120309e+003,2.061661e-002
3.122238e+003,2.070637e-002
3.124166e+003,2.075883e-002
3.126095e+003,2.086740e-002
3.128023e+003,2.093007e-002
3.129952e+003,2.098599e-002
3.131880e+003,2.107404e-002
3.133809e+003,2.110935e-002
3.135737e+003,2.120968e-002
3.137666e+003,2.136224e-002
3.139594e+003,2.149878e-002
3.141523e+003,2.159141e-002
3.143451e+003,2.174749e-002
3.145380e+003,2.181254e-002
3.147308e+003,2.182926e-002
3.149237e+003,2.193814e-002
3.151165e+003,2.207023e-002
3.153094e+003,2.208744e-002
3.155022e+003,2.216238e-002
3.156951e+003,2.238314e-002
3.158879e+003,2.241352e-002
3.160808e+003,2.243169e-002
3.162736e+003,2.256715e-002
3.164665e+003,2.275109e-002
3.166593e+003,2.280953e-002
3.168522e+003,2.293594e-002
3.170450e+003,2.310367e-002
3.172379e+003,2.309882e-002
3.174307e+003,2.309343e-002
3.176236e+003,2.315390e-002
3.178164e+003,2.332038e-002
3.180093e+003,2.345398e-002
3.182021e+003,2.358405e-002
3.183950e+003,2.360027e-002
3.185878e+003,2.364095e-002
3.187807e+003,2.370107e-002
3.189735e+003,2.381980e-002
3.191664e+003,2.394062e-002
3.193592e+003,2.403677e-002
3.195521e+003,2.406710e-002
3.197449e+003,2.408837e-002
3.199378e+003,2.413209e-002
3.201306e+003,2.418125e-002
3.203235e+003,2.432325e-002
3.205163e+003,2.443637e-002
3.207092e+003,2.438980e-002
3.209020e+003,2.444034e-002
3.210948e+003,2.456399e-002
3.212877e+003,2.460493e-002
3.214806e+003,2.466143e-002
3.216734e+003,2.469247e-002
3.218663e+003,2.475509e-002
3.220591e+003,2.480548e-002
3.222520e+003,2.487736e-002
3.224448e+003,2.494938e-002
3.226376e+003,2.500619e-002
3.228305e+003,2.504372e-002
3.230234e+003,2.504110e-002
3.232162e+003,2.506952e-002
3.234091e+003,2.518610e-002
3.236019e+003,2.525007e-002
3.237948e+003,2.532267e-002
3.239876e+003,2.539379e-002
3.241804e+003,2.547116e-002
3.243733e+003,2.553563e-002
3.245662e+003,2.553003e-002
3.247590e+003,2.559803e-002
3.249519e+003,2.561502e-002
3.251447e+003,2.568238e-002
3.253375e+003,2.575173e-002
3.255304e+003,2.573191e-002
3.257232e+003,2.575153e-002
3.259161e+003,2.580014e-002
3.261090e+003,2.589645e-002
3.263018e+003,2.598107e-002
3.264947e+003,2.607548e-002
3.266875e+003,2.599544e-002
3.268803e+003,2.604295e-002
3.270732e+003,2.609811e-002
3.272660e+003,2.607737e-002
3.274589e+003,2.602890e-002
3.276518e+003,2.603273e-002
3.278446e+003,2.610710e-002
3.280375e+003,2.614791e-002
3.282303e+003,2.609883e-002
3.284231e+003,2.604500e-002
3.286160e+003,2.599514e-002
3.288088e+003,2.597861e-002
3.290017e+003,2.601241e-002
3.291946e+003,2.598458e-002
3.293874e+003,2.591190e-002
3.295802e+003,2.577890e-002
3.297731e+003,2.576855e-002
3.299659e+003,2.583301e-002
3.301588e+003,2.577857e-002
3.303516e+003,2.566805e-002
3.305445e+003,2.557759e-002
3.307374e+003,2.555604e-002
3.309302e+003,2.543924e-002
3.311230e+003,2.535942e-002
3.313159e+003,2.538840e-002
3.315087e+003,2.537416e-002
3.317016e+003,2.530950e-002
3.318944e+003,2.528501e-002
3.320873e+003,2.516777e-002
3.322802e+003,2.499829e-002
3.324730e+003,2.489243e-002
3.326658e+003,2.488153e-002
3.328587e+003,2.485523e-002
3.330515e+003,2.476811e-002
3.332444e+003,2.468284e-002
3.334372e+003,2.453875e-002
3.336301e+003,2.454130e-002
3.338229e+003,2.447036e-002
3.340158e+003,2.432751e-002
3.342086e+003,2.429494e-002
3.344015e+003,2.424671e-002
3.345943e+003,2.406831e-002
3.347872e+003,2.397613e-002
3.349800e+003,2.395178e-002
3.351729e+003,2.386080e-002
3.353657e+003,2.375607e-002
3.355586e+003,2.357852e-002
3.357514e+003,2.349665e-002
3.359443e+003,2.350432e-002
3.361371e+003,2.341573e-002
3.363300e+003,2.332649e-002
3.365229e+003,2.328026e-002
3.367157e+003,2.315487e-002
3.369085e+003,2.292955e-002
3.371014e+003,2.288904e-002
3.372942e+003,2.277570e-002
3.374871e+003,2.261081e-002
3.376799e+003,2.258940e-002
3.378728e+003,2.245602e-002
3.380656e+003,2.230655e-002
3.382585e+003,2.219988e-002
3.384513e+003,2.213317e-002
3.386442e+003,2.202018e-002
3.388370e+003,2.194708e-002
3.390299e+003,2.182899e-002
3.392227e+003,2.173076e-002
3.394156e+003,2.157803e-002
3.396084e+003,2.146549e-002
3.398013e+003,2.133283e-002
3.399941e+003,2.119171e-002
3.401870e+003,2.108159e-002
3.403798e+003,2.099919e-002
3.405727e+003,2.092037e-002
3.407655e+003,2.074055e-002
3.409584e+003,2.059501e-002
3.411512e+003,2.057573e-002
3.413441e+003,2.045151e-002
3.415369e+003,2.030185e-002
3.417298e+003,2.007206e-002
3.419226e+003,1.988197e-002
3.421155e+003,1.982280e-002
3.423083e+003,1.972349e-002
3.425012e+003,1.956586e-002
3.426940e+003,1.951175e-002
3.428869e+003,1.940305e-002
3.430797e+003,1.926524e-002
3.432726e+003,1.916647e-002
3.434654e+003,1.892126e-002
3.436583e+003,1.870196e-002
3.438511e+003,1.859253e-002
3.440440e+003,1.850684e-002
3.442368e+003,1.842296e-002
3.444297e+003,1.838694e-002
3.446225e+003,1.832528e-002
3.448154e+003,1.815461e-002
3.450082e+003,1.792997e-002
3.452011e+003,1.774741e-002
3.453939e+003,1.761571e-002
3.455868e+003,1.751241e-002
3.457796e+003,1.738772e-002
3.459725e+003,1.725604e-002
3.461653e+003,1.718536e-002
3.463582e+003,1.696074e-002
3.465510e+003,1.685729e-002
3.467439e+003,1.680879e-002
3.469367e+003,1.671050e-002
3.471296e+003,1.654126e-002
3.473224e+003,1.637308e-002
3.475153e+003,1.627744e-002
3.477081e+003,1.623578e-002
3.479010e+003,1.614138e-002
3.480938e+003,1.606913e-002
3.482867e+003,1.589237e-002
3.484795e+003,1.566779e-002
3.486724e+003,1.558556e-002
3.488652e+003,1.540584e-002
3.490581e+003,1.531384e-002
3.492509e+003,1.520903e-002
3.494438e+003,1.507656e-002
3.496366e+003,1.497044e-002
3.498295e+003,1.488512e-002
3.500223e+003,1.470822e-002
3.502152e+003,1.459194e-002
3.504080e+003,1.446418e-002
3.506009e+003,1.436187e-002
3.507937e+003,1.427331e-002
3.509866e+003,1.412032e-002
3.511794e+003,1.401473e-002
3.513723e+003,1.391078e-002
3.515651e+003,1.391588e-002
3.517580e+003,1.388961e-002
3.519508e+003,1.375162e-002
3.521437e+003,1.356281e-002
3.523365e+003,1.347305e-002
3.525294e+003,1.326219e-002
3.527222e+003,1.313437e-002
3.529151e+003,1.314291e-002
3.531079e+003,1.308281e-002
3.533008e+003,1.295638e-002
3.534936e+003,1.272308e-002
3.536865e+003,1.263410e-002
3.538793e+003,1.262766e-002
3.540722e+003,1.253911e-002
3.542650e+003,1.239446e-002
3.544579e+003,1.227710e-002
3.546507e+003,1.221572e-002
3.548436e+003,1.215898e-002
3.550364e+003,1.213424e-002
3.552293e+003,1.197174e-002
3.554221e+003,1.179657e-002
3.556150e+003,1.166466e-002
3.558078e+003,1.160493e-002
3.560007e+003,1.153405e-002
3.561935e+003,1.145134e-002
3.563864e+003,1.130291e-002
3.565792e+003,1.121749e-002
3.567721e+003,1.117560e-002
3.569649e+003,1.099538e-002
3.571578e+003,1.090252e-002
3.573506e+003,1.081038e-002
3.575435e+003,1.073474e-002
3.577363e+003,1.076585e-002
3.579292e+003,1.073593e-002
3.581220e+003,1.072927e-002
3.583149e+003,1.077407e-002
3.585077e+003,1.085424e-002
3.587006e+003,1.081463e-002
3.588934e+003,1.093582e-002
3.590863e+003,1.107315e-002
3.592791e+003,1.112454e-002
3.594720e+003,1.105591e-002
3.596648e+003,1.105890e-002
3.598577e+003,1.111441e-002
3.600505e+003,1.111023e-002
3.602434e+003,1.089484e-002
3.604362e+003,1.069653e-002
3.606291e+003,1.038370e-002
3.608219e+003,1.004261e-002
3.610148e+003,9.749295e-003
3.612076e+003,9.417810e-003
3.614005e+003,9.542299e-003
3.615933e+003,9.866625e-003
3.617862e+003,1.015636e-002
3.619790e+003,1.036589e-002
3.621719e+003,1.064977e-002
3.623647e+003,1.075091e-002
3.625576e+003,1.078069e-002
3.627504e+003,1.077771e-002
3.629433e+003,1.058417e-002
3.631361e+003,1.031560e-002
3.633290e+003,1.017919e-002
3.635218e+003,9.957271e-003
3.637146e+003,9.597782e-003
3.639075e+003,9.253788e-003
3.641004e+003,8.977104e-003
3.642932e+003,8.821667e-003
3.644861e+003,8.668585e-003
3.646789e+003,8.605548e-003
3.648718e+003,8.542724e-003
3.650646e+003,8.493965e-003
3.652574e+003,8.413522e-003
3.654503e+003,8.499303e-003
3.656432e+003,8.528565e-003
3.658360e+003,8.467373e-003
3.660289e+003,8.342483e-003
3.662217e+003,8.374673e-003
3.664146e+003,8.379808e-003
3.666074e+003,8.320191e-003
3.668002e+003,8.401630e-003
3.669931e+003,8.454839e-003
3.671860e+003,8.429129e-003
3.673788e+003,8.506703e-003
3.675717e+003,8.535560e-003
3.677645e+003,8.585237e-003
3.679573e+003,8.729669e-003
3.681502e+003,8.939322e-003
3.683430e+003,9.080523e-003
3.685359e+003,9.139635e-003
3.687288e+003,9.298909e-003
3.689216e+003,9.580676e-003
3.691145e+003,9.777794e-003
3.693073e+003,9.990937e-003
3.695001e+003,1.010793e-002
3.696930e+003,1.022630e-002
3.698858e+003,1.043600e-002
3.700787e+003,1.057002e-002
3.702716e+003,1.057803e-002
3.704644e+003,1.063585e-002
3.706573e+003,1.056065e-002
3.708501e+003,1.029331e-002
3.710429e+003,9.885370e-003
3.712358e+003,9.412122e-003
3.714286e+003,9.123494e-003
3.716215e+003,9.384188e-003
3.718144e+003,9.962254e-003
3.720072e+003,1.052500e-002
3.722000e+003,1.097299e-002
3.723929e+003,1.125578e-002
3.725857e+003,1.151428e-002
3.727786e+003,1.165231e-002
3.729714e+003,1.159125e-002
3.731643e+003,1.136355e-002
3.733572e+003,1.113039e-002
3.735500e+003,1.083138e-002
3.737428e+003,1.038197e-002
3.739357e+003,9.984631e-003
3.741285e+003,9.723644e-003
3.743214e+003,9.408025e-003
3.745142e+003,9.125085e-003
3.747071e+003,8.961070e-003
3.749000e+003,8.874285e-003
3.750928e+003,8.900765e-003
3.752856e+003,8.880372e-003
3.754785e+003,8.843816e-003
3.756713e+003,8.832116e-003
3.758642e+003,8.790086e-003
3.760570e+003,8.772538e-003
3.762499e+003,8.824778e-003
3.764427e+003,8.770713e-003
3.766356e+003,8.856463e-003
3.768284e+003,8.911081e-003
3.770213e+003,8.922613e-003
3.772141e+003,8.997569e-003
3.774070e+003,8.937157e-003
3.775998e+003,8.864647e-003
3.777927e+003,8.908713e-003
3.779855e+003,8.923121e-003
3.781784e+003,8.950382e-003
3.783712e+003,8.977577e-003
3.785641e+003,8.955828e-003
3.787569e+003,8.861772e-003
3.789498e+003,8.920584e-003
3.791426e+003,9.020031e-003
3.793355e+003,8.932388e-003
3.795283e+003,8.898634e-003
3.797212e+003,8.939322e-003
3.799140e+003,8.908273e-003
3.801069e+003,8.934519e-003
3.802997e+003,8.966787e-003
3.804926e+003,9.067564e-003
3.806854e+003,9.107997e-003
3.808783e+003,9.077173e-003
3.810711e+003,9.047772e-003
3.812640e+003,8.967294e-003
3.814568e+003,8.946188e-003
3.816497e+003,8.968546e-003
3.818425e+003,8.998381e-003
3.820354e+003,8.997738e-003
3.822282e+003,9.006635e-003
3.824211e+003,8.948116e-003
3.826139e+003,8.974263e-003
3.828068e+003,8.959379e-003
3.829996e+003,8.992394e-003
3.831925e+003,9.074027e-003
3.833853e+003,9.061474e-003
3.835782e+003,9.020065e-003
3.837710e+003,9.021317e-003
3.839639e+003,9.077782e-003
3.841567e+003,9.140345e-003
3.843496e+003,9.088338e-003
3.845424e+003,9.063741e-003
3.847353e+003,9.120144e-003
3.849281e+003,9.111448e-003
3.851210e+003,9.059817e-003
3.853138e+003,9.092804e-003
3.855067e+003,9.153780e-003
3.856995e+003,9.120753e-003
3.858924e+003,9.120956e-003
3.860852e+003,9.172358e-003
3.862781e+003,9.186470e-003
3.864709e+003,9.116692e-003
3.866638e+003,9.039314e-003
3.868566e+003,9.042731e-003
3.870495e+003,9.090537e-003
3.872423e+003,9.100553e-003
3.874352e+003,9.055790e-003
3.876280e+003,9.123426e-003
3.878209e+003,9.184169e-003
3.880137e+003,9.247256e-003
3.882066e+003,9.286993e-003
3.883994e+003,9.212461e-003
3.885923e+003,9.135541e-003
3.887851e+003,9.133815e-003
3.889780e+003,9.158043e-003
3.891708e+003,9.119806e-003
3.893637e+003,9.137875e-003
3.895565e+003,9.175912e-003
3.897494e+003,9.114358e-003
3.899422e+003,9.198992e-003
3.901351e+003,9.290582e-003
3.903279e+003,9.272133e-003
3.905208e+003,9.197435e-003
3.907136e+003,9.156385e-003
3.909065e+003,9.219468e-003
3.910993e+003,9.268072e-003
3.912922e+003,9.208604e-003
3.914850e+003,9.251148e-003
3.916779e+003,9.287840e-003
3.918707e+003,9.294373e-003
3.920636e+003,9.203020e-003
3.922564e+003,9.223867e-003
3.924493e+003,9.284962e-003
3.926421e+003,9.251384e-003
3.928350e+003,9.248981e-003
3.930278e+003,9.271558e-003
3.932207e+003,9.288753e-003
3.934135e+003,9.294034e-003
3.936064e+003,9.283879e-003
3.937992e+003,9.259440e-003
3.939921e+003,9.230874e-003
3.941849e+003,9.262689e-003
3.943778e+003,9.337366e-003
3.945706e+003,9.352634e-003
3.947635e+003,9.337602e-003
3.949563e+003,9.317392e-003
3.951492e+003,9.297284e-003
3.953420e+003,9.272167e-003
3.955349e+003,9.323418e-003
3.957277e+003,9.309268e-003
3.959206e+003,9.288449e-003
3.961134e+003,9.282559e-003
3.963063e+003,9.250369e-003
3.964991e+003,9.296912e-003
3.966920e+003,9.391400e-003
3.968848e+003,9.368140e-003
3.970777e+003,9.227861e-003
3.972705e+003,9.200481e-003
3.974634e+003,9.222751e-003
3.976562e+003,9.231212e-003
3.978491e+003,9.300974e-003
3.980419e+003,9.277076e-003
3.982348e+003,9.296404e-003
3.984276e+003,9.281781e-003
3.986205e+003,9.282424e-003
3.988133e+003,9.345795e-003
3.990062e+003,9.352905e-003
3.991990e+003,9.318644e-003
3.993919e+003,9.338753e-003
3.995847e+003,9.412359e-003
3.997776e+003,9.369799e-003
3.999704e+003,9.369799e-003
4.001633e+003,0.000000e+000
