3.991989e+002,6.229896e-002
4.011274e+002,6.512922e-002
4.030559e+002,6.512922e-002
4.049844e+002,6.489616e-002
4.069129e+002,6.749404e-002
4.088414e+002,6.901724e-002
4.107699e+002,6.941403e-002
4.126984e+002,7.185697e-002
4.146269e+002,7.358512e-002
4.165554e+002,7.428409e-002
4.184839e+002,7.412108e-002
4.204124e+002,7.496604e-002
4.223409e+002,7.740715e-002
4.242694e+002,7.780407e-002
4.261979e+002,7.828218e-002
4.281264e+002,8.008530e-002
4.300549e+002,8.176197e-002
4.319834e+002,8.171953e-002
4.339119e+002,8.007849e-002
4.358404e+002,8.002753e-002
4.377689e+002,8.147065e-002
4.396974e+002,8.109643e-002
4.416259e+002,8.093736e-002
4.435544e+002,8.103091e-002
4.454829e+002,8.100244e-002
4.474114e+002,8.154567e-002
4.493399e+002,8.112455e-002
4.512684e+002,8.021242e-002
4.531969e+002,8.023207e-002
4.551254e+002,8.035624e-002
4.570539e+002,8.088331e-002
4.589824e+002,8.160133e-002
4.609109e+002,8.130240e-002
4.628394e+002,8.056317e-002
4.647679e+002,8.046661e-002
4.666964e+002,8.045900e-002
4.686249e+002,7.981513e-002
4.705533e+002,7.967180e-002
4.724819e+002,7.947644e-002
4.744103e+002,7.871525e-002
4.763389e+002,7.825833e-002
4.782673e+002,7.750256e-002
4.801959e+002,7.669844e-002
4.821243e+002,7.621461e-002
4.840529e+002,7.589837e-002
4.859813e+002,7.546609e-002
4.879099e+002,7.550003e-002
4.898383e+002,7.532916e-002
4.917668e+002,7.499289e-002
4.936953e+002,7.454907e-002
4.956238e+002,7.380946e-002
4.975523e+002,7.329475e-002
4.994808e+002,7.287583e-002
5.014093e+002,7.263090e-002
5.033378e+002,7.296436e-002
5.052663e+002,7.329805e-002
5.071948e+002,7.330032e-002
5.091233e+002,7.302105e-002
5.110518e+002,7.311106e-002
5.129803e+002,7.335740e-002
5.149088e+002,7.366858e-002
5.168373e+002,7.417500e-002
5.187658e+002,7.470996e-002
5.206943e+002,7.494733e-002
5.226228e+002,7.482351e-002
5.245513e+002,7.499442e-002
5.264798e+002,7.515749e-002
5.284083e+002,7.517793e-002
5.303368e+002,7.502518e-002
5.322653e+002,7.439179e-002
5.341938e+002,7.413763e-002
5.361223e+002,7.382647e-002
5.380508e+002,7.358402e-002
5.399792e+002,7.323968e-002
5.419078e+002,7.344902e-002
5.438363e+002,7.411000e-002
5.457648e+002,7.450163e-002
5.476932e+002,7.460435e-002
5.496218e+002,7.488799e-002
5.515503e+002,7.540467e-002
5.534788e+002,7.611527e-002
5.554072e+002,7.666235e-002
5.573358e+002,7.742319e-002
5.592643e+002,7.802724e-002
5.611927e+002,7.751273e-002
5.631212e+002,7.634278e-002
5.650497e+002,7.553090e-002
5.669783e+002,7.495005e-002
5.689067e+002,7.444452e-002
5.708352e+002,7.370136e-002
5.727637e+002,7.331017e-002
5.746923e+002,7.325710e-002
5.766207e+002,7.294884e-002
5.785492e+002,7.273282e-002
5.804777e+002,7.264230e-002
5.824063e+002,7.242670e-002
5.843347e+002,7.231491e-002
5.862632e+002,7.195300e-002
5.881917e+002,7.141023e-002
5.901202e+002,7.140635e-002
5.920487e+002,7.161468e-002
5.939772e+002,7.161019e-002
5.959057e+002,7.096875e-002
5.978342e+002,7.039045e-002
5.997627e+002,7.014436e-002
6.016912e+002,6.974862e-002
6.036197e+002,6.964000e-002
6.055482e+002,6.970117e-002
6.074767e+002,6.969967e-002
6.094052e+002,6.957395e-002
6.113337e+002,6.910488e-002
6.132622e+002,6.855285e-002
6.151907e+002,6.785977e-002
6.171192e+002,6.762531e-002
6.190477e+002,6.666514e-002
6.209762e+002,6.561793e-002
6.229047e+002,6.479511e-002
6.248332e+002,6.387274e-002
6.267617e+002,6.285157e-002
6.286902e+002,6.224472e-002
6.306187e+002,6.171466e-002
6.325472e+002,6.119657e-002
6.344756e+002,6.096650e-002
6.364042e+002,6.066468e-002
6.383326e+002,6.011608e-002
6.402612e+002,5.982306e-002
6.421896e+002,5.955154e-002
6.441182e+002,5.929578e-002
6.460466e+002,5.903546e-002
6.479752e+002,5.893261e-002
6.499036e+002,5.864959e-002
6.518322e+002,5.820777e-002
6.537606e+002,5.796938e-002
6.556891e+002,5.793988e-002
6.576177e+002,5.825769e-002
6.595461e+002,5.841338e-002
6.614746e+002,5.861035e-002
6.634031e+002,5.862399e-002
6.653317e+002,5.847140e-002
6.672601e+002,5.776526e-002
6.691886e+002,5.704988e-002
6.711171e+002,5.640810e-002
6.730457e+002,5.537874e-002
6.749741e+002,5.421952e-002
6.769026e+002,5.291258e-002
6.788311e+002,5.175992e-002
6.807596e+002,5.052473e-002
6.826881e+002,4.964475e-002
6.846166e+002,4.894596e-002
6.865451e+002,4.834905e-002
6.884736e+002,4.793213e-002
6.904021e+002,4.768503e-002
6.923306e+002,4.738001e-002
6.942591e+002,4.752006e-002
6.961876e+002,4.739720e-002
6.981161e+002,4.723061e-002
7.000446e+002,4.697590e-002
7.019731e+002,4.657478e-002
7.039016e+002,4.623243e-002
7.058301e+002,4.587441e-002
7.077585e+002,4.552803e-002
7.096871e+002,4.526760e-002
7.116156e+002,4.483632e-002
7.135441e+002,4.441904e-002
7.154725e+002,4.410636e-002
7.174011e+002,4.406127e-002
7.193296e+002,4.411163e-002
7.212581e+002,4.360393e-002
7.231865e+002,4.288665e-002
7.251151e+002,4.256563e-002
7.270436e+002,4.214003e-002
7.289720e+002,4.165480e-002
7.309005e+002,4.123013e-002
7.328290e+002,4.081669e-002
7.347576e+002,4.052536e-002
7.366860e+002,4.022965e-002
7.386145e+002,3.974948e-002
7.405430e+002,3.948471e-002
7.424716e+002,3.925987e-002
7.444000e+002,3.891638e-002
7.463285e+002,3.842510e-002
7.482570e+002,3.790323e-002
7.501855e+002,3.761173e-002
7.521140e+002,3.733041e-002
7.540425e+002,3.700724e-002
7.559710e+002,3.677019e-002
7.578995e+002,3.650972e-002
7.598280e+002,3.628601e-002
7.617565e+002,3.597421e-002
7.636850e+002,3.574404e-002
7.656135e+002,3.570746e-002
7.675420e+002,3.567735e-002
7.694705e+002,3.551666e-002
7.713990e+002,3.554410e-002
7.733275e+002,3.557182e-002
7.752560e+002,3.562398e-002
7.771844e+002,3.559355e-002
7.791130e+002,3.546420e-002
7.810415e+002,3.545072e-002
7.829700e+002,3.532437e-002
7.848984e+002,3.518321e-002
7.868270e+002,3.521976e-002
7.887555e+002,3.530119e-002
7.906840e+002,3.522525e-002
7.926124e+002,3.514955e-002
7.945410e+002,3.509634e-002
7.964695e+002,3.497544e-002
7.983979e+002,3.490183e-002
8.003264e+002,3.494876e-002
8.022549e+002,3.495673e-002
8.041835e+002,3.498457e-002
8.061119e+002,3.494136e-002
8.080404e+002,3.485160e-002
8.099689e+002,3.491863e-002
8.118975e+002,3.503786e-002
8.138259e+002,3.496287e-002
8.157545e+002,3.479010e-002
8.176830e+002,3.466010e-002
8.196115e+002,3.454194e-002
8.215399e+002,3.438877e-002
8.234684e+002,3.413564e-002
8.253970e+002,3.411084e-002
8.273254e+002,3.411790e-002
8.292539e+002,3.404751e-002
8.311824e+002,3.406701e-002
8.331110e+002,3.428076e-002
8.350394e+002,3.441230e-002
8.369679e+002,3.441779e-002
8.388964e+002,3.432946e-002
8.408250e+002,3.433419e-002
8.427534e+002,3.432838e-002
8.446819e+002,3.415693e-002
8.466104e+002,3.403364e-002
8.485389e+002,3.404894e-002
8.504674e+002,3.402433e-002
8.523959e+002,3.391093e-002
8.543244e+002,3.396746e-002
8.562529e+002,3.412431e-002
8.581814e+002,3.420372e-002
8.601099e+002,3.435291e-002
8.620384e+002,3.453437e-002
8.639669e+002,3.469380e-002
8.658954e+002,3.493806e-002
8.678239e+002,3.514875e-002
8.697524e+002,3.537451e-002
8.716809e+002,3.560002e-002
8.736094e+002,3.603930e-002
8.755378e+002,3.639873e-002
8.774664e+002,3.676071e-002
8.793949e+002,3.727470e-002
8.813234e+002,3.786557e-002
8.832518e+002,3.860447e-002
8.851804e+002,3.950406e-002
8.871089e+002,4.046967e-002
8.890374e+002,4.153476e-002
8.909658e+002,4.277055e-002
8.928943e+002,4.387133e-002
8.948229e+002,4.456703e-002
8.967513e+002,4.488308e-002
8.986798e+002,4.468527e-002
9.006083e+002,4.409195e-002
9.025369e+002,4.332107e-002
9.044653e+002,4.249313e-002
9.063938e+002,4.178067e-002
9.083223e+002,4.130221e-002
9.102509e+002,4.108814e-002
9.121793e+002,4.098460e-002
9.141078e+002,4.088150e-002
9.160364e+002,4.100667e-002
9.179648e+002,4.128155e-002
9.198933e+002,4.152302e-002
9.218218e+002,4.192837e-002
9.237504e+002,4.248750e-002
9.256788e+002,4.299533e-002
9.276073e+002,4.354686e-002
9.295358e+002,4.416472e-002
9.314644e+002,4.477610e-002
9.333928e+002,4.535995e-002
9.353213e+002,4.607695e-002
9.372498e+002,4.697001e-002
9.391783e+002,4.785707e-002
9.411068e+002,4.901226e-002
9.430353e+002,5.026185e-002
9.449637e+002,5.158004e-002
9.468923e+002,5.295532e-002
9.488208e+002,5.447993e-002
9.507493e+002,5.601960e-002
9.526777e+002,5.759444e-002
9.546063e+002,5.934410e-002
9.565348e+002,6.106190e-002
9.584633e+002,6.284311e-002
9.603917e+002,6.466757e-002
9.623203e+002,6.652559e-002
9.642488e+002,6.829120e-002
9.661772e+002,7.002412e-002
9.681057e+002,7.181612e-002
9.700343e+002,7.359371e-002
9.719628e+002,7.530551e-002
9.738912e+002,7.714493e-002
9.758197e+002,7.925329e-002
9.777483e+002,8.159117e-002
9.796768e+002,8.401480e-002
9.816052e+002,8.661266e-002
9.835337e+002,8.920792e-002
9.854623e+002,9.155302e-002
9.873907e+002,9.340885e-002
9.893192e+002,9.471625e-002
9.912477e+002,9.540238e-002
9.931763e+002,9.563288e-002
9.951047e+002,9.575628e-002
9.970332e+002,9.621641e-002
9.989617e+002,9.718350e-002
1.000890e+003,9.854236e-002
1.002819e+003,9.994056e-002
1.004747e+003,1.012221e-001
1.006676e+003,1.024203e-001
1.008604e+003,1.036298e-001
1.010533e+003,1.048495e-001
1.012461e+003,1.062186e-001
1.014390e+003,1.078073e-001
1.016318e+003,1.096580e-001
1.018247e+003,1.115781e-001
1.020175e+003,1.135047e-001
1.022104e+003,1.153923e-001
1.024032e+003,1.172890e-001
1.025961e+003,1.191743e-001
1.027889e+003,1.209310e-001
1.029818e+003,1.223926e-001
1.031746e+003,1.234683e-001
1.033675e+003,1.238095e-001
1.035603e+003,1.233836e-001
1.037532e+003,1.222464e-001
1.039460e+003,1.206097e-001
1.041389e+003,1.188416e-001
1.043317e+003,1.173943e-001
1.045246e+003,1.162266e-001
1.047174e+003,1.152647e-001
1.049103e+003,1.144045e-001
1.051031e+003,1.135048e-001
1.052960e+003,1.123326e-001
1.054888e+003,1.108793e-001
1.056817e+003,1.091136e-001
1.058745e+003,1.071193e-001
1.060674e+003,1.049707e-001
1.062602e+003,1.026248e-001
1.064531e+003,1.001363e-001
1.066459e+003,9.771027e-002
1.068388e+003,9.539842e-002
1.070316e+003,9.333769e-002
1.072245e+003,9.142189e-002
1.074173e+003,8.971357e-002
1.076102e+003,8.802854e-002
1.078030e+003,8.622466e-002
1.079959e+003,8.437853e-002
1.081887e+003,8.257729e-002
1.083816e+003,8.103510e-002
1.085744e+003,7.990154e-002
1.087673e+003,7.895370e-002
1.089601e+003,7.808442e-002
1.091530e+003,7.726724e-002
1.093458e+003,7.649232e-002
1.095387e+003,7.586866e-002
1.097315e+003,7.543002e-002
1.099244e+003,7.508268e-002
1.101172e+003,7.487331e-002
1.103101e+003,7.455879e-002
1.105029e+003,7.396568e-002
1.106958e+003,7.309055e-002
1.108886e+003,7.170870e-002
1.110815e+003,6.987017e-002
1.112743e+003,6.783590e-002
1.114672e+003,6.566980e-002
1.116600e+003,6.353001e-002
1.118529e+003,6.160339e-002
1.120457e+003,5.990969e-002
1.122386e+003,5.834001e-002
1.124314e+003,5.669058e-002
1.126243e+003,5.488715e-002
1.128171e+003,5.311237e-002
1.130100e+003,5.137256e-002
1.132028e+003,4.970697e-002
1.133957e+003,4.819688e-002
1.135885e+003,4.694819e-002
1.137814e+003,4.598949e-002
1.139742e+003,4.542937e-002
1.141671e+003,4.523326e-002
1.143599e+003,4.541152e-002
1.145528e+003,4.596032e-002
1.147456e+003,4.663411e-002
1.149385e+003,4.739825e-002
1.151313e+003,4.821584e-002
1.153242e+003,4.908764e-002
1.155170e+003,4.993733e-002
1.157099e+003,5.070844e-002
1.159027e+003,5.120726e-002
1.160956e+003,5.128895e-002
1.162884e+003,5.090741e-002
1.164813e+003,5.000655e-002
1.166741e+003,4.860388e-002
1.168670e+003,4.677184e-002
1.170598e+003,4.466779e-002
1.172526e+003,4.254867e-002
1.174455e+003,4.050723e-002
1.176384e+003,3.865336e-002
1.178312e+003,3.702161e-002
1.180240e+003,3.558596e-002
1.182169e+003,3.442442e-002
1.184098e+003,3.354187e-002
1.186026e+003,3.289693e-002
1.187954e+003,3.249212e-002
1.189883e+003,3.231662e-002
1.191812e+003,3.235813e-002
1.193740e+003,3.260015e-002
1.195668e+003,3.305408e-002
1.197597e+003,3.355334e-002
1.199526e+003,3.396076e-002
1.201454e+003,3.419762e-002
1.203382e+003,3.421799e-002
1.205311e+003,3.411633e-002
1.207240e+003,3.392646e-002
1.209168e+003,3.368293e-002
1.211096e+003,3.360269e-002
1.213025e+003,3.370605e-002
1.214953e+003,3.394273e-002
1.216882e+003,3.429265e-002
1.218810e+003,3.476084e-002
1.220739e+003,3.524154e-002
1.222667e+003,3.582409e-002
1.224596e+003,3.652374e-002
1.226524e+003,3.724026e-002
1.228453e+003,3.787729e-002
1.230381e+003,3.845904e-002
1.232310e+003,3.894572e-002
1.234238e+003,3.927830e-002
1.236167e+003,3.948620e-002
1.238095e+003,3.965663e-002
1.240024e+003,3.971960e-002
1.241952e+003,3.973334e-002
1.243881e+003,3.966781e-002
1.245809e+003,3.944389e-002
1.247738e+003,3.913172e-002
1.249666e+003,3.876810e-002
1.251595e+003,3.834572e-002
1.253523e+003,3.789911e-002
1.255452e+003,3.741064e-002
1.257380e+003,3.690046e-002
1.259309e+003,3.635316e-002
1.261237e+003,3.573022e-002
1.263166e+003,3.511631e-002
1.265094e+003,3.448013e-002
1.267023e+003,3.384101e-002
1.268951e+003,3.324331e-002
1.270880e+003,3.265129e-002
1.272808e+003,3.210393e-002
1.274737e+003,3.158031e-002
1.276665e+003,3.118452e-002
1.278594e+003,3.086529e-002
1.280522e+003,3.061510e-002
1.282451e+003,3.034242e-002
1.284379e+003,3.006224e-002
1.286308e+003,2.985844e-002
1.288236e+003,2.966921e-002
1.290165e+003,2.958418e-002
1.292093e+003,2.966913e-002
1.294022e+003,2.982184e-002
1.295950e+003,3.006283e-002
1.297879e+003,3.042617e-002
1.299807e+003,3.081991e-002
1.301736e+003,3.125543e-002
1.303664e+003,3.172733e-002
1.305593e+003,3.227325e-002
1.307521e+003,3.285315e-002
1.309450e+003,3.336038e-002
1.311378e+003,3.385942e-002
1.313307e+003,3.426496e-002
1.315235e+003,3.445813e-002
1.317164e+003,3.443789e-002
1.319092e+003,3.423930e-002
1.321021e+003,3.398022e-002
1.322949e+003,3.364602e-002
1.324878e+003,3.327604e-002
1.326806e+003,3.305134e-002
1.328735e+003,3.292252e-002
1.330663e+003,3.288233e-002
1.332592e+003,3.291247e-002
1.334520e+003,3.290599e-002
1.336449e+003,3.281430e-002
1.338377e+003,3.262635e-002
1.340306e+003,3.242564e-002
1.342234e+003,3.226030e-002
1.344163e+003,3.217330e-002
1.346091e+003,3.219585e-002
1.348020e+003,3.231423e-002
1.349948e+003,3.252999e-002
1.351877e+003,3.279075e-002
1.353805e+003,3.313781e-002
1.355734e+003,3.348976e-002
1.357662e+003,3.388220e-002
1.359591e+003,3.427067e-002
1.361519e+003,3.462038e-002
1.363448e+003,3.494147e-002
1.365376e+003,3.512441e-002
1.367305e+003,3.521552e-002
1.369233e+003,3.517509e-002
1.371162e+003,3.496138e-002
1.373090e+003,3.463190e-002
1.375019e+003,3.425353e-002
1.376947e+003,3.382309e-002
1.378876e+003,3.324828e-002
1.380804e+003,3.255590e-002
1.382733e+003,3.185929e-002
1.384661e+003,3.118848e-002
1.386590e+003,3.061772e-002
1.388518e+003,3.013953e-002
1.390447e+003,2.979937e-002
1.392375e+003,2.957770e-002
1.394304e+003,2.941963e-002
1.396232e+003,2.935952e-002
1.398161e+003,2.938541e-002
1.400089e+003,2.945046e-002
1.402018e+003,2.952078e-002
1.403946e+003,2.956594e-002
1.405875e+003,2.964352e-002
1.407803e+003,2.975796e-002
1.409732e+003,2.990786e-002
1.411660e+003,3.013616e-002
1.413589e+003,3.037098e-002
1.415517e+003,3.060582e-002
1.417446e+003,3.087567e-002
1.419374e+003,3.107376e-002
1.421303e+003,3.118429e-002
1.423231e+003,3.126974e-002
1.425160e+003,3.124175e-002
1.427088e+003,3.110038e-002
1.429017e+003,3.090341e-002
1.430945e+003,3.062174e-002
1.432874e+003,3.030221e-002
1.434802e+003,2.994408e-002
1.436731e+003,2.953570e-002
1.438659e+003,2.918600e-002
1.440588e+003,2.898276e-002
1.442516e+003,2.878664e-002
1.444445e+003,2.867635e-002
1.446373e+003,2.864169e-002
1.448302e+003,2.860256e-002
1.450230e+003,2.856297e-002
1.452159e+003,2.857211e-002
1.454087e+003,2.850596e-002
1.456016e+003,2.829200e-002
1.457944e+003,2.807312e-002
1.459873e+003,2.788953e-002
1.461801e+003,2.769178e-002
1.463730e+003,2.743019e-002
1.465658e+003,2.692984e-002
1.467587e+003,2.622638e-002
1.469515e+003,2.538018e-002
1.471444e+003,2.448728e-002
1.473372e+003,2.362157e-002
1.475301e+003,2.290609e-002
1.477229e+003,2.239194e-002
1.479158e+003,2.201739e-002
1.481086e+003,2.179647e-002
1.483015e+003,2.171310e-002
1.484943e+003,2.174377e-002
1.486872e+003,2.193029e-002
1.488800e+003,2.219701e-002
1.490729e+003,2.254309e-002
1.492657e+003,2.299482e-002
1.494586e+003,2.346419e-002
1.496514e+003,2.384630e-002
1.498443e+003,2.418781e-002
1.500371e+003,2.442939e-002
1.502300e+003,2.465232e-002
1.504228e+003,2.490359e-002
1.506157e+003,2.515043e-002
1.508085e+003,2.542094e-002
1.510014e+003,2.572072e-002
1.511942e+003,2.594074e-002
1.513871e+003,2.612855e-002
1.515799e+003,2.616417e-002
1.517728e+003,2.587832e-002
1.519656e+003,2.546961e-002
1.521585e+003,2.505427e-002
1.523513e+003,2.473718e-002
1.525442e+003,2.454542e-002
1.527370e+003,2.440029e-002
1.529299e+003,2.425472e-002
1.531227e+003,2.416846e-002
1.533156e+003,2.414190e-002
1.535084e+003,2.406959e-002
1.537013e+003,2.400497e-002
1.538941e+003,2.397397e-002
1.540870e+003,2.389427e-002
1.542798e+003,2.380477e-002
1.544727e+003,2.373115e-002
1.546655e+003,2.364716e-002
1.548584e+003,2.360170e-002
1.550512e+003,2.353428e-002
1.552441e+003,2.343085e-002
1.554369e+003,2.334716e-002
1.556298e+003,2.335209e-002
1.558226e+003,2.333068e-002
1.560155e+003,2.327286e-002
1.562083e+003,2.329479e-002
1.564012e+003,2.336453e-002
1.565940e+003,2.343843e-002
1.567869e+003,2.353496e-002
1.569797e+003,2.370735e-002
1.571726e+003,2.387019e-002
1.573654e+003,2.406492e-002
1.575583e+003,2.426340e-002
1.577511e+003,2.459608e-002
1.579440e+003,2.494547e-002
1.581368e+003,2.522839e-002
1.583297e+003,2.555177e-002
1.585225e+003,2.589691e-002
1.587154e+003,2.620900e-002
1.589082e+003,2.652140e-002
1.591010e+003,2.680139e-002
1.592939e+003,2.701067e-002
1.594868e+003,2.712424e-002
1.596796e+003,2.715294e-002
1.598724e+003,2.718810e-002
1.600653e+003,2.721620e-002
1.602582e+003,2.727865e-002
1.604510e+003,2.733980e-002
1.606438e+003,2.739658e-002
1.608367e+003,2.743859e-002
1.610296e+003,2.756539e-002
1.612224e+003,2.775521e-002
1.614152e+003,2.802576e-002
1.616081e+003,2.826374e-002
1.618010e+003,2.852210e-002
1.619938e+003,2.882526e-002
1.621866e+003,2.912330e-002
1.623795e+003,2.923817e-002
1.625724e+003,2.931817e-002
1.627652e+003,2.926796e-002
1.629580e+003,2.908508e-002
1.631509e+003,2.890938e-002
1.633438e+003,2.868043e-002
1.635366e+003,2.845788e-002
1.637294e+003,2.828747e-002
1.639223e+003,2.817944e-002
1.641151e+003,2.801338e-002
1.643080e+003,2.790338e-002
1.645008e+003,2.786748e-002
1.646937e+003,2.787512e-002
1.648865e+003,2.780170e-002
1.650794e+003,2.768602e-002
1.652722e+003,2.747021e-002
1.654651e+003,2.721789e-002
1.656579e+003,2.690856e-002
1.658508e+003,2.644882e-002
1.660436e+003,2.593800e-002
1.662365e+003,2.537085e-002
1.664293e+003,2.472102e-002
1.666222e+003,2.405867e-002
1.668150e+003,2.354288e-002
1.670079e+003,2.305447e-002
1.672007e+003,2.255641e-002
1.673936e+003,2.216421e-002
1.675864e+003,2.175463e-002
1.677793e+003,2.139646e-002
1.679721e+003,2.108520e-002
1.681650e+003,2.074774e-002
1.683578e+003,2.042969e-002
1.685507e+003,2.013632e-002
1.687435e+003,1.995043e-002
1.689364e+003,1.975834e-002
1.691292e+003,1.959982e-002
1.693221e+003,1.943712e-002
1.695149e+003,1.928033e-002
1.697078e+003,1.918487e-002
1.699006e+003,1.905229e-002
1.700935e+003,1.891141e-002
1.702863e+003,1.889644e-002
1.704792e+003,1.892873e-002
1.706720e+003,1.907468e-002
1.708649e+003,1.928522e-002
1.710577e+003,1.948106e-002
1.712506e+003,1.969517e-002
1.714434e+003,1.995546e-002
1.716363e+003,2.020560e-002
1.718291e+003,2.053303e-002
1.720220e+003,2.083301e-002
1.722148e+003,2.104098e-002
1.724077e+003,2.123812e-002
1.726005e+003,2.150265e-002
1.727934e+003,2.169354e-002
1.729862e+003,2.175069e-002
1.731791e+003,2.170042e-002
1.733719e+003,2.151831e-002
1.735648e+003,2.113525e-002
1.737576e+003,2.061208e-002
1.739505e+003,1.994569e-002
1.741433e+003,1.916349e-002
1.743362e+003,1.841253e-002
1.745290e+003,1.776408e-002
1.747219e+003,1.710372e-002
1.749147e+003,1.647372e-002
1.751076e+003,1.590698e-002
1.753004e+003,1.544244e-002
1.754933e+003,1.507659e-002
1.756861e+003,1.471901e-002
1.758790e+003,1.438827e-002
1.760718e+003,1.413143e-002
1.762647e+003,1.389518e-002
1.764575e+003,1.370188e-002
1.766504e+003,1.355877e-002
1.768432e+003,1.343428e-002
1.770361e+003,1.332393e-002
1.772289e+003,1.325842e-002
1.774218e+003,1.320174e-002
1.776146e+003,1.313106e-002
1.778075e+003,1.303183e-002
1.780003e+003,1.302256e-002
1.781932e+003,1.299893e-002
1.783860e+003,1.303946e-002
1.785789e+003,1.303058e-002
1.787717e+003,1.298604e-002
1.789646e+003,1.293190e-002
1.791574e+003,1.292493e-002
1.793503e+003,1.295545e-002
1.795431e+003,1.298899e-002
1.797360e+003,1.293006e-002
1.799288e+003,1.290634e-002
1.801217e+003,1.287885e-002
1.803145e+003,1.287611e-002
1.805074e+003,1.293394e-002
1.807002e+003,1.298846e-002
1.808931e+003,1.287388e-002
1.810859e+003,1.285967e-002
1.812788e+003,1.279827e-002
1.814716e+003,1.269658e-002
1.816645e+003,1.259991e-002
1.818573e+003,1.260132e-002
1.820502e+003,1.263002e-002
1.822430e+003,1.261912e-002
1.824359e+003,1.252196e-002
1.826287e+003,1.245247e-002
1.828216e+003,1.244061e-002
1.830144e+003,1.248373e-002
1.832073e+003,1.242274e-002
1.834001e+003,1.229050e-002
1.835930e+003,1.234002e-002
1.837858e+003,1.243055e-002
1.839787e+003,1.242961e-002
1.841715e+003,1.235020e-002
1.843644e+003,1.225754e-002
1.845572e+003,1.232574e-002
1.847501e+003,1.236334e-002
1.849429e+003,1.224500e-002
1.851358e+003,1.227509e-002
1.853286e+003,1.222117e-002
1.855215e+003,1.213827e-002
1.857143e+003,1.234139e-002
1.859072e+003,1.232300e-002
1.861000e+003,1.206559e-002
1.862929e+003,1.197794e-002
1.864857e+003,1.203113e-002
1.866786e+003,1.207481e-002
1.868714e+003,1.200647e-002
1.870643e+003,1.190597e-002
1.872571e+003,1.198331e-002
1.874500e+003,1.189175e-002
1.876428e+003,1.186803e-002
1.878357e+003,1.185329e-002
1.880285e+003,1.182548e-002
1.882214e+003,1.182018e-002
1.884142e+003,1.184174e-002
1.886071e+003,1.183964e-002
1.887999e+003,1.171135e-002
1.889928e+003,1.153199e-002
1.891856e+003,1.156790e-002
1.893785e+003,1.149805e-002
1.895713e+003,1.137064e-002
1.897642e+003,1.122144e-002
1.899570e+003,1.133937e-002
1.901499e+003,1.126335e-002
1.903427e+003,1.110876e-002
1.905356e+003,1.103109e-002
1.907284e+003,1.101482e-002
1.909213e+003,1.085746e-002
1.911141e+003,1.062231e-002
1.913070e+003,1.047111e-002
1.914998e+003,1.023703e-002
1.916927e+003,1.039965e-002
1.918855e+003,1.034322e-002
1.920784e+003,9.784875e-003
1.922712e+003,9.810141e-003
1.924641e+003,9.908398e-003
1.926569e+003,9.599825e-003
1.928498e+003,9.106303e-003
1.930426e+003,8.820526e-003
1.932355e+003,8.719307e-003
1.934283e+003,8.317570e-003
1.936212e+003,7.985414e-003
1.938140e+003,7.638544e-003
1.940069e+003,7.358815e-003
1.941997e+003,7.146460e-003
1.943926e+003,6.527571e-003
1.945854e+003,5.846479e-003
1.947783e+003,5.491873e-003
1.949711e+003,5.083497e-003
1.951640e+003,4.789404e-003
1.953568e+003,4.679506e-003
1.955497e+003,4.081699e-003
1.957425e+003,2.752222e-003
1.959354e+003,1.186401e-003
1.961282e+003,-2.245429e-004
1.963211e+003,-1.413453e-003
1.965139e+003,-1.944669e-003
1.967068e+003,-2.915934e-003
1.968996e+003,-3.671054e-003
1.970925e+003,-4.438979e-003
1.972853e+003,-5.516998e-003
1.974782e+003,-7.118260e-003
1.976710e+003,-7.878502e-003
1.978639e+003,-6.738585e-003
1.980567e+003,-4.349172e-003
1.982496e+003,-2.172484e-003
1.984424e+003,-1.197278e-003
1.986353e+003,-4.097273e-004
1.988281e+003,-7.550633e-005
1.990210e+003,-3.314793e-004
1.992138e+003,-4.560782e-004
1.994067e+003,-8.270558e-004
1.995995e+003,-8.310353e-004
1.997924e+003,-9.532887e-004
1.999852e+003,-8.412888e-004
2.001781e+003,-1.542734e-003
2.003709e+003,-2.884738e-003
2.005638e+003,-4.877905e-003
2.007566e+003,-6.336006e-003
2.009495e+003,-5.518707e-003
2.011423e+003,-5.613456e-003
2.013352e+003,-6.350496e-003
2.015280e+003,-6.199827e-003
2.017208e+003,-6.693966e-003
2.019137e+003,-7.617746e-003
2.021066e+003,-8.045856e-003
2.022994e+003,-7.633139e-003
2.024922e+003,-8.887859e-003
2.026851e+003,-8.835929e-003
2.028780e+003,-8.795723e-003
2.030708e+003,-9.258481e-003
2.032636e+003,-9.427045e-003
2.034565e+003,-9.690202e-003
2.036494e+003,-9.141074e-003
2.038422e+003,-7.243777e-003
2.040350e+003,-5.593355e-003
2.042279e+003,-3.989461e-003
2.044208e+003,-2.936116e-003
2.046136e+003,-2.636715e-003
2.048064e+003,-2.192880e-003
2.049993e+003,-7.152826e-004
2.051921e+003,1.551692e-003
2.053850e+003,2.921310e-003
2.055778e+003,3.026391e-003
2.057707e+003,3.277293e-003
2.059635e+003,3.829721e-003
2.061564e+003,4.020539e-003
2.063492e+003,4.072043e-003
2.065421e+003,4.413930e-003
2.067349e+003,4.967514e-003
2.069278e+003,5.321709e-003
2.071206e+003,5.320451e-003
2.073135e+003,5.357259e-003
2.075063e+003,5.763745e-003
2.076992e+003,6.281796e-003
2.078920e+003,6.778908e-003
2.080849e+003,7.078517e-003
2.082777e+003,7.422623e-003
2.084706e+003,7.358558e-003
2.086634e+003,7.456257e-003
2.088563e+003,8.016752e-003
2.090491e+003,8.146813e-003
2.092420e+003,7.967925e-003
2.094348e+003,7.639191e-003
2.096277e+003,7.617394e-003
2.098205e+003,7.667373e-003
2.100134e+003,7.924225e-003
2.102062e+003,7.933201e-003
2.103991e+003,8.346773e-003
2.105919e+003,8.418319e-003
2.107848e+003,8.396360e-003
2.109776e+003,8.515117e-003
2.111705e+003,8.629545e-003
2.113633e+003,8.679300e-003
2.115562e+003,8.941893e-003
2.117490e+003,8.943651e-003
2.119419e+003,8.668585e-003
2.121347e+003,8.501533e-003
2.123276e+003,8.242077e-003
2.125204e+003,8.211855e-003
2.127133e+003,7.680998e-003
2.129061e+003,6.672638e-003
2.130990e+003,5.891786e-003
2.132918e+003,5.239286e-003
2.134847e+003,4.235568e-003
2.136775e+003,2.967127e-003
2.138704e+003,2.350150e-003
2.140632e+003,2.279797e-003
2.142561e+003,1.439439e-003
2.144489e+003,1.316615e-004
2.146418e+003,-1.193041e-003
2.148346e+003,-2.634499e-003
2.150275e+003,-4.002448e-003
2.152203e+003,-5.505432e-003
2.154132e+003,-7.379124e-003
2.156060e+003,-1.080196e-002
2.157989e+003,-1.643735e-002
2.159917e+003,-1.746412e-002
2.161846e+003,-1.369474e-002
2.163774e+003,-9.538378e-003
2.165703e+003,-7.490324e-003
2.167631e+003,-5.904523e-003
2.169560e+003,-4.093148e-003
2.171488e+003,-3.995751e-003
2.173417e+003,-4.787362e-003
2.175345e+003,-4.837368e-003
2.177274e+003,-3.466692e-003
2.179202e+003,-2.350947e-003
2.181131e+003,-2.999744e-003
2.183059e+003,-3.732107e-003
2.184988e+003,-2.271452e-003
2.186916e+003,-1.180484e-003
2.188845e+003,-2.650908e-004
2.190773e+003,4.442896e-004
2.192702e+003,5.111282e-004
2.194630e+003,1.026645e-003
2.196559e+003,1.400446e-003
2.198487e+003,1.435882e-003
2.200416e+003,1.951566e-003
2.202344e+003,2.471129e-003
2.204273e+003,3.002925e-003
2.206201e+003,3.442551e-003
2.208130e+003,3.705136e-003
2.210058e+003,3.712354e-003
2.211987e+003,3.901611e-003
2.213915e+003,3.716933e-003
2.215844e+003,3.980019e-003
2.217772e+003,4.700057e-003
2.219701e+003,5.114650e-003
2.221629e+003,5.460312e-003
2.223558e+003,5.539673e-003
2.225486e+003,5.720025e-003
2.227415e+003,6.431859e-003
2.229343e+003,6.834073e-003
2.231272e+003,7.337192e-003
2.233200e+003,6.972489e-003
2.235129e+003,6.846792e-003
2.237057e+003,7.665091e-003
2.238986e+003,8.158289e-003
2.240914e+003,8.599682e-003
2.242843e+003,8.680907e-003
2.244771e+003,8.931734e-003
2.246700e+003,9.137817e-003
2.248628e+003,9.586134e-003
2.250557e+003,1.004494e-002
2.252485e+003,1.024273e-002
2.254414e+003,1.018260e-002
2.256342e+003,1.006861e-002
2.258271e+003,1.036628e-002
2.260199e+003,1.090570e-002
2.262128e+003,1.082716e-002
2.264056e+003,1.091816e-002
2.265985e+003,1.131485e-002
2.267913e+003,1.153904e-002
2.269842e+003,1.159401e-002
2.271770e+003,1.181448e-002
2.273699e+003,1.207756e-002
2.275627e+003,1.223557e-002
2.277556e+003,1.242140e-002
2.279484e+003,1.281943e-002
2.281413e+003,1.297636e-002
2.283341e+003,1.327396e-002
2.285270e+003,1.334962e-002
2.287198e+003,1.339968e-002
2.289127e+003,1.354973e-002
2.291055e+003,1.368077e-002
2.292984e+003,1.386229e-002
2.294912e+003,1.417905e-002
2.296841e+003,1.448104e-002
2.298769e+003,1.465296e-002
2.300698e+003,1.456857e-002
2.302626e+003,1.449670e-002
2.304555e+003,1.441274e-002
2.306483e+003,1.434569e-002
2.308412e+003,1.430273e-002
2.310340e+003,1.429175e-002
2.312269e+003,1.431464e-002
2.314197e+003,1.441374e-002
2.316125e+003,1.469975e-002
2.318054e+003,1.508279e-002
2.319983e+003,1.522832e-002
2.321911e+003,1.535030e-002
2.323840e+003,1.543509e-002
2.325768e+003,1.587778e-002
2.327697e+003,1.592348e-002
2.329625e+003,1.589426e-002
2.331553e+003,1.591839e-002
2.333482e+003,1.590653e-002
2.335411e+003,1.599437e-002
2.337339e+003,1.617463e-002
2.339268e+003,1.618828e-002
2.341196e+003,1.575116e-002
2.343125e+003,1.585208e-002
2.345053e+003,1.581535e-002
2.346981e+003,1.562703e-002
2.348910e+003,1.553152e-002
2.350839e+003,1.548211e-002
2.352767e+003,1.534660e-002
2.354696e+003,1.520579e-002
2.356624e+003,1.555533e-002
2.358552e+003,1.542110e-002
2.360481e+003,1.511093e-002
2.362409e+003,1.489899e-002
2.364338e+003,1.513729e-002
2.366267e+003,1.483919e-002
2.368195e+003,1.511344e-002
2.370124e+003,1.533030e-002
2.372052e+003,1.573866e-002
2.373980e+003,1.585768e-002
2.375909e+003,1.571423e-002
2.377838e+003,1.564873e-002
2.379766e+003,1.581280e-002
2.381695e+003,1.592638e-002
2.383623e+003,1.589889e-002
2.385552e+003,1.584901e-002
2.387480e+003,1.579499e-002
2.389408e+003,1.568455e-002
2.391337e+003,1.558741e-002
2.393266e+003,1.551170e-002
2.395194e+003,1.555277e-002
2.397123e+003,1.542946e-002
2.399051e+003,1.530496e-002
2.400979e+003,1.528076e-002
2.402908e+003,1.530087e-002
2.404836e+003,1.532071e-002
2.406765e+003,1.536516e-002
2.408694e+003,1.532884e-002
2.410622e+003,1.528220e-002
2.412551e+003,1.533337e-002
2.414479e+003,1.533938e-002
2.416407e+003,1.541212e-002
2.418336e+003,1.543743e-002
2.420264e+003,1.535507e-002
2.422193e+003,1.537003e-002
2.424122e+003,1.542242e-002
2.426050e+003,1.540783e-002
2.427979e+003,1.526957e-002
2.429907e+003,1.512957e-002
2.431835e+003,1.508644e-002
2.433764e+003,1.510336e-002
2.435692e+003,1.510922e-002
2.437621e+003,1.508768e-002
2.439550e+003,1.509718e-002
2.441478e+003,1.504425e-002
2.443406e+003,1.498045e-002
2.445335e+003,1.495213e-002
2.447263e+003,1.506541e-002
2.449192e+003,1.513736e-002
2.451121e+003,1.517568e-002
2.453049e+003,1.514175e-002
2.454978e+003,1.517064e-002
2.456906e+003,1.516748e-002
2.458834e+003,1.522691e-002
2.460763e+003,1.538226e-002
2.462691e+003,1.538905e-002
2.464620e+003,1.522386e-002
2.466549e+003,1.524918e-002
2.468477e+003,1.526398e-002
2.470406e+003,1.526291e-002
2.472334e+003,1.524129e-002
2.474262e+003,1.520279e-002
2.476191e+003,1.524736e-002
2.478119e+003,1.533259e-002
2.480048e+003,1.538473e-002
2.481977e+003,1.529098e-002
2.483905e+003,1.527304e-002
2.485833e+003,1.530921e-002
2.487762e+003,1.528724e-002
2.489690e+003,1.527276e-002
2.491619e+003,1.523069e-002
2.493547e+003,1.525045e-002
2.495476e+003,1.528131e-002
2.497405e+003,1.535884e-002
2.499333e+003,1.540031e-002
2.501261e+003,1.537669e-002
2.503190e+003,1.544041e-002
2.505118e+003,1.553312e-002
2.507047e+003,1.560583e-002
2.508975e+003,1.564066e-002
2.510904e+003,1.554840e-002
2.512833e+003,1.558831e-002
2.514761e+003,1.576299e-002
2.516689e+003,1.580316e-002
2.518618e+003,1.569634e-002
2.520546e+003,1.573543e-002
2.522475e+003,1.575227e-002
2.524403e+003,1.556080e-002
2.526332e+003,1.551739e-002
2.528260e+003,1.562788e-002
2.530189e+003,1.586261e-002
2.532117e+003,1.599573e-002
2.534046e+003,1.584714e-002
2.535974e+003,1.570915e-002
2.537903e+003,1.571812e-002
2.539831e+003,1.587336e-002
2.541760e+003,1.594534e-002
2.543688e+003,1.589588e-002
2.545617e+003,1.598308e-002
2.547545e+003,1.599710e-002
2.549474e+003,1.589711e-002
2.551402e+003,1.582859e-002
2.553331e+003,1.587182e-002
2.555259e+003,1.587828e-002
2.557188e+003,1.594070e-002
2.559116e+003,1.613567e-002
2.561045e+003,1.615902e-002
2.562973e+003,1.611758e-002
2.564902e+003,1.613525e-002
2.566830e+003,1.613625e-002
2.568759e+003,1.616751e-002
2.570687e+003,1.625787e-002
2.572616e+003,1.626619e-002
2.574544e+003,1.628934e-002
2.576473e+003,1.632852e-002
2.578401e+003,1.636118e-002
2.580330e+003,1.641681e-002
2.582258e+003,1.643526e-002
2.584187e+003,1.644183e-002
2.586115e+003,1.651390e-002
2.588044e+003,1.654553e-002
2.589972e+003,1.655303e-002
2.591901e+003,1.671687e-002
2.593829e+003,1.679281e-002
2.595758e+003,1.686607e-002
2.597686e+003,1.680300e-002
2.599615e+003,1.676705e-002
2.601543e+003,1.678513e-002
2.603472e+003,1.689886e-002
2.605400e+003,1.698782e-002
2.607329e+003,1.711687e-002
2.609257e+003,1.718571e-002
2.611186e+003,1.716878e-002
2.613114e+003,1.715120e-002
2.615043e+003,1.730158e-002
2.616971e+003,1.747105e-002
2.618900e+003,1.747181e-002
2.620828e+003,1.751780e-002
2.622757e+003,1.754357e-002
2.624685e+003,1.754533e-002
2.626614e+003,1.765049e-002
2.628542e+003,1.778751e-002
2.630471e+003,1.787482e-002
2.632399e+003,1.793414e-002
2.634328e+003,1.802639e-002
2.636256e+003,1.805861e-002
2.638185e+003,1.813043e-002
2.640113e+003,1.823429e-002
2.642042e+003,1.834218e-002
2.643970e+003,1.839247e-002
2.645899e+003,1.849076e-002
2.647827e+003,1.857810e-002
2.649756e+003,1.865883e-002
2.651684e+003,1.872078e-002
2.653613e+003,1.873950e-002
2.655541e+003,1.882623e-002
2.657470e+003,1.892278e-002
2.659398e+003,1.898398e-002
2.661327e+003,1.903715e-002
2.663255e+003,1.902050e-002
2.665184e+003,1.907329e-002
2.667112e+003,1.911086e-002
2.669041e+003,1.909677e-002
2.670969e+003,1.911993e-002
2.672898e+003,1.918877e-002
2.674826e+003,1.914033e-002
2.676755e+003,1.913849e-002
2.678683e+003,1.917007e-002
2.680612e+003,1.920453e-002
2.682540e+003,1.923850e-002
2.684469e+003,1.926649e-002
2.686397e+003,1.925354e-002
2.688326e+003,1.925627e-002
2.690254e+003,1.926566e-002
2.692183e+003,1.926490e-002
2.694111e+003,1.933819e-002
2.696040e+003,1.937007e-002
2.697968e+003,1.934921e-002
2.699897e+003,1.933321e-002
2.701825e+003,1.934724e-002
2.703754e+003,1.936414e-002
2.705682e+003,1.940877e-002
2.707611e+003,1.941944e-002
2.709539e+003,1.942474e-002
2.711468e+003,1.941556e-002
2.713396e+003,1.939408e-002
2.715325e+003,1.942751e-002
2.717253e+003,1.944165e-002
2.719182e+003,1.949841e-002
2.721110e+003,1.954270e-002
2.723039e+003,1.956815e-002
2.724967e+003,1.960977e-002
2.726896e+003,1.961619e-002
2.728824e+003,1.961404e-002
2.730753e+003,1.958548e-002
2.732681e+003,1.959230e-002
2.734610e+003,1.960676e-002
2.736538e+003,1.961789e-002
2.738467e+003,1.964333e-002
2.740395e+003,1.970997e-002
2.742324e+003,1.981136e-002
2.744252e+003,1.978556e-002
2.746181e+003,1.973240e-002
2.748109e+003,1.976444e-002
2.750038e+003,1.981785e-002
2.751966e+003,1.983435e-002
2.753895e+003,1.985492e-002
2.755823e+003,1.990747e-002
2.757752e+003,1.991677e-002
2.759680e+003,1.991482e-002
2.761609e+003,1.994823e-002
2.763537e+003,1.997269e-002
2.765466e+003,2.003480e-002
2.767394e+003,2.009944e-002
2.769323e+003,2.009740e-002
2.771251e+003,2.009778e-002
2.773180e+003,2.021714e-002
2.775108e+003,2.027744e-002
2.777037e+003,2.028529e-002
2.778965e+003,2.034567e-002
2.780894e+003,2.039411e-002
2.782822e+003,2.044155e-002
2.784750e+003,2.049024e-002
2.786679e+003,2.054061e-002
2.788608e+003,2.055847e-002
2.790536e+003,2.057556e-002
2.792465e+003,2.064557e-002
2.794393e+003,2.069929e-002
2.796322e+003,2.076067e-002
2.798250e+003,2.078715e-002
2.800178e+003,2.086815e-002
2.802107e+003,2.096470e-002
2.804036e+003,2.099666e-002
2.805964e+003,2.104399e-002
2.807893e+003,2.114726e-002
2.809821e+003,2.126016e-002
2.811750e+003,2.132409e-002
2.813678e+003,2.141507e-002
2.815606e+003,2.146269e-002
2.817535e+003,2.151669e-002
2.819464e+003,2.165838e-002
2.821392e+003,2.177835e-002
2.823321e+003,2.188921e-002
2.825249e+003,2.203232e-002
2.827177e+003,2.215071e-002
2.829106e+003,2.228243e-002
2.831034e+003,2.238638e-002
2.832963e+003,2.258601e-002
2.834892e+003,2.281001e-002
2.836820e+003,2.298768e-002
2.838749e+003,2.319773e-002
2.840677e+003,2.346404e-002
2.842605e+003,2.381248e-002
2.844534e+003,2.424258e-002
2.846462e+003,2.470636e-002
2.848391e+003,2.512675e-002
2.850320e+003,2.540348e-002
2.852248e+003,2.549936e-002
2.854177e+003,2.550340e-002
2.856105e+003,2.547062e-002
2.858033e+003,2.539846e-002
2.859962e+003,2.536688e-002
2.861890e+003,2.537338e-002
2.863819e+003,2.534812e-002
2.865748e+003,2.533140e-002
2.867676e+003,2.530625e-002
2.869604e+003,2.533021e-002
2.871533e+003,2.541209e-002
2.873461e+003,2.545558e-002
2.875390e+003,2.545035e-002
2.877319e+003,2.545548e-002
2.879247e+003,2.549507e-002
2.881176e+003,2.552420e-002
2.883104e+003,2.556040e-002
2.885032e+003,2.563129e-002
2.886961e+003,2.570113e-002
2.888889e+003,2.574385e-002
2.890818e+003,2.578361e-002
2.892747e+003,2.583351e-002
2.894675e+003,2.584339e-002
2.896604e+003,2.588767e-002
2.898532e+003,2.592991e-002
2.900460e+003,2.593884e-002
2.902389e+003,2.600993e-002
2.904317e+003,2.608371e-002
2.906246e+003,2.603727e-002
2.908175e+003,2.600863e-002
2.910103e+003,2.616443e-002
2.912031e+003,2.636792e-002
2.913960e+003,2.658884e-002
2.915888e+003,2.673417e-002
2.917817e+003,2.677882e-002
2.919745e+003,2.666863e-002
2.921674e+003,2.653977e-002
2.923603e+003,2.637260e-002
2.925531e+003,2.611041e-002
2.927459e+003,2.592224e-002
2.929388e+003,2.573422e-002
2.931316e+003,2.546711e-002
2.933245e+003,2.513668e-002
2.935173e+003,2.485429e-002
2.937102e+003,2.462991e-002
2.939031e+003,2.439323e-002
2.940959e+003,2.403893e-002
2.942887e+003,2.364521e-002
2.944816e+003,2.337525e-002
2.946744e+003,2.310309e-002
2.948673e+003,2.281636e-002
2.950601e+003,2.259837e-002
2.952530e+003,2.238059e-002
2.954458e+003,2.218440e-002
2.956387e+003,2.202402e-002
2.958315e+003,2.187423e-002
2.960244e+003,2.174424e-002
2.962172e+003,2.155419e-002
2.964101e+003,2.135541e-002
2.966029e+003,2.116775e-002
2.967958e+003,2.100260e-002
2.969886e+003,2.089415e-002
2.971815e+003,2.076640e-002
2.973743e+003,2.061280e-002
2.975672e+003,2.054349e-002
2.977600e+003,2.045315e-002
2.979529e+003,2.038338e-002
2.981457e+003,2.025949e-002
2.983386e+003,2.011249e-002
2.985314e+003,1.998716e-002
2.987243e+003,1.994227e-002
2.989171e+003,1.995246e-002
2.991100e+003,1.990497e-002
2.993028e+003,1.987355e-002
2.994957e+003,1.985516e-002
2.996885e+003,1.980546e-002
2.998814e+003,1.970972e-002
3.000742e+003,1.967169e-002
3.002671e+003,1.975678e-002
3.004599e+003,1.981868e-002
3.006528e+003,1.978001e-002
3.008456e+003,1.976683e-002
3.010385e+003,1.981535e-002
3.012313e+003,1.988468e-002
3.014242e+003,1.993866e-002
3.016170e+003,1.993945e-002
3.018099e+003,1.988756e-002
3.020027e+003,1.992346e-002
3.021956e+003,1.997564e-002
3.023884e+003,2.012349e-002
3.025813e+003,2.018229e-002
3.027741e+003,2.012669e-002
3.029670e+003,2.012988e-002
3.031598e+003,2.025182e-002
3.033527e+003,2.045523e-002
3.035455e+003,2.047169e-002
3.037384e+003,2.045540e-002
3.039312e+003,2.049472e-002
3.041241e+003,2.057813e-002
3.043169e+003,2.064275e-002
3.045098e+003,2.068987e-002
3.047026e+003,2.076463e-002
3.048955e+003,2.085285e-002
3.050883e+003,2.093128e-002
3.052812e+003,2.092833e-002
3.054740e+003,2.095437e-002
3.056669e+003,2.102545e-002
3.058597e+003,2.112148e-002
3.060526e+003,2.116511e-002
3.062454e+003,2.120623e-002
3.064383e+003,2.134138e-002
3.066311e+003,2.141228e-002
3.068240e+003,2.146610e-002
3.070168e+003,2.159998e-002
3.072097e+003,2.165270e-002
3.074025e+003,2.166674e-002
3.075954e+003,2.166015e-002
3.077882e+003,2.168280e-002
3.079811e+003,2.179538e-002
3.081739e+003,2.187329e-002
3.083668e+003,2.191653e-002
3.085596e+003,2.201904e-002
3.087525e+003,2.212728e-002
3.089453e+003,2.214817e-002
3.091382e+003,2.220452e-002
3.093310e+003,2.221595e-002
3.095239e+003,2.222433e-002
3.097167e+003,2.232111e-002
3.099096e+003,2.242622e-002
3.101024e+003,2.248128e-002
3.102953e+003,2.254874e-002
3.104881e+003,2.261554e-002
3.106810e+003,2.264238e-002
3.108738e+003,2.273996e-002
3.110667e+003,2.282960e-002
3.112595e+003,2.289253e-002
3.114524e+003,2.297340e-002
3.116452e+003,2.302241e-002
3.118381e+003,2.311599e-002
3.120309e+003,2.316226e-002
3.122238e+003,2.320829e-002
3.124166e+003,2.322251e-002
3.126095e+003,2.329372e-002
3.128023e+003,2.346936e-002
3.129952e+003,2.357664e-002
3.131880e+003,2.363772e-002
3.133809e+003,2.372506e-002
3.135737e+003,2.375449e-002
3.137666e+003,2.378375e-002
3.139594e+003,2.394638e-002
3.141523e+003,2.401431e-002
3.143451e+003,2.410642e-002
3.145380e+003,2.417490e-002
3.147308e+003,2.432983e-002
3.149237e+003,2.448163e-002
3.151165e+003,2.456430e-002
3.153094e+003,2.462549e-002
3.155022e+003,2.472723e-002
3.156951e+003,2.481524e-002
3.158879e+003,2.493903e-002
3.160808e+003,2.500912e-002
3.162736e+003,2.509919e-002
3.164665e+003,2.523752e-002
3.166593e+003,2.529586e-002
3.168522e+003,2.541142e-002
3.170450e+003,2.558054e-002
3.172379e+003,2.570265e-002
3.174307e+003,2.575714e-002
3.176236e+003,2.577089e-002
3.178164e+003,2.579687e-002
3.180093e+003,2.589983e-002
3.182021e+003,2.609208e-002
3.183950e+003,2.623644e-002
3.185878e+003,2.631532e-002
3.187807e+003,2.639327e-002
3.189735e+003,2.650980e-002
3.191664e+003,2.663287e-002
3.193592e+003,2.676476e-002
3.195521e+003,2.682738e-002
3.197449e+003,2.694529e-002
3.199378e+003,2.713490e-002
3.201306e+003,2.727975e-002
3.203235e+003,2.741860e-002
3.205163e+003,2.748665e-002
3.207092e+003,2.750737e-002
3.209020e+003,2.768056e-002
3.210948e+003,2.794479e-002
3.212877e+003,2.807269e-002
3.214806e+003,2.816227e-002
3.216734e+003,2.821368e-002
3.218663e+003,2.831637e-002
3.220591e+003,2.848432e-002
3.222520e+003,2.870756e-002
3.224448e+003,2.882952e-002
3.226376e+003,2.884666e-002
3.228305e+003,2.899625e-002
3.230234e+003,2.912680e-002
3.232162e+003,2.925817e-002
3.234091e+003,2.937905e-002
3.236019e+003,2.946922e-002
3.237948e+003,2.955128e-002
3.239876e+003,2.976218e-002
3.241804e+003,2.996115e-002
3.243733e+003,3.009451e-002
3.245662e+003,3.025630e-002
3.247590e+003,3.033076e-002
3.249519e+003,3.045955e-002
3.251447e+003,3.061116e-002
3.253375e+003,3.063118e-002
3.255304e+003,3.067118e-002
3.257232e+003,3.079053e-002
3.259161e+003,3.093766e-002
3.261090e+003,3.104951e-002
3.263018e+003,3.123942e-002
3.264947e+003,3.136744e-002
3.266875e+003,3.140114e-002
3.268803e+003,3.156879e-002
3.270732e+003,3.169469e-002
3.272660e+003,3.167413e-002
3.274589e+003,3.171879e-002
3.276518e+003,3.180317e-002
3.278446e+003,3.177358e-002
3.280375e+003,3.178174e-002
3.282303e+003,3.192173e-002
3.284231e+003,3.200389e-002
3.286160e+003,3.190710e-002
3.288088e+003,3.193428e-002
3.290017e+003,3.197012e-002
3.291946e+003,3.198617e-002
3.293874e+003,3.195864e-002
3.295802e+003,3.196730e-002
3.297731e+003,3.200169e-002
3.299659e+003,3.200258e-002
3.301588e+003,3.198881e-002
3.303516e+003,3.194537e-002
3.305445e+003,3.188546e-002
3.307374e+003,3.183757e-002
3.309302e+003,3.182791e-002
3.311230e+003,3.194487e-002
3.313159e+003,3.207270e-002
3.315087e+003,3.211102e-002
3.317016e+003,3.209975e-002
3.318944e+003,3.210421e-002
3.320873e+003,3.216493e-002
3.322802e+003,3.212361e-002
3.324730e+003,3.212561e-002
3.326658e+003,3.208187e-002
3.328587e+003,3.200104e-002
3.330515e+003,3.208127e-002
3.332444e+003,3.213649e-002
3.334372e+003,3.199936e-002
3.336301e+003,3.193970e-002
3.338229e+003,3.194583e-002
3.340158e+003,3.188328e-002
3.342086e+003,3.177347e-002
3.344015e+003,3.161404e-002
3.345943e+003,3.155785e-002
3.347872e+003,3.149678e-002
3.349800e+003,3.144352e-002
3.351729e+003,3.138129e-002
3.353657e+003,3.122578e-002
3.355586e+003,3.106474e-002
3.357514e+003,3.097687e-002
3.359443e+003,3.092909e-002
3.361371e+003,3.085068e-002
3.363300e+003,3.069955e-002
3.365229e+003,3.051482e-002
3.367157e+003,3.039782e-002
3.369085e+003,3.029950e-002
3.371014e+003,3.023079e-002
3.372942e+003,3.010005e-002
3.374871e+003,3.001647e-002
3.376799e+003,2.994401e-002
3.378728e+003,2.987422e-002
3.380656e+003,2.976580e-002
3.382585e+003,2.969448e-002
3.384513e+003,2.955649e-002
3.386442e+003,2.942223e-002
3.388370e+003,2.943861e-002
3.390299e+003,2.933098e-002
3.392227e+003,2.915122e-002
3.394156e+003,2.902580e-002
3.396084e+003,2.896225e-002
3.398013e+003,2.886419e-002
3.399941e+003,2.873018e-002
3.401870e+003,2.862119e-002
3.403798e+003,2.848280e-002
3.405727e+003,2.831640e-002
3.407655e+003,2.809210e-002
3.409584e+003,2.786031e-002
3.411512e+003,2.772547e-002
3.413441e+003,2.762007e-002
3.415369e+003,2.743248e-002
3.417298e+003,2.726192e-002
3.419226e+003,2.708535e-002
3.421155e+003,2.686364e-002
3.423083e+003,2.668619e-002
3.425012e+003,2.659941e-002
3.426940e+003,2.644933e-002
3.428869e+003,2.616305e-002
3.430797e+003,2.595590e-002
3.432726e+003,2.581081e-002
3.434654e+003,2.550878e-002
3.436583e+003,2.526055e-002
3.438511e+003,2.505671e-002
3.440440e+003,2.489067e-002
3.442368e+003,2.473066e-002
3.444297e+003,2.448335e-002
3.446225e+003,2.428292e-002
3.448154e+003,2.405026e-002
3.450082e+003,2.385803e-002
3.452011e+003,2.367089e-002
3.453939e+003,2.348113e-002
3.455868e+003,2.329176e-002
3.457796e+003,2.307799e-002
3.459725e+003,2.286345e-002
3.461653e+003,2.266930e-002
3.463582e+003,2.257656e-002
3.465510e+003,2.236797e-002
3.467439e+003,2.216494e-002
3.469367e+003,2.192247e-002
3.471296e+003,2.165395e-002
3.473224e+003,2.149850e-002
3.475153e+003,2.142120e-002
3.477081e+003,2.133653e-002
3.479010e+003,2.108159e-002
3.480938e+003,2.081000e-002
3.482867e+003,2.068383e-002
3.484795e+003,2.049689e-002
3.486724e+003,2.025174e-002
3.488652e+003,2.012239e-002
3.490581e+003,2.002791e-002
3.492509e+003,1.981959e-002
3.494438e+003,1.963676e-002
3.496366e+003,1.948764e-002
3.498295e+003,1.939705e-002
3.500223e+003,1.914691e-002
3.502152e+003,1.891007e-002
3.504080e+003,1.875448e-002
3.506009e+003,1.869980e-002
3.507937e+003,1.858852e-002
3.509866e+003,1.831525e-002
3.511794e+003,1.818545e-002
3.513723e+003,1.810183e-002
3.515651e+003,1.790207e-002
3.517580e+003,1.766297e-002
3.519508e+003,1.751846e-002
3.521437e+003,1.741563e-002
3.523365e+003,1.722294e-002
3.525294e+003,1.710107e-002
3.527222e+003,1.691719e-002
3.529151e+003,1.686438e-002
3.531079e+003,1.665553e-002
3.533008e+003,1.643069e-002
3.534936e+003,1.637338e-002
3.536865e+003,1.629152e-002
3.538793e+003,1.613404e-002
3.540722e+003,1.597498e-002
3.542650e+003,1.586815e-002
3.544579e+003,1.575142e-002
3.546507e+003,1.551103e-002
3.548436e+003,1.531297e-002
3.550364e+003,1.522869e-002
3.552293e+003,1.514454e-002
3.554221e+003,1.506252e-002
3.556150e+003,1.483850e-002
3.558078e+003,1.465832e-002
3.560007e+003,1.453562e-002
3.561935e+003,1.440116e-002
3.563864e+003,1.432718e-002
3.565792e+003,1.419840e-002
3.567721e+003,1.407368e-002
3.569649e+003,1.388340e-002
3.571578e+003,1.368366e-002
3.573506e+003,1.347359e-002
3.575435e+003,1.339081e-002
3.577363e+003,1.333748e-002
3.579292e+003,1.322810e-002
3.581220e+003,1.301111e-002
3.583149e+003,1.280146e-002
3.585077e+003,1.262613e-002
3.587006e+003,1.240456e-002
3.588934e+003,1.208923e-002
3.590863e+003,1.197702e-002
3.592791e+003,1.185888e-002
3.594720e+003,1.163775e-002
3.596648e+003,1.145897e-002
3.598577e+003,1.146948e-002
3.600505e+003,1.140923e-002
3.602434e+003,1.133646e-002
3.604362e+003,1.136861e-002
3.606291e+003,1.149266e-002
3.608219e+003,1.162661e-002
3.610148e+003,1.175720e-002
3.612076e+003,1.195012e-002
3.614005e+003,1.181858e-002
3.615933e+003,1.141340e-002
3.617862e+003,1.102558e-002
3.619790e+003,1.076230e-002
3.621719e+003,1.060420e-002
3.623647e+003,1.039109e-002
3.625576e+003,1.032829e-002
3.627504e+003,1.040120e-002
3.629433e+003,1.035058e-002
3.631361e+003,1.055720e-002
3.633290e+003,1.074229e-002
3.635218e+003,1.079582e-002
3.637146e+003,1.099502e-002
3.639075e+003,1.118660e-002
3.641004e+003,1.113674e-002
3.642932e+003,1.114368e-002
3.644861e+003,1.125111e-002
3.646789e+003,1.126293e-002
3.648718e+003,1.119229e-002
3.650646e+003,1.113720e-002
3.652574e+003,1.112210e-002
3.654503e+003,1.115790e-002
3.656432e+003,1.116242e-002
3.658360e+003,1.120160e-002
3.660289e+003,1.125733e-002
3.662217e+003,1.121653e-002
3.664146e+003,1.118972e-002
3.666074e+003,1.110863e-002
3.668002e+003,1.113192e-002
3.669931e+003,1.120294e-002
3.671860e+003,1.111859e-002
3.673788e+003,1.108544e-002
3.675717e+003,1.102473e-002
3.677645e+003,1.104842e-002
3.679573e+003,1.094856e-002
3.681502e+003,1.080670e-002
3.683430e+003,1.069835e-002
3.685359e+003,1.059842e-002
3.687288e+003,1.045377e-002
3.689216e+003,1.043239e-002
3.691145e+003,1.032761e-002
3.693073e+003,1.020106e-002
3.695001e+003,1.005152e-002
3.696930e+003,9.831196e-003
3.698858e+003,9.721221e-003
3.700787e+003,9.767397e-003
3.702716e+003,9.847397e-003
3.704644e+003,9.823292e-003
3.706573e+003,9.869647e-003
3.708501e+003,1.009977e-002
3.710429e+003,1.044661e-002
3.712358e+003,1.076396e-002
3.714286e+003,1.101507e-002
3.716215e+003,1.078157e-002
3.718144e+003,1.034307e-002
3.720072e+003,1.008860e-002
3.722000e+003,9.722637e-003
3.723929e+003,9.580228e-003
3.725857e+003,9.491122e-003
3.727786e+003,9.472383e-003
3.729714e+003,9.603488e-003
3.731643e+003,9.761999e-003
3.733572e+003,1.005691e-002
3.735500e+003,1.031939e-002
3.737428e+003,1.048560e-002
3.739357e+003,1.080413e-002
3.741285e+003,1.098919e-002
3.743214e+003,1.113063e-002
3.745142e+003,1.129066e-002
3.747071e+003,1.150191e-002
3.749000e+003,1.160620e-002
3.750928e+003,1.159301e-002
3.752856e+003,1.162660e-002
3.754785e+003,1.171367e-002
3.756713e+003,1.178888e-002
3.758642e+003,1.176455e-002
3.760570e+003,1.168633e-002
3.762499e+003,1.179183e-002
3.764427e+003,1.193366e-002
3.766356e+003,1.196686e-002
3.768284e+003,1.192889e-002
3.770213e+003,1.184692e-002
3.772141e+003,1.193058e-002
3.774070e+003,1.197473e-002
3.775998e+003,1.186847e-002
3.777927e+003,1.184045e-002
3.779855e+003,1.188167e-002
3.781784e+003,1.193129e-002
3.783712e+003,1.194641e-002
3.785641e+003,1.198168e-002
3.787569e+003,1.198946e-002
3.789498e+003,1.192835e-002
3.791426e+003,1.194874e-002
3.793355e+003,1.206782e-002
3.795283e+003,1.208762e-002
3.797212e+003,1.207143e-002
3.799140e+003,1.205221e-002
3.801069e+003,1.200010e-002
3.802997e+003,1.202283e-002
3.804926e+003,1.208816e-002
3.806854e+003,1.208408e-002
3.808783e+003,1.208314e-002
3.810711e+003,1.209874e-002
3.812640e+003,1.203758e-002
3.814568e+003,1.207906e-002
3.816497e+003,1.214839e-002
3.818425e+003,1.220820e-002
3.820354e+003,1.216695e-002
3.822282e+003,1.203590e-002
3.824211e+003,1.207788e-002
3.826139e+003,1.221545e-002
3.828068e+003,1.223649e-002
3.829996e+003,1.218914e-002
3.831925e+003,1.219285e-002
3.833853e+003,1.217224e-002
3.835782e+003,1.213507e-002
3.837710e+003,1.212379e-002
3.839639e+003,1.220981e-002
3.841567e+003,1.226312e-002
3.843496e+003,1.225420e-002
3.845424e+003,1.220134e-002
3.847353e+003,1.214546e-002
3.849281e+003,1.216988e-002
3.851210e+003,1.224255e-002
3.853138e+003,1.225784e-002
3.855067e+003,1.215497e-002
3.856995e+003,1.213349e-002
3.858924e+003,1.217801e-002
3.860852e+003,1.226427e-002
3.862781e+003,1.228267e-002
3.864709e+003,1.226969e-002
3.866638e+003,1.222573e-002
3.868566e+003,1.228406e-002
3.870495e+003,1.219942e-002
3.872423e+003,1.219626e-002
3.874352e+003,1.223100e-002
3.876280e+003,1.226429e-002
3.878209e+003,1.230187e-002
3.880137e+003,1.233659e-002
3.882066e+003,1.233628e-002
3.883994e+003,1.240370e-002
3.885923e+003,1.242663e-002
3.887851e+003,1.242922e-002
3.889780e+003,1.235751e-002
3.891708e+003,1.231674e-002
3.893637e+003,1.224260e-002
3.895565e+003,1.223731e-002
3.897494e+003,1.236145e-002
3.899422e+003,1.246397e-002
3.901351e+003,1.243497e-002
3.903279e+003,1.244686e-002
3.905208e+003,1.245733e-002
3.907136e+003,1.244249e-002
3.909065e+003,1.238842e-002
3.910993e+003,1.230264e-002
3.912922e+003,1.234861e-002
3.914850e+003,1.238893e-002
3.916779e+003,1.237548e-002
3.918707e+003,1.237784e-002
3.920636e+003,1.232889e-002
3.922564e+003,1.243055e-002
3.924493e+003,1.250381e-002
3.926421e+003,1.242277e-002
3.928350e+003,1.239202e-002
3.930278e+003,1.242773e-002
3.932207e+003,1.242757e-002
3.934135e+003,1.241883e-002
3.936064e+003,1.239821e-002
3.937992e+003,1.243589e-002
3.939921e+003,1.238246e-002
3.941849e+003,1.242851e-002
3.943778e+003,1.250249e-002
3.945706e+003,1.255136e-002
3.947635e+003,1.250923e-002
3.949563e+003,1.245173e-002
3.951492e+003,1.239150e-002
3.953420e+003,1.234494e-002
3.955349e+003,1.237851e-002
3.957277e+003,1.252151e-002
3.959206e+003,1.255829e-002
3.961134e+003,1.255078e-002
3.963063e+003,1.248212e-002
3.964991e+003,1.245905e-002
3.966920e+003,1.251284e-002
3.968848e+003,1.254171e-002
3.970777e+003,1.255342e-002
3.972705e+003,1.250653e-002
3.974634e+003,1.249692e-002
3.976562e+003,1.255737e-002
3.978491e+003,1.253825e-002
3.980419e+003,1.244897e-002
3.982348e+003,1.245205e-002
3.984276e+003,1.256926e-002
3.986205e+003,1.255268e-002
3.988133e+003,1.247100e-002
3.990062e+003,1.246439e-002
3.991990e+003,1.252145e-002
3.993919e+003,1.258422e-002
3.995847e+003,1.260449e-002
3.997776e+003,1.262664e-002
3.999704e+003,1.262687e-002
4.001633e+003,0.000000e+000
