3.991989e+002,2.213861e-002
4.011274e+002,2.062330e-002
4.030559e+002,2.062330e-002
4.049844e+002,2.349758e-002
4.069129e+002,2.573724e-002
4.088414e+002,2.434718e-002
4.107699e+002,2.244843e-002
4.126984e+002,2.356460e-002
4.146269e+002,2.524954e-002
4.165554e+002,2.696066e-002
4.184839e+002,2.660800e-002
4.204124e+002,2.693361e-002
4.223409e+002,2.818613e-002
4.242694e+002,2.946272e-002
4.261979e+002,3.057293e-002
4.281264e+002,3.113766e-002
4.300549e+002,3.191684e-002
4.319834e+002,3.226604e-002
4.339119e+002,3.060760e-002
4.358404e+002,2.986603e-002
4.377689e+002,3.167678e-002
4.396974e+002,3.287919e-002
4.416259e+002,3.266475e-002
4.435544e+002,3.230864e-002
4.454829e+002,3.230865e-002
4.474114e+002,3.317681e-002
4.493399e+002,3.262603e-002
4.512684e+002,3.157734e-002
4.531969e+002,3.139308e-002
4.551254e+002,3.192718e-002
4.570539e+002,3.262251e-002
4.589824e+002,3.294865e-002
4.609109e+002,3.198770e-002
4.628394e+002,3.155763e-002
4.647679e+002,3.176706e-002
4.666964e+002,3.204059e-002
4.686249e+002,3.173363e-002
4.705533e+002,3.130982e-002
4.724819e+002,3.140045e-002
4.744103e+002,3.100944e-002
4.763389e+002,3.020604e-002
4.782673e+002,3.080986e-002
4.801959e+002,3.089640e-002
4.821243e+002,3.018621e-002
4.840529e+002,2.997736e-002
4.859813e+002,2.978796e-002
4.879099e+002,2.987163e-002
4.898383e+002,3.003830e-002
4.917668e+002,2.958591e-002
4.936953e+002,2.930663e-002
4.956238e+002,2.912206e-002
4.975523e+002,2.909313e-002
4.994808e+002,2.893602e-002
5.014093e+002,2.878147e-002
5.033378e+002,2.874264e-002
5.052663e+002,2.936724e-002
5.071948e+002,2.932717e-002
5.091233e+002,2.935047e-002
5.110518e+002,2.923472e-002
5.129803e+002,2.958483e-002
5.149088e+002,2.956699e-002
5.168373e+002,2.968552e-002
5.187658e+002,2.960015e-002
5.206943e+002,2.993000e-002
5.226228e+002,2.984426e-002
5.245513e+002,3.009355e-002
5.264798e+002,2.981888e-002
5.284083e+002,2.973183e-002
5.303368e+002,2.993060e-002
5.322653e+002,3.022788e-002
5.341938e+002,2.986461e-002
5.361223e+002,2.969926e-002
5.380508e+002,2.938697e-002
5.399792e+002,2.883744e-002
5.419078e+002,2.870991e-002
5.438363e+002,2.920446e-002
5.457648e+002,2.992332e-002
5.476932e+002,2.988185e-002
5.496218e+002,2.995659e-002
5.515503e+002,3.000576e-002
5.534788e+002,3.005459e-002
5.554072e+002,3.019536e-002
5.573358e+002,3.047013e-002
5.592643e+002,3.089868e-002
5.611927e+002,3.078144e-002
5.631212e+002,3.043955e-002
5.650497e+002,3.003472e-002
5.669783e+002,2.992883e-002
5.689067e+002,2.973309e-002
5.708352e+002,2.950537e-002
5.727637e+002,2.922054e-002
5.746923e+002,2.919974e-002
5.766207e+002,2.938685e-002
5.785492e+002,2.956063e-002
5.804777e+002,2.952833e-002
5.824063e+002,2.949674e-002
5.843347e+002,2.934750e-002
5.862632e+002,2.934977e-002
5.881917e+002,2.927640e-002
5.901202e+002,2.896916e-002
5.920487e+002,2.895307e-002
5.939772e+002,2.888959e-002
5.959057e+002,2.880908e-002
5.978342e+002,2.870858e-002
5.997627e+002,2.890606e-002
6.016912e+002,2.875389e-002
6.036197e+002,2.846707e-002
6.055482e+002,2.832933e-002
6.074767e+002,2.835530e-002
6.094052e+002,2.840416e-002
6.113337e+002,2.839481e-002
6.132622e+002,2.828217e-002
6.151907e+002,2.801009e-002
6.171192e+002,2.786224e-002
6.190477e+002,2.722229e-002
6.209762e+002,2.681823e-002
6.229047e+002,2.663591e-002
6.248332e+002,2.632324e-002
6.267617e+002,2.579057e-002
6.286902e+002,2.566571e-002
6.306187e+002,2.549410e-002
6.325472e+002,2.531335e-002
6.344756e+002,2.523715e-002
6.364042e+002,2.494070e-002
6.383326e+002,2.483220e-002
6.402612e+002,2.468273e-002
6.421896e+002,2.450121e-002
6.441182e+002,2.434061e-002
6.460466e+002,2.427168e-002
6.479752e+002,2.436399e-002
6.499036e+002,2.443387e-002
6.518322e+002,2.424139e-002
6.537606e+002,2.419023e-002
6.556891e+002,2.424906e-002
6.576177e+002,2.411818e-002
6.595461e+002,2.413314e-002
6.614746e+002,2.430402e-002
6.634031e+002,2.432049e-002
6.653317e+002,2.441706e-002
6.672601e+002,2.420916e-002
6.691886e+002,2.393412e-002
6.711171e+002,2.380385e-002
6.730457e+002,2.336606e-002
6.749741e+002,2.300955e-002
6.769026e+002,2.260198e-002
6.788311e+002,2.213078e-002
6.807596e+002,2.163241e-002
6.826881e+002,2.129393e-002
6.846166e+002,2.094831e-002
6.865451e+002,2.084311e-002
6.884736e+002,2.072260e-002
6.904021e+002,2.073018e-002
6.923306e+002,2.049188e-002
6.942591e+002,2.043298e-002
6.961876e+002,2.041220e-002
6.981161e+002,2.035790e-002
7.000446e+002,2.030916e-002
7.019731e+002,2.028086e-002
7.039016e+002,2.007542e-002
7.058301e+002,1.994201e-002
7.077585e+002,1.987300e-002
7.096871e+002,1.978922e-002
7.116156e+002,1.973008e-002
7.135441e+002,1.957231e-002
7.154725e+002,1.937144e-002
7.174011e+002,1.936587e-002
7.193296e+002,1.938384e-002
7.212581e+002,1.913271e-002
7.231865e+002,1.873795e-002
7.251151e+002,1.860448e-002
7.270436e+002,1.852338e-002
7.289720e+002,1.833875e-002
7.309005e+002,1.817690e-002
7.328290e+002,1.805759e-002
7.347576e+002,1.791983e-002
7.366860e+002,1.784215e-002
7.386145e+002,1.760860e-002
7.405430e+002,1.741050e-002
7.424716e+002,1.739806e-002
7.444000e+002,1.729304e-002
7.463285e+002,1.712674e-002
7.482570e+002,1.697364e-002
7.501855e+002,1.675188e-002
7.521140e+002,1.667881e-002
7.540425e+002,1.655010e-002
7.559710e+002,1.631257e-002
7.578995e+002,1.634135e-002
7.598280e+002,1.636641e-002
7.617565e+002,1.623974e-002
7.636850e+002,1.620810e-002
7.656135e+002,1.629216e-002
7.675420e+002,1.617907e-002
7.694705e+002,1.595544e-002
7.713990e+002,1.603795e-002
7.733275e+002,1.612535e-002
7.752560e+002,1.618034e-002
7.771844e+002,1.619881e-002
7.791130e+002,1.618522e-002
7.810415e+002,1.615988e-002
7.829700e+002,1.606219e-002
7.848984e+002,1.599501e-002
7.868270e+002,1.592114e-002
7.887555e+002,1.590230e-002
7.906840e+002,1.598971e-002
7.926124e+002,1.599164e-002
7.945410e+002,1.592358e-002
7.964695e+002,1.572468e-002
7.983979e+002,1.570798e-002
8.003264e+002,1.588027e-002
8.022549e+002,1.579618e-002
8.041835e+002,1.572918e-002
8.061119e+002,1.573310e-002
8.080404e+002,1.564203e-002
8.099689e+002,1.561012e-002
8.118975e+002,1.572777e-002
8.138259e+002,1.564182e-002
8.157545e+002,1.554157e-002
8.176830e+002,1.553487e-002
8.196115e+002,1.556001e-002
8.215399e+002,1.548532e-002
8.234684e+002,1.538689e-002
8.253970e+002,1.538174e-002
8.273254e+002,1.531254e-002
8.292539e+002,1.523779e-002
8.311824e+002,1.528117e-002
8.331110e+002,1.539108e-002
8.350394e+002,1.544501e-002
8.369679e+002,1.537076e-002
8.388964e+002,1.535826e-002
8.408250e+002,1.527383e-002
8.427534e+002,1.521974e-002
8.446819e+002,1.520897e-002
8.466104e+002,1.526305e-002
8.485389e+002,1.532376e-002
8.504674e+002,1.538538e-002
8.523959e+002,1.539067e-002
8.543244e+002,1.537645e-002
8.562529e+002,1.543461e-002
8.581814e+002,1.550939e-002
8.601099e+002,1.557310e-002
8.620384e+002,1.554655e-002
8.639669e+002,1.552333e-002
8.658954e+002,1.560050e-002
8.678239e+002,1.575254e-002
8.697524e+002,1.590268e-002
8.716809e+002,1.595933e-002
8.736094e+002,1.605933e-002
8.755378e+002,1.622165e-002
8.774664e+002,1.639321e-002
8.793949e+002,1.660140e-002
8.813234e+002,1.686510e-002
8.832518e+002,1.711229e-002
8.851804e+002,1.738876e-002
8.871089e+002,1.765885e-002
8.890374e+002,1.801709e-002
8.909658e+002,1.837778e-002
8.928943e+002,1.871559e-002
8.948229e+002,1.894005e-002
8.967513e+002,1.903486e-002
8.986798e+002,1.902943e-002
9.006083e+002,1.879374e-002
9.025369e+002,1.857738e-002
9.044653e+002,1.832134e-002
9.063938e+002,1.805291e-002
9.083223e+002,1.780167e-002
9.102509e+002,1.775962e-002
9.121793e+002,1.781354e-002
9.141078e+002,1.773239e-002
9.160364e+002,1.778168e-002
9.179648e+002,1.796612e-002
9.198933e+002,1.807284e-002
9.218218e+002,1.812525e-002
9.237504e+002,1.829369e-002
9.256788e+002,1.848232e-002
9.276073e+002,1.866706e-002
9.295358e+002,1.894777e-002
9.314644e+002,1.919019e-002
9.333928e+002,1.936168e-002
9.353213e+002,1.953754e-002
9.372498e+002,1.975761e-002
9.391783e+002,1.999396e-002
9.411068e+002,2.033723e-002
9.430353e+002,2.076115e-002
9.449637e+002,2.116994e-002
9.468923e+002,2.159291e-002
9.488208e+002,2.206665e-002
9.507493e+002,2.255641e-002
9.526777e+002,2.304264e-002
9.546063e+002,2.359700e-002
9.565348e+002,2.410975e-002
9.584633e+002,2.461104e-002
9.603917e+002,2.524241e-002
9.623203e+002,2.584926e-002
9.642488e+002,2.638320e-002
9.661772e+002,2.685403e-002
9.681057e+002,2.747183e-002
9.700343e+002,2.808849e-002
9.719628e+002,2.868005e-002
9.738912e+002,2.928748e-002
9.758197e+002,2.999744e-002
9.777483e+002,3.074614e-002
9.796768e+002,3.158471e-002
9.816052e+002,3.263561e-002
9.835337e+002,3.361085e-002
9.854623e+002,3.449706e-002
9.873907e+002,3.521929e-002
9.893192e+002,3.581079e-002
9.912477e+002,3.616283e-002
9.931763e+002,3.630301e-002
9.951047e+002,3.634660e-002
9.970332e+002,3.650209e-002
9.989617e+002,3.684448e-002
1.000890e+003,3.738884e-002
1.002819e+003,3.796873e-002
1.004747e+003,3.847408e-002
1.006676e+003,3.890606e-002
1.008604e+003,3.931471e-002
1.010533e+003,3.980925e-002
1.012461e+003,4.029738e-002
1.014390e+003,4.085699e-002
1.016318e+003,4.150716e-002
1.018247e+003,4.219320e-002
1.020175e+003,4.291617e-002
1.022104e+003,4.365218e-002
1.024032e+003,4.434867e-002
1.025961e+003,4.502603e-002
1.027889e+003,4.566870e-002
1.029818e+003,4.622597e-002
1.031746e+003,4.671889e-002
1.033675e+003,4.691161e-002
1.035603e+003,4.679206e-002
1.037532e+003,4.638701e-002
1.039460e+003,4.583083e-002
1.041389e+003,4.528217e-002
1.043317e+003,4.482635e-002
1.045246e+003,4.445470e-002
1.047174e+003,4.421215e-002
1.049103e+003,4.409360e-002
1.051031e+003,4.397783e-002
1.052960e+003,4.371326e-002
1.054888e+003,4.332601e-002
1.056817e+003,4.275238e-002
1.058745e+003,4.211354e-002
1.060674e+003,4.137863e-002
1.062602e+003,4.053135e-002
1.064531e+003,3.965316e-002
1.066459e+003,3.871063e-002
1.068388e+003,3.778528e-002
1.070316e+003,3.693885e-002
1.072245e+003,3.622388e-002
1.074173e+003,3.558930e-002
1.076102e+003,3.490689e-002
1.078030e+003,3.417454e-002
1.079959e+003,3.345215e-002
1.081887e+003,3.274160e-002
1.083816e+003,3.207114e-002
1.085744e+003,3.157794e-002
1.087673e+003,3.123582e-002
1.089601e+003,3.095478e-002
1.091530e+003,3.069063e-002
1.093458e+003,3.042426e-002
1.095387e+003,3.024806e-002
1.097315e+003,3.016455e-002
1.099244e+003,3.007736e-002
1.101172e+003,3.003976e-002
1.103101e+003,3.000134e-002
1.105029e+003,2.989814e-002
1.106958e+003,2.958416e-002
1.108886e+003,2.900065e-002
1.110815e+003,2.830700e-002
1.112743e+003,2.757996e-002
1.114672e+003,2.676264e-002
1.116600e+003,2.591352e-002
1.118529e+003,2.515539e-002
1.120457e+003,2.455806e-002
1.122386e+003,2.400542e-002
1.124314e+003,2.337718e-002
1.126243e+003,2.270044e-002
1.128171e+003,2.206376e-002
1.130100e+003,2.144507e-002
1.132028e+003,2.084736e-002
1.133957e+003,2.029834e-002
1.135885e+003,1.984934e-002
1.137814e+003,1.955386e-002
1.139742e+003,1.936847e-002
1.141671e+003,1.931665e-002
1.143599e+003,1.939924e-002
1.145528e+003,1.955061e-002
1.147456e+003,1.980540e-002
1.149385e+003,2.011027e-002
1.151313e+003,2.035803e-002
1.153242e+003,2.061972e-002
1.155170e+003,2.090295e-002
1.157099e+003,2.113616e-002
1.159027e+003,2.125689e-002
1.160956e+003,2.126889e-002
1.162884e+003,2.113929e-002
1.164813e+003,2.072199e-002
1.166741e+003,2.013210e-002
1.168670e+003,1.942640e-002
1.170598e+003,1.858060e-002
1.172526e+003,1.778379e-002
1.174455e+003,1.705808e-002
1.176384e+003,1.640047e-002
1.178312e+003,1.581285e-002
1.180240e+003,1.529387e-002
1.182169e+003,1.487884e-002
1.184098e+003,1.460524e-002
1.186026e+003,1.442056e-002
1.187954e+003,1.427139e-002
1.189883e+003,1.424375e-002
1.191812e+003,1.430645e-002
1.193740e+003,1.442643e-002
1.195668e+003,1.454590e-002
1.197597e+003,1.467313e-002
1.199526e+003,1.482876e-002
1.201454e+003,1.488874e-002
1.203382e+003,1.488474e-002
1.205311e+003,1.480178e-002
1.207240e+003,1.469775e-002
1.209168e+003,1.457850e-002
1.211096e+003,1.451885e-002
1.213025e+003,1.451061e-002
1.214953e+003,1.451797e-002
1.216882e+003,1.458974e-002
1.218810e+003,1.468934e-002
1.220739e+003,1.483321e-002
1.222667e+003,1.503530e-002
1.224596e+003,1.520201e-002
1.226524e+003,1.539823e-002
1.228453e+003,1.553943e-002
1.230381e+003,1.566290e-002
1.232310e+003,1.577328e-002
1.234238e+003,1.585503e-002
1.236167e+003,1.589846e-002
1.238095e+003,1.593491e-002
1.240024e+003,1.594556e-002
1.241952e+003,1.593005e-002
1.243881e+003,1.594633e-002
1.245809e+003,1.590645e-002
1.247738e+003,1.578332e-002
1.249666e+003,1.564539e-002
1.251595e+003,1.553752e-002
1.253523e+003,1.542105e-002
1.255452e+003,1.524675e-002
1.257380e+003,1.511441e-002
1.259309e+003,1.495266e-002
1.261237e+003,1.476788e-002
1.263166e+003,1.461029e-002
1.265094e+003,1.446182e-002
1.267023e+003,1.428945e-002
1.268951e+003,1.409179e-002
1.270880e+003,1.394146e-002
1.272808e+003,1.379412e-002
1.274737e+003,1.366998e-002
1.276665e+003,1.358793e-002
1.278594e+003,1.353085e-002
1.280522e+003,1.347614e-002
1.282451e+003,1.336476e-002
1.284379e+003,1.323896e-002
1.286308e+003,1.320919e-002
1.288236e+003,1.315412e-002
1.290165e+003,1.309980e-002
1.292093e+003,1.314791e-002
1.294022e+003,1.322621e-002
1.295950e+003,1.332913e-002
1.297879e+003,1.343943e-002
1.299807e+003,1.355786e-002
1.301736e+003,1.372876e-002
1.303664e+003,1.388672e-002
1.305593e+003,1.413155e-002
1.307521e+003,1.437744e-002
1.309450e+003,1.458059e-002
1.311378e+003,1.475368e-002
1.313307e+003,1.488150e-002
1.315235e+003,1.497767e-002
1.317164e+003,1.493619e-002
1.319092e+003,1.480775e-002
1.321021e+003,1.470566e-002
1.322949e+003,1.461353e-002
1.324878e+003,1.448080e-002
1.326806e+003,1.437248e-002
1.328735e+003,1.432877e-002
1.330663e+003,1.429350e-002
1.332592e+003,1.429905e-002
1.334520e+003,1.430890e-002
1.336449e+003,1.427192e-002
1.338377e+003,1.419066e-002
1.340306e+003,1.406150e-002
1.342234e+003,1.397059e-002
1.344163e+003,1.392537e-002
1.346091e+003,1.393739e-002
1.348020e+003,1.396093e-002
1.349948e+003,1.400831e-002
1.351877e+003,1.405864e-002
1.353805e+003,1.415419e-002
1.355734e+003,1.427209e-002
1.357662e+003,1.440147e-002
1.359591e+003,1.455071e-002
1.361519e+003,1.469949e-002
1.363448e+003,1.479480e-002
1.365376e+003,1.485272e-002
1.367305e+003,1.492611e-002
1.369233e+003,1.494868e-002
1.371162e+003,1.488122e-002
1.373090e+003,1.475984e-002
1.375019e+003,1.461117e-002
1.376947e+003,1.446941e-002
1.378876e+003,1.428805e-002
1.380804e+003,1.406758e-002
1.382733e+003,1.383108e-002
1.384661e+003,1.360598e-002
1.386590e+003,1.342919e-002
1.388518e+003,1.330235e-002
1.390447e+003,1.317691e-002
1.392375e+003,1.311825e-002
1.394304e+003,1.310253e-002
1.396232e+003,1.309776e-002
1.398161e+003,1.312200e-002
1.400089e+003,1.315270e-002
1.402018e+003,1.318280e-002
1.403946e+003,1.317078e-002
1.405875e+003,1.318914e-002
1.407803e+003,1.323205e-002
1.409732e+003,1.328237e-002
1.411660e+003,1.337044e-002
1.413589e+003,1.343594e-002
1.415517e+003,1.347165e-002
1.417446e+003,1.351455e-002
1.419374e+003,1.354670e-002
1.421303e+003,1.361499e-002
1.423231e+003,1.366445e-002
1.425160e+003,1.360963e-002
1.427088e+003,1.358202e-002
1.429017e+003,1.354265e-002
1.430945e+003,1.342012e-002
1.432874e+003,1.330733e-002
1.434802e+003,1.318555e-002
1.436731e+003,1.302595e-002
1.438659e+003,1.290854e-002
1.440588e+003,1.282827e-002
1.442516e+003,1.274049e-002
1.444445e+003,1.269439e-002
1.446373e+003,1.266403e-002
1.448302e+003,1.260757e-002
1.450230e+003,1.257769e-002
1.452159e+003,1.257856e-002
1.454087e+003,1.256536e-002
1.456016e+003,1.246384e-002
1.457944e+003,1.237574e-002
1.459873e+003,1.234736e-002
1.461801e+003,1.229122e-002
1.463730e+003,1.219121e-002
1.465658e+003,1.199962e-002
1.467587e+003,1.179556e-002
1.469515e+003,1.153800e-002
1.471444e+003,1.129002e-002
1.473372e+003,1.101200e-002
1.475301e+003,1.074960e-002
1.477229e+003,1.058092e-002
1.479158e+003,1.044692e-002
1.481086e+003,1.035299e-002
1.483015e+003,1.030121e-002
1.484943e+003,1.029632e-002
1.486872e+003,1.033385e-002
1.488800e+003,1.043508e-002
1.490729e+003,1.051590e-002
1.492657e+003,1.062248e-002
1.494586e+003,1.077193e-002
1.496514e+003,1.090771e-002
1.498443e+003,1.101491e-002
1.500371e+003,1.113910e-002
1.502300e+003,1.123144e-002
1.504228e+003,1.134074e-002
1.506157e+003,1.143389e-002
1.508085e+003,1.153133e-002
1.510014e+003,1.164162e-002
1.511942e+003,1.167867e-002
1.513871e+003,1.172282e-002
1.515799e+003,1.175357e-002
1.517728e+003,1.169305e-002
1.519656e+003,1.163719e-002
1.521585e+003,1.155109e-002
1.523513e+003,1.146346e-002
1.525442e+003,1.142788e-002
1.527370e+003,1.137792e-002
1.529299e+003,1.136069e-002
1.531227e+003,1.133220e-002
1.533156e+003,1.131266e-002
1.535084e+003,1.126334e-002
1.537013e+003,1.128277e-002
1.538941e+003,1.128010e-002
1.540870e+003,1.126311e-002
1.542798e+003,1.123132e-002
1.544727e+003,1.119851e-002
1.546655e+003,1.117806e-002
1.548584e+003,1.114554e-002
1.550512e+003,1.113010e-002
1.552441e+003,1.113732e-002
1.554369e+003,1.110965e-002
1.556298e+003,1.111840e-002
1.558226e+003,1.109138e-002
1.560155e+003,1.101288e-002
1.562083e+003,1.103052e-002
1.564012e+003,1.110251e-002
1.565940e+003,1.112843e-002
1.567869e+003,1.112019e-002
1.569797e+003,1.116271e-002
1.571726e+003,1.120187e-002
1.573654e+003,1.124309e-002
1.575583e+003,1.123002e-002
1.577511e+003,1.135497e-002
1.579440e+003,1.150236e-002
1.581368e+003,1.156096e-002
1.583297e+003,1.163403e-002
1.585225e+003,1.172198e-002
1.587154e+003,1.178350e-002
1.589082e+003,1.186089e-002
1.591010e+003,1.188077e-002
1.592939e+003,1.190681e-002
1.594868e+003,1.194080e-002
1.596796e+003,1.196142e-002
1.598724e+003,1.196626e-002
1.600653e+003,1.194024e-002
1.602582e+003,1.192366e-002
1.604510e+003,1.191965e-002
1.606438e+003,1.193037e-002
1.608367e+003,1.194645e-002
1.610296e+003,1.197659e-002
1.612224e+003,1.201046e-002
1.614152e+003,1.209441e-002
1.616081e+003,1.217254e-002
1.618010e+003,1.226912e-002
1.619938e+003,1.238229e-002
1.621866e+003,1.243081e-002
1.623795e+003,1.246908e-002
1.625724e+003,1.254905e-002
1.627652e+003,1.256061e-002
1.629580e+003,1.250079e-002
1.631509e+003,1.239813e-002
1.633438e+003,1.228222e-002
1.635366e+003,1.221185e-002
1.637294e+003,1.213699e-002
1.639223e+003,1.210453e-002
1.641151e+003,1.205758e-002
1.643080e+003,1.204909e-002
1.645008e+003,1.202204e-002
1.646937e+003,1.200056e-002
1.648865e+003,1.192440e-002
1.650794e+003,1.181351e-002
1.652722e+003,1.172517e-002
1.654651e+003,1.168653e-002
1.656579e+003,1.157719e-002
1.658508e+003,1.141895e-002
1.660436e+003,1.132020e-002
1.662365e+003,1.118799e-002
1.664293e+003,1.091930e-002
1.666222e+003,1.070296e-002
1.668150e+003,1.058683e-002
1.670079e+003,1.036763e-002
1.672007e+003,1.017242e-002
1.673936e+003,1.008402e-002
1.675864e+003,9.951830e-003
1.677793e+003,9.824827e-003
1.679721e+003,9.726778e-003
1.681650e+003,9.624915e-003
1.683578e+003,9.485441e-003
1.685507e+003,9.320996e-003
1.687435e+003,9.291071e-003
1.689364e+003,9.194666e-003
1.691292e+003,9.112820e-003
1.693221e+003,9.084892e-003
1.695149e+003,9.036605e-003
1.697078e+003,8.966345e-003
1.699006e+003,8.968145e-003
1.700935e+003,8.888596e-003
1.702863e+003,8.836473e-003
1.704792e+003,8.804139e-003
1.706720e+003,8.825138e-003
1.708649e+003,8.843412e-003
1.710577e+003,8.927215e-003
1.712506e+003,9.008552e-003
1.714434e+003,9.095474e-003
1.716363e+003,9.108474e-003
1.718291e+003,9.140618e-003
1.720220e+003,9.231003e-003
1.722148e+003,9.278243e-003
1.724077e+003,9.313725e-003
1.726005e+003,9.377806e-003
1.727934e+003,9.407629e-003
1.729862e+003,9.471520e-003
1.731791e+003,9.476229e-003
1.733719e+003,9.381458e-003
1.735648e+003,9.249438e-003
1.737576e+003,9.164046e-003
1.739505e+003,9.010937e-003
1.741433e+003,8.764928e-003
1.743362e+003,8.545257e-003
1.745290e+003,8.398280e-003
1.747219e+003,8.278028e-003
1.749147e+003,8.060703e-003
1.751076e+003,7.891200e-003
1.753004e+003,7.802476e-003
1.754933e+003,7.732395e-003
1.756861e+003,7.634514e-003
1.758790e+003,7.532735e-003
1.760718e+003,7.442832e-003
1.762647e+003,7.415709e-003
1.764575e+003,7.383152e-003
1.766504e+003,7.303535e-003
1.768432e+003,7.212145e-003
1.770361e+003,7.207823e-003
1.772289e+003,7.207718e-003
1.774218e+003,7.173729e-003
1.776146e+003,7.139030e-003
1.778075e+003,7.122923e-003
1.780003e+003,7.181717e-003
1.781932e+003,7.169015e-003
1.783860e+003,7.104135e-003
1.785789e+003,7.106605e-003
1.787717e+003,7.126493e-003
1.789646e+003,7.143864e-003
1.791574e+003,7.137764e-003
1.793503e+003,7.091698e-003
1.795431e+003,7.157627e-003
1.797360e+003,7.179031e-003
1.799288e+003,7.198091e-003
1.801217e+003,7.224527e-003
1.803145e+003,7.188621e-003
1.805074e+003,7.173981e-003
1.807002e+003,7.128170e-003
1.808931e+003,7.015471e-003
1.810859e+003,7.068743e-003
1.812788e+003,7.086549e-003
1.814716e+003,7.064770e-003
1.816645e+003,6.928130e-003
1.818573e+003,6.828277e-003
1.820502e+003,6.874879e-003
1.822430e+003,6.852576e-003
1.824359e+003,6.758742e-003
1.826287e+003,6.775183e-003
1.828216e+003,6.790345e-003
1.830144e+003,6.792076e-003
1.832073e+003,6.691712e-003
1.834001e+003,6.643620e-003
1.835930e+003,6.631621e-003
1.837858e+003,6.580395e-003
1.839787e+003,6.542933e-003
1.841715e+003,6.552799e-003
1.843644e+003,6.597641e-003
1.845572e+003,6.755218e-003
1.847501e+003,6.676419e-003
1.849429e+003,6.563039e-003
1.851358e+003,6.584378e-003
1.853286e+003,6.654760e-003
1.855215e+003,6.726000e-003
1.857143e+003,6.704426e-003
1.859072e+003,6.468950e-003
1.861000e+003,6.379218e-003
1.862929e+003,6.351955e-003
1.864857e+003,6.363026e-003
1.866786e+003,6.621463e-003
1.868714e+003,6.684316e-003
1.870643e+003,6.568471e-003
1.872571e+003,6.583329e-003
1.874500e+003,6.504274e-003
1.876428e+003,6.503284e-003
1.878357e+003,6.528956e-003
1.880285e+003,6.487388e-003
1.882214e+003,6.384826e-003
1.884142e+003,6.348550e-003
1.886071e+003,6.365653e-003
1.887999e+003,6.447698e-003
1.889928e+003,6.457079e-003
1.891856e+003,6.426126e-003
1.893785e+003,6.227370e-003
1.895713e+003,6.143758e-003
1.897642e+003,6.272015e-003
1.899570e+003,6.418834e-003
1.901499e+003,6.290802e-003
1.903427e+003,6.299366e-003
1.905356e+003,6.224754e-003
1.907284e+003,5.831753e-003
1.909213e+003,5.648767e-003
1.911141e+003,5.777369e-003
1.913070e+003,5.796543e-003
1.914998e+003,5.802516e-003
1.916927e+003,5.973334e-003
1.918855e+003,5.942133e-003
1.920784e+003,5.596969e-003
1.922712e+003,5.375104e-003
1.924641e+003,5.180920e-003
1.926569e+003,5.230975e-003
1.928498e+003,5.191156e-003
1.930426e+003,5.104247e-003
1.932355e+003,4.982498e-003
1.934283e+003,4.615644e-003
1.936212e+003,4.582708e-003
1.938140e+003,4.744603e-003
1.940069e+003,4.445752e-003
1.941997e+003,4.208374e-003
1.943926e+003,4.244381e-003
1.945854e+003,4.043609e-003
1.947783e+003,3.799289e-003
1.949711e+003,2.990195e-003
1.951640e+003,2.649200e-003
1.953568e+003,3.009841e-003
1.955497e+003,3.095463e-003
1.957425e+003,2.175686e-003
1.959354e+003,1.488204e-003
1.961282e+003,7.768364e-004
1.963211e+003,-1.913142e-004
1.965139e+003,-3.777503e-004
1.967068e+003,-1.682549e-004
1.968996e+003,-8.976015e-004
1.970925e+003,-2.230276e-003
1.972853e+003,-2.328961e-003
1.974782e+003,-2.084361e-003
1.976710e+003,-2.744232e-003
1.978639e+003,-2.706296e-003
1.980567e+003,-2.325990e-003
1.982496e+003,-1.352900e-003
1.984424e+003,-4.517664e-005
1.986353e+003,-1.039756e-005
1.988281e+003,1.898886e-004
1.990210e+003,2.125952e-004
1.992138e+003,7.916792e-005
1.994067e+003,4.555791e-004
1.995995e+003,1.298162e-003
1.997924e+003,7.755610e-004
1.999852e+003,7.165330e-004
2.001781e+003,1.290286e-004
2.003709e+003,-1.028865e-003
2.005638e+003,-1.920206e-003
2.007566e+003,-2.332187e-003
2.009495e+003,-2.054228e-003
2.011423e+003,-2.658264e-003
2.013352e+003,-3.271306e-003
2.015280e+003,-3.143630e-003
2.017208e+003,-3.489806e-003
2.019137e+003,-3.243000e-003
2.021066e+003,-3.543028e-003
2.022994e+003,-4.309208e-003
2.024922e+003,-4.783926e-003
2.026851e+003,-4.092029e-003
2.028780e+003,-4.002559e-003
2.030708e+003,-5.238996e-003
2.032636e+003,-5.637032e-003
2.034565e+003,-5.112027e-003
2.036494e+003,-4.930333e-003
2.038422e+003,-3.891205e-003
2.040350e+003,-2.876038e-003
2.042279e+003,-2.483564e-003
2.044208e+003,-1.881823e-003
2.046136e+003,-1.415217e-003
2.048064e+003,-9.048338e-004
2.049993e+003,1.637057e-004
2.051921e+003,1.131808e-003
2.053850e+003,1.454832e-003
2.055778e+003,2.211240e-003
2.057707e+003,2.396418e-003
2.059635e+003,2.102317e-003
2.061564e+003,1.853979e-003
2.063492e+003,2.263351e-003
2.065421e+003,2.641564e-003
2.067349e+003,2.626290e-003
2.069278e+003,2.813961e-003
2.071206e+003,2.997580e-003
2.073135e+003,3.088547e-003
2.075063e+003,3.449494e-003
2.076992e+003,3.861101e-003
2.078920e+003,3.978923e-003
2.080849e+003,4.160707e-003
2.082777e+003,4.373807e-003
2.084706e+003,4.190144e-003
2.086634e+003,4.420795e-003
2.088563e+003,4.398882e-003
2.090491e+003,4.438963e-003
2.092420e+003,4.429975e-003
2.094348e+003,4.211052e-003
2.096277e+003,3.955662e-003
2.098205e+003,4.034294e-003
2.100134e+003,4.542058e-003
2.102062e+003,4.633877e-003
2.103991e+003,4.569113e-003
2.105919e+003,4.604943e-003
2.107848e+003,4.754489e-003
2.109776e+003,4.789631e-003
2.111705e+003,4.880530e-003
2.113633e+003,4.939140e-003
2.115562e+003,5.245088e-003
2.117490e+003,5.251896e-003
2.119419e+003,5.110560e-003
2.121347e+003,5.072475e-003
2.123276e+003,4.879994e-003
2.125204e+003,5.029836e-003
2.127133e+003,4.738845e-003
2.129061e+003,4.234933e-003
2.130990e+003,3.675228e-003
2.132918e+003,3.483164e-003
2.134847e+003,3.309114e-003
2.136775e+003,2.700720e-003
2.138704e+003,2.208723e-003
2.140632e+003,1.956126e-003
2.142561e+003,1.885304e-003
2.144489e+003,9.743383e-004
2.146418e+003,-4.705135e-004
2.148346e+003,-1.104212e-003
2.150275e+003,-1.555472e-003
2.152203e+003,-2.115088e-003
2.154132e+003,-3.804076e-003
2.156060e+003,-6.030152e-003
2.157989e+003,-8.664519e-003
2.159917e+003,-9.602359e-003
2.161846e+003,-6.760134e-003
2.163774e+003,-5.314194e-003
2.165703e+003,-4.881339e-003
2.167631e+003,-3.690056e-003
2.169560e+003,-2.622248e-003
2.171488e+003,-3.014091e-003
2.173417e+003,-3.489044e-003
2.175345e+003,-2.705893e-003
2.177274e+003,-2.664138e-003
2.179202e+003,-2.930373e-003
2.181131e+003,-2.889693e-003
2.183059e+003,-2.304708e-003
2.184988e+003,-1.725073e-003
2.186916e+003,-1.593339e-003
2.188845e+003,-1.359348e-003
2.190773e+003,-1.156758e-003
2.192702e+003,-9.437248e-004
2.194630e+003,-2.671107e-004
2.196559e+003,-1.155230e-004
2.198487e+003,-1.407306e-004
2.200416e+003,1.958332e-004
2.202344e+003,5.230043e-004
2.204273e+003,1.990486e-004
2.206201e+003,1.117424e-004
2.208130e+003,9.945959e-004
2.210058e+003,1.181376e-003
2.211987e+003,9.260227e-004
2.213915e+003,7.498739e-004
2.215844e+003,1.220782e-003
2.217772e+003,1.342178e-003
2.219701e+003,1.523754e-003
2.221629e+003,1.722971e-003
2.223558e+003,2.007319e-003
2.225486e+003,2.343987e-003
2.227415e+003,2.374403e-003
2.229343e+003,2.781578e-003
2.231272e+003,2.994088e-003
2.233200e+003,2.862834e-003
2.235129e+003,3.054489e-003
2.237057e+003,3.097040e-003
2.238986e+003,3.178177e-003
2.240914e+003,3.859057e-003
2.242843e+003,3.995961e-003
2.244771e+003,4.146896e-003
2.246700e+003,4.162134e-003
2.248628e+003,4.196947e-003
2.250557e+003,4.623380e-003
2.252485e+003,4.754188e-003
2.254414e+003,4.676376e-003
2.256342e+003,4.620647e-003
2.258271e+003,4.790512e-003
2.260199e+003,5.140522e-003
2.262128e+003,4.975519e-003
2.264056e+003,4.890325e-003
2.265985e+003,5.072820e-003
2.267913e+003,5.131227e-003
2.269842e+003,5.302894e-003
2.271770e+003,5.354058e-003
2.273699e+003,5.558229e-003
2.275627e+003,5.726770e-003
2.277556e+003,5.973807e-003
2.279484e+003,6.192395e-003
2.281413e+003,6.238637e-003
2.283341e+003,6.360118e-003
2.285270e+003,6.534469e-003
2.287198e+003,6.711499e-003
2.289127e+003,6.899358e-003
2.291055e+003,7.009114e-003
2.292984e+003,7.054783e-003
2.294912e+003,7.122395e-003
2.296841e+003,7.167248e-003
2.298769e+003,7.298876e-003
2.300698e+003,7.449355e-003
2.302626e+003,7.517030e-003
2.304555e+003,7.464225e-003
2.306483e+003,7.403982e-003
2.308412e+003,7.353046e-003
2.310340e+003,7.210699e-003
2.312269e+003,7.164246e-003
2.314197e+003,7.223283e-003
2.316125e+003,7.534984e-003
2.318054e+003,7.992036e-003
2.319983e+003,8.133255e-003
2.321911e+003,8.047754e-003
2.323840e+003,8.068052e-003
2.325768e+003,8.341750e-003
2.327697e+003,8.311564e-003
2.329625e+003,8.209843e-003
2.331553e+003,8.159512e-003
2.333482e+003,8.178030e-003
2.335411e+003,8.372045e-003
2.337339e+003,8.333880e-003
2.339268e+003,8.100552e-003
2.341196e+003,7.904233e-003
2.343125e+003,8.133532e-003
2.345053e+003,8.121304e-003
2.346981e+003,7.948739e-003
2.348910e+003,7.877428e-003
2.350839e+003,7.719412e-003
2.352767e+003,7.604179e-003
2.354696e+003,7.900787e-003
2.356624e+003,7.899497e-003
2.358552e+003,7.583342e-003
2.360481e+003,7.501913e-003
2.362409e+003,7.296495e-003
2.364338e+003,7.269502e-003
2.366267e+003,7.049063e-003
2.368195e+003,7.257015e-003
2.370124e+003,7.351071e-003
2.372052e+003,7.545788e-003
2.373980e+003,7.561329e-003
2.375909e+003,7.657125e-003
2.377838e+003,7.680068e-003
2.379766e+003,7.670483e-003
2.381695e+003,7.772385e-003
2.383623e+003,7.886392e-003
2.385552e+003,7.915573e-003
2.387480e+003,7.848027e-003
2.389408e+003,7.693613e-003
2.391337e+003,7.700358e-003
2.393266e+003,7.725898e-003
2.395194e+003,7.640899e-003
2.397123e+003,7.527785e-003
2.399051e+003,7.412040e-003
2.400979e+003,7.496257e-003
2.402908e+003,7.613856e-003
2.404836e+003,7.596356e-003
2.406765e+003,7.585532e-003
2.408694e+003,7.502358e-003
2.410622e+003,7.429851e-003
2.412551e+003,7.427391e-003
2.414479e+003,7.448862e-003
2.416407e+003,7.506573e-003
2.418336e+003,7.471918e-003
2.420264e+003,7.522485e-003
2.422193e+003,7.583004e-003
2.424122e+003,7.570494e-003
2.426050e+003,7.456716e-003
2.427979e+003,7.386474e-003
2.429907e+003,7.258997e-003
2.431835e+003,7.094811e-003
2.433764e+003,7.064028e-003
2.435692e+003,7.184576e-003
2.437621e+003,7.186530e-003
2.439550e+003,7.198691e-003
2.441478e+003,7.221296e-003
2.443406e+003,7.152171e-003
2.445335e+003,7.025739e-003
2.447263e+003,7.185115e-003
2.449192e+003,7.219578e-003
2.451121e+003,7.152575e-003
2.453049e+003,7.157594e-003
2.454978e+003,7.246126e-003
2.456906e+003,7.291444e-003
2.458834e+003,7.256167e-003
2.460763e+003,7.310583e-003
2.462691e+003,7.358603e-003
2.464620e+003,7.315233e-003
2.466549e+003,7.229382e-003
2.468477e+003,7.181376e-003
2.470406e+003,7.204452e-003
2.472334e+003,7.253336e-003
2.474262e+003,7.369017e-003
2.476191e+003,7.395001e-003
2.478119e+003,7.419942e-003
2.480048e+003,7.426144e-003
2.481977e+003,7.393923e-003
2.483905e+003,7.477446e-003
2.485833e+003,7.459851e-003
2.487762e+003,7.325578e-003
2.489690e+003,7.325174e-003
2.491619e+003,7.322546e-003
2.493547e+003,7.380711e-003
2.495476e+003,7.404135e-003
2.497405e+003,7.449637e-003
2.499333e+003,7.420818e-003
2.501261e+003,7.369624e-003
2.503190e+003,7.417077e-003
2.505118e+003,7.549591e-003
2.507047e+003,7.478154e-003
2.508975e+003,7.465311e-003
2.510904e+003,7.505966e-003
2.512833e+003,7.373533e-003
2.514761e+003,7.338552e-003
2.516689e+003,7.446704e-003
2.518618e+003,7.481930e-003
2.520546e+003,7.524170e-003
2.522475e+003,7.493156e-003
2.524403e+003,7.525957e-003
2.526332e+003,7.453850e-003
2.528260e+003,7.374544e-003
2.530189e+003,7.363793e-003
2.532117e+003,7.441446e-003
2.534046e+003,7.525755e-003
2.535974e+003,7.496021e-003
2.537903e+003,7.419976e-003
2.539831e+003,7.364972e-003
2.541760e+003,7.254987e-003
2.543688e+003,7.254751e-003
2.545617e+003,7.315368e-003
2.547545e+003,7.193604e-003
2.549474e+003,7.047257e-003
2.551402e+003,7.092992e-003
2.553331e+003,7.274327e-003
2.555259e+003,7.308258e-003
2.557188e+003,7.259974e-003
2.559116e+003,7.282751e-003
2.561045e+003,7.228877e-003
2.562973e+003,7.175010e-003
2.564902e+003,7.056148e-003
2.566830e+003,6.934457e-003
2.568759e+003,6.942975e-003
2.570687e+003,7.020250e-003
2.572616e+003,7.038670e-003
2.574544e+003,7.071943e-003
2.576473e+003,7.212066e-003
2.578401e+003,7.227495e-003
2.580330e+003,7.119060e-003
2.582258e+003,7.083865e-003
2.584187e+003,7.150352e-003
2.586115e+003,7.188855e-003
2.588044e+003,7.171203e-003
2.589972e+003,7.054464e-003
2.591901e+003,7.109125e-003
2.593829e+003,7.252157e-003
2.595758e+003,7.292084e-003
2.597686e+003,7.284132e-003
2.599615e+003,7.248856e-003
2.601543e+003,7.244678e-003
2.603472e+003,7.377509e-003
2.605400e+003,7.398034e-003
2.607329e+003,7.372084e-003
2.609257e+003,7.471885e-003
2.611186e+003,7.481660e-003
2.613114e+003,7.442828e-003
2.615043e+003,7.561560e-003
2.616971e+003,7.632841e-003
2.618900e+003,7.592344e-003
2.620828e+003,7.570967e-003
2.622757e+003,7.595378e-003
2.624685e+003,7.698300e-003
2.626614e+003,7.794026e-003
2.628542e+003,7.853436e-003
2.630471e+003,7.876852e-003
2.632399e+003,7.948387e-003
2.634328e+003,8.018045e-003
2.636256e+003,8.077451e-003
2.638185e+003,8.058751e-003
2.640113e+003,8.084270e-003
2.642042e+003,8.155941e-003
2.643970e+003,8.227084e-003
2.645899e+003,8.365756e-003
2.647827e+003,8.434332e-003
2.649756e+003,8.464907e-003
2.651684e+003,8.561614e-003
2.653613e+003,8.619202e-003
2.655541e+003,8.663041e-003
2.657470e+003,8.719494e-003
2.659398e+003,8.747857e-003
2.661327e+003,8.720508e-003
2.663255e+003,8.723144e-003
2.665184e+003,8.803712e-003
2.667112e+003,8.835767e-003
2.669041e+003,8.774363e-003
2.670969e+003,8.781735e-003
2.672898e+003,8.798437e-003
2.674826e+003,8.768177e-003
2.676755e+003,8.811692e-003
2.678683e+003,8.858052e-003
2.680612e+003,8.879933e-003
2.682540e+003,8.876483e-003
2.684469e+003,8.874623e-003
2.686397e+003,8.850072e-003
2.688326e+003,8.869888e-003
2.690254e+003,8.875739e-003
2.692183e+003,8.850207e-003
2.694111e+003,8.899244e-003
2.696040e+003,8.918859e-003
2.697968e+003,8.854603e-003
2.699897e+003,8.859067e-003
2.701825e+003,8.922039e-003
2.703754e+003,8.895083e-003
2.705682e+003,8.883822e-003
2.707611e+003,8.852642e-003
2.709539e+003,8.850884e-003
2.711468e+003,8.878715e-003
2.713396e+003,8.839183e-003
2.715325e+003,8.853217e-003
2.717253e+003,8.852168e-003
2.719182e+003,8.842294e-003
2.721110e+003,8.906616e-003
2.723039e+003,8.980893e-003
2.724967e+003,8.930494e-003
2.726896e+003,8.889875e-003
2.728824e+003,8.912771e-003
2.730753e+003,8.948555e-003
2.732681e+003,8.926740e-003
2.734610e+003,8.901611e-003
2.736538e+003,8.896166e-003
2.738467e+003,8.923357e-003
2.740395e+003,8.952648e-003
2.742324e+003,9.034849e-003
2.744252e+003,9.002982e-003
2.746181e+003,8.912568e-003
2.748109e+003,8.943448e-003
2.750038e+003,8.992732e-003
2.751966e+003,8.985695e-003
2.753895e+003,8.961037e-003
2.755823e+003,8.942434e-003
2.757752e+003,8.996284e-003
2.759680e+003,9.032210e-003
2.761609e+003,9.030248e-003
2.763537e+003,9.031736e-003
2.765466e+003,9.037758e-003
2.767394e+003,9.060696e-003
2.769323e+003,9.084143e-003
2.771251e+003,9.092195e-003
2.773180e+003,9.117234e-003
2.775108e+003,9.093786e-003
2.777037e+003,9.063369e-003
2.778965e+003,9.096933e-003
2.780894e+003,9.188636e-003
2.782822e+003,9.253991e-003
2.784750e+003,9.216421e-003
2.786679e+003,9.216895e-003
2.788608e+003,9.224273e-003
2.790536e+003,9.187553e-003
2.792465e+003,9.157502e-003
2.794393e+003,9.161428e-003
2.796322e+003,9.214526e-003
2.798250e+003,9.215068e-003
2.800178e+003,9.229960e-003
2.802107e+003,9.277718e-003
2.804036e+003,9.289837e-003
2.805964e+003,9.303479e-003
2.807893e+003,9.372406e-003
2.809821e+003,9.417370e-003
2.811750e+003,9.379753e-003
2.813678e+003,9.342749e-003
2.815606e+003,9.377519e-003
2.817535e+003,9.432336e-003
2.819464e+003,9.479373e-003
2.821392e+003,9.475851e-003
2.823321e+003,9.531800e-003
2.825249e+003,9.555475e-003
2.827177e+003,9.623528e-003
2.829106e+003,9.703347e-003
2.831034e+003,9.686203e-003
2.832963e+003,9.750278e-003
2.834892e+003,9.792740e-003
2.836820e+003,9.817039e-003
2.838749e+003,9.919471e-003
2.840677e+003,1.004217e-002
2.842605e+003,1.018563e-002
2.844534e+003,1.038048e-002
2.846462e+003,1.052446e-002
2.848391e+003,1.068101e-002
2.850320e+003,1.071165e-002
2.852248e+003,1.064933e-002
2.854177e+003,1.057962e-002
2.856105e+003,1.055416e-002
2.858033e+003,1.055280e-002
2.859962e+003,1.050657e-002
2.861890e+003,1.050182e-002
2.863819e+003,1.053400e-002
2.865748e+003,1.056010e-002
2.867676e+003,1.053189e-002
2.869604e+003,1.052086e-002
2.871533e+003,1.053111e-002
2.873461e+003,1.054669e-002
2.875390e+003,1.054432e-002
2.877319e+003,1.052938e-002
2.879247e+003,1.055684e-002
2.881176e+003,1.058882e-002
2.883104e+003,1.062512e-002
2.885032e+003,1.068400e-002
2.886961e+003,1.068054e-002
2.888889e+003,1.068305e-002
2.890818e+003,1.074323e-002
2.892747e+003,1.081140e-002
2.894675e+003,1.079116e-002
2.896604e+003,1.072489e-002
2.898532e+003,1.077044e-002
2.900460e+003,1.073450e-002
2.902389e+003,1.073916e-002
2.904317e+003,1.077434e-002
2.906246e+003,1.075790e-002
2.908175e+003,1.075013e-002
2.910103e+003,1.086538e-002
2.912031e+003,1.093915e-002
2.913960e+003,1.108882e-002
2.915888e+003,1.117747e-002
2.917817e+003,1.110537e-002
2.919745e+003,1.097313e-002
2.921674e+003,1.092481e-002
2.923603e+003,1.091808e-002
2.925531e+003,1.077071e-002
2.927459e+003,1.058998e-002
2.929388e+003,1.053372e-002
2.931316e+003,1.051645e-002
2.933245e+003,1.037257e-002
2.935173e+003,1.022793e-002
2.937102e+003,1.013887e-002
2.939031e+003,1.010663e-002
2.940959e+003,9.982579e-003
2.942887e+003,9.858928e-003
2.944816e+003,9.756562e-003
2.946744e+003,9.657351e-003
2.948673e+003,9.565013e-003
2.950601e+003,9.522672e-003
2.952530e+003,9.482021e-003
2.954458e+003,9.444319e-003
2.956387e+003,9.400018e-003
2.958315e+003,9.329343e-003
2.960244e+003,9.256753e-003
2.962172e+003,9.207080e-003
2.964101e+003,9.188763e-003
2.966029e+003,9.104582e-003
2.967958e+003,9.006778e-003
2.969886e+003,8.967216e-003
2.971815e+003,8.963926e-003
2.973743e+003,8.934307e-003
2.975672e+003,8.888694e-003
2.977600e+003,8.798474e-003
2.979529e+003,8.800987e-003
2.981457e+003,8.798506e-003
2.983386e+003,8.749185e-003
2.985314e+003,8.709823e-003
2.987243e+003,8.662852e-003
2.989171e+003,8.611387e-003
2.991100e+003,8.690572e-003
2.993028e+003,8.742581e-003
2.994957e+003,8.728716e-003
2.996885e+003,8.729747e-003
2.998814e+003,8.712334e-003
3.000742e+003,8.630524e-003
3.002671e+003,8.708077e-003
3.004599e+003,8.773811e-003
3.006528e+003,8.677816e-003
3.008456e+003,8.630092e-003
3.010385e+003,8.643343e-003
3.012313e+003,8.706160e-003
3.014242e+003,8.749807e-003
3.016170e+003,8.707037e-003
3.018099e+003,8.662153e-003
3.020027e+003,8.685650e-003
3.021956e+003,8.688775e-003
3.023884e+003,8.739481e-003
3.025813e+003,8.786614e-003
3.027741e+003,8.761568e-003
3.029670e+003,8.757724e-003
3.031598e+003,8.814094e-003
3.033527e+003,8.902619e-003
3.035455e+003,8.942649e-003
3.037384e+003,8.927491e-003
3.039312e+003,8.916428e-003
3.041241e+003,8.882477e-003
3.043169e+003,8.915531e-003
3.045098e+003,8.984742e-003
3.047026e+003,8.994516e-003
3.048955e+003,9.018324e-003
3.050883e+003,9.011767e-003
3.052812e+003,8.994497e-003
3.054740e+003,9.005859e-003
3.056669e+003,8.994929e-003
3.058597e+003,9.096753e-003
3.060526e+003,9.198497e-003
3.062454e+003,9.176087e-003
3.064383e+003,9.163301e-003
3.066311e+003,9.150036e-003
3.068240e+003,9.158537e-003
3.070168e+003,9.247044e-003
3.072097e+003,9.263015e-003
3.074025e+003,9.229722e-003
3.075954e+003,9.225846e-003
3.077882e+003,9.270775e-003
3.079811e+003,9.279451e-003
3.081739e+003,9.288203e-003
3.083668e+003,9.295699e-003
3.085596e+003,9.308384e-003
3.087525e+003,9.344788e-003
3.089453e+003,9.350394e-003
3.091382e+003,9.343445e-003
3.093310e+003,9.348539e-003
3.095239e+003,9.367635e-003
3.097167e+003,9.353111e-003
3.099096e+003,9.395839e-003
3.101024e+003,9.480613e-003
3.102953e+003,9.522092e-003
3.104881e+003,9.532578e-003
3.106810e+003,9.510538e-003
3.108738e+003,9.478623e-003
3.110667e+003,9.439074e-003
3.112595e+003,9.538284e-003
3.114524e+003,9.672172e-003
3.116452e+003,9.650870e-003
3.118381e+003,9.604443e-003
3.120309e+003,9.622833e-003
3.122238e+003,9.626475e-003
3.124166e+003,9.641433e-003
3.126095e+003,9.685523e-003
3.128023e+003,9.689917e-003
3.129952e+003,9.738427e-003
3.131880e+003,9.730354e-003
3.133809e+003,9.813864e-003
3.135737e+003,9.813539e-003
3.137666e+003,9.795567e-003
3.139594e+003,9.828345e-003
3.141523e+003,9.826602e-003
3.143451e+003,9.909405e-003
3.145380e+003,9.973015e-003
3.147308e+003,9.981373e-003
3.149237e+003,9.970386e-003
3.151165e+003,1.001347e-002
3.153094e+003,1.000208e-002
3.155022e+003,9.969380e-003
3.156951e+003,9.985773e-003
3.158879e+003,1.007164e-002
3.160808e+003,1.015727e-002
3.162736e+003,1.016891e-002
3.164665e+003,1.018393e-002
3.166593e+003,1.012650e-002
3.168522e+003,1.013397e-002
3.170450e+003,1.017986e-002
3.172379e+003,1.018843e-002
3.174307e+003,1.019195e-002
3.176236e+003,1.025614e-002
3.178164e+003,1.031185e-002
3.180093e+003,1.032003e-002
3.182021e+003,1.035239e-002
3.183950e+003,1.040044e-002
3.185878e+003,1.041897e-002
3.187807e+003,1.047814e-002
3.189735e+003,1.052484e-002
3.191664e+003,1.052191e-002
3.193592e+003,1.056493e-002
3.195521e+003,1.062606e-002
3.197449e+003,1.065137e-002
3.199378e+003,1.074056e-002
3.201306e+003,1.082882e-002
3.203235e+003,1.073948e-002
3.205163e+003,1.071872e-002
3.207092e+003,1.088288e-002
3.209020e+003,1.091428e-002
3.210948e+003,1.094496e-002
3.212877e+003,1.095631e-002
3.214806e+003,1.093139e-002
3.216734e+003,1.096325e-002
3.218663e+003,1.099265e-002
3.220591e+003,1.104059e-002
3.222520e+003,1.111478e-002
3.224448e+003,1.115201e-002
3.226376e+003,1.115872e-002
3.228305e+003,1.123912e-002
3.230234e+003,1.123057e-002
3.232162e+003,1.127530e-002
3.234091e+003,1.134122e-002
3.236019e+003,1.138725e-002
3.237948e+003,1.140919e-002
3.239876e+003,1.142057e-002
3.241804e+003,1.150232e-002
3.243733e+003,1.160146e-002
3.245662e+003,1.160988e-002
3.247590e+003,1.158603e-002
3.249519e+003,1.164810e-002
3.251447e+003,1.168306e-002
3.253375e+003,1.171549e-002
3.255304e+003,1.168584e-002
3.257232e+003,1.166748e-002
3.259161e+003,1.174341e-002
3.261090e+003,1.181794e-002
3.263018e+003,1.190955e-002
3.264947e+003,1.192251e-002
3.266875e+003,1.193977e-002
3.268803e+003,1.202132e-002
3.270732e+003,1.201194e-002
3.272660e+003,1.194264e-002
3.274589e+003,1.191270e-002
3.276518e+003,1.195979e-002
3.278446e+003,1.203878e-002
3.280375e+003,1.219368e-002
3.282303e+003,1.228444e-002
3.284231e+003,1.223209e-002
3.286160e+003,1.216067e-002
3.288088e+003,1.220188e-002
3.290017e+003,1.221172e-002
3.291946e+003,1.214725e-002
3.293874e+003,1.206785e-002
3.295802e+003,1.203750e-002
3.297731e+003,1.202916e-002
3.299659e+003,1.203089e-002
3.301588e+003,1.207324e-002
3.303516e+003,1.217729e-002
3.305445e+003,1.210710e-002
3.307374e+003,1.213126e-002
3.309302e+003,1.210994e-002
3.311230e+003,1.210020e-002
3.313159e+003,1.217197e-002
3.315087e+003,1.217260e-002
3.317016e+003,1.211578e-002
3.318944e+003,1.212305e-002
3.320873e+003,1.217846e-002
3.322802e+003,1.215313e-002
3.324730e+003,1.216223e-002
3.326658e+003,1.222694e-002
3.328587e+003,1.212628e-002
3.330515e+003,1.212803e-002
3.332444e+003,1.217403e-002
3.334372e+003,1.214409e-002
3.336301e+003,1.204243e-002
3.338229e+003,1.204004e-002
3.340158e+003,1.202578e-002
3.342086e+003,1.196714e-002
3.344015e+003,1.190298e-002
3.345943e+003,1.195275e-002
3.347872e+003,1.191101e-002
3.349800e+003,1.189529e-002
3.351729e+003,1.188251e-002
3.353657e+003,1.182153e-002
3.355586e+003,1.173668e-002
3.357514e+003,1.169766e-002
3.359443e+003,1.165787e-002
3.361371e+003,1.166977e-002
3.363300e+003,1.167013e-002
3.365229e+003,1.160432e-002
3.367157e+003,1.158037e-002
3.369085e+003,1.156119e-002
3.371014e+003,1.149224e-002
3.372942e+003,1.141465e-002
3.374871e+003,1.137351e-002
3.376799e+003,1.126043e-002
3.378728e+003,1.128314e-002
3.380656e+003,1.131765e-002
3.382585e+003,1.122134e-002
3.384513e+003,1.115960e-002
3.386442e+003,1.115152e-002
3.388370e+003,1.117575e-002
3.390299e+003,1.117799e-002
3.392227e+003,1.117962e-002
3.394156e+003,1.109595e-002
3.396084e+003,1.102403e-002
3.398013e+003,1.103414e-002
3.399941e+003,1.106880e-002
3.401870e+003,1.110019e-002
3.403798e+003,1.099773e-002
3.405727e+003,1.087461e-002
3.407655e+003,1.076555e-002
3.409584e+003,1.069225e-002
3.411512e+003,1.056389e-002
3.413441e+003,1.055718e-002
3.415369e+003,1.054196e-002
3.417298e+003,1.043752e-002
3.419226e+003,1.035304e-002
3.421155e+003,1.028095e-002
3.423083e+003,1.021247e-002
3.425012e+003,1.024696e-002
3.426940e+003,1.020082e-002
3.428869e+003,1.005983e-002
3.430797e+003,9.998278e-003
3.432726e+003,9.923791e-003
3.434654e+003,9.699226e-003
3.436583e+003,9.578613e-003
3.438511e+003,9.534872e-003
3.440440e+003,9.523081e-003
3.442368e+003,9.595883e-003
3.444297e+003,9.421058e-003
3.446225e+003,9.341577e-003
3.448154e+003,9.272639e-003
3.450082e+003,9.216983e-003
3.452011e+003,9.229473e-003
3.453939e+003,9.136526e-003
3.455868e+003,9.036378e-003
3.457796e+003,8.939558e-003
3.459725e+003,8.923302e-003
3.461653e+003,8.856868e-003
3.463582e+003,8.822778e-003
3.465510e+003,8.753724e-003
3.467439e+003,8.702128e-003
3.469367e+003,8.581236e-003
3.471296e+003,8.490790e-003
3.473224e+003,8.468771e-003
3.475153e+003,8.492415e-003
3.477081e+003,8.410233e-003
3.479010e+003,8.282736e-003
3.480938e+003,8.219794e-003
3.482867e+003,8.155286e-003
3.484795e+003,8.135456e-003
3.486724e+003,8.160349e-003
3.488652e+003,8.050920e-003
3.490581e+003,7.914814e-003
3.492509e+003,7.830116e-003
3.494438e+003,7.811903e-003
3.496366e+003,7.824152e-003
3.498295e+003,7.767429e-003
3.500223e+003,7.670325e-003
3.502152e+003,7.599468e-003
3.504080e+003,7.517216e-003
3.506009e+003,7.527956e-003
3.507937e+003,7.511569e-003
3.509866e+003,7.512482e-003
3.511794e+003,7.480127e-003
3.513723e+003,7.388673e-003
3.515651e+003,7.345697e-003
3.517580e+003,7.285351e-003
3.519508e+003,7.237949e-003
3.521437e+003,7.249509e-003
3.523365e+003,7.159805e-003
3.525294e+003,7.026102e-003
3.527222e+003,7.014432e-003
3.529151e+003,7.065682e-003
3.531079e+003,6.987904e-003
3.533008e+003,6.920888e-003
3.534936e+003,6.882451e-003
3.536865e+003,6.854774e-003
3.538793e+003,6.827442e-003
3.540722e+003,6.753522e-003
3.542650e+003,6.727456e-003
3.544579e+003,6.679608e-003
3.546507e+003,6.566994e-003
3.548436e+003,6.547803e-003
3.550364e+003,6.477089e-003
3.552293e+003,6.436110e-003
3.554221e+003,6.426440e-003
3.556150e+003,6.401408e-003
3.558078e+003,6.282073e-003
3.560007e+003,6.184050e-003
3.561935e+003,6.243606e-003
3.563864e+003,6.275699e-003
3.565792e+003,6.208826e-003
3.567721e+003,6.201952e-003
3.569649e+003,6.180295e-003
3.571578e+003,6.108177e-003
3.573506e+003,6.003818e-003
3.575435e+003,5.874726e-003
3.577363e+003,5.820283e-003
3.579292e+003,5.808913e-003
3.581220e+003,5.827828e-003
3.583149e+003,5.840287e-003
3.585077e+003,5.793913e-003
3.587006e+003,5.757368e-003
3.588934e+003,5.585494e-003
3.590863e+003,5.532685e-003
3.592791e+003,5.522951e-003
3.594720e+003,5.351332e-003
3.596648e+003,5.323361e-003
3.598577e+003,5.378931e-003
3.600505e+003,5.429399e-003
3.602434e+003,5.441064e-003
3.604362e+003,5.428660e-003
3.606291e+003,5.430941e-003
3.608219e+003,5.435872e-003
3.610148e+003,5.373197e-003
3.612076e+003,5.410524e-003
3.614005e+003,5.456382e-003
3.615933e+003,5.492759e-003
3.617862e+003,5.384910e-003
3.619790e+003,5.179338e-003
3.621719e+003,5.105739e-003
3.623647e+003,5.072939e-003
3.625576e+003,5.054924e-003
3.627504e+003,5.030372e-003
3.629433e+003,5.049316e-003
3.631361e+003,5.114626e-003
3.633290e+003,5.121644e-003
3.635218e+003,5.108933e-003
3.637146e+003,5.144442e-003
3.639075e+003,5.204082e-003
3.641004e+003,5.199592e-003
3.642932e+003,5.208167e-003
3.644861e+003,5.180396e-003
3.646789e+003,5.248994e-003
3.648718e+003,5.326752e-003
3.650646e+003,5.265361e-003
3.652574e+003,5.220364e-003
3.654503e+003,5.250926e-003
3.656432e+003,5.226362e-003
3.658360e+003,5.231393e-003
3.660289e+003,5.301257e-003
3.662217e+003,5.241546e-003
3.664146e+003,5.139224e-003
3.666074e+003,5.158596e-003
3.668002e+003,5.196606e-003
3.669931e+003,5.142650e-003
3.671860e+003,5.096569e-003
3.673788e+003,5.179423e-003
3.675717e+003,5.097781e-003
3.677645e+003,5.079269e-003
3.679573e+003,5.113635e-003
3.681502e+003,5.058488e-003
3.683430e+003,5.039046e-003
3.685359e+003,4.990460e-003
3.687288e+003,4.910432e-003
3.689216e+003,4.940569e-003
3.691145e+003,4.959595e-003
3.693073e+003,4.880740e-003
3.695001e+003,4.800800e-003
3.696930e+003,4.783652e-003
3.698858e+003,4.807291e-003
3.700787e+003,4.752114e-003
3.702716e+003,4.779623e-003
3.704644e+003,4.776391e-003
3.706573e+003,4.836401e-003
3.708501e+003,4.765234e-003
3.710429e+003,4.849066e-003
3.712358e+003,4.974667e-003
3.714286e+003,5.080637e-003
3.716215e+003,5.019744e-003
3.718144e+003,4.928710e-003
3.720072e+003,4.918890e-003
3.722000e+003,4.873204e-003
3.723929e+003,4.838694e-003
3.725857e+003,4.676449e-003
3.727786e+003,4.617601e-003
3.729714e+003,4.758327e-003
3.731643e+003,4.798475e-003
3.733572e+003,4.958193e-003
3.735500e+003,5.058080e-003
3.737428e+003,5.104702e-003
3.739357e+003,5.156472e-003
3.741285e+003,5.050307e-003
3.743214e+003,5.023719e-003
3.745142e+003,5.044663e-003
3.747071e+003,5.188963e-003
3.749000e+003,5.197497e-003
3.750928e+003,5.206006e-003
3.752856e+003,5.216148e-003
3.754785e+003,5.237947e-003
3.756713e+003,5.277340e-003
3.758642e+003,5.288575e-003
3.760570e+003,5.324766e-003
3.762499e+003,5.295525e-003
3.764427e+003,5.313518e-003
3.766356e+003,5.375866e-003
3.768284e+003,5.363086e-003
3.770213e+003,5.314555e-003
3.772141e+003,5.318043e-003
3.774070e+003,5.292413e-003
3.775998e+003,5.317483e-003
3.777927e+003,5.296543e-003
3.779855e+003,5.371418e-003
3.781784e+003,5.439497e-003
3.783712e+003,5.382442e-003
3.785641e+003,5.362394e-003
3.787569e+003,5.355902e-003
3.789498e+003,5.288433e-003
3.791426e+003,5.314788e-003
3.793355e+003,5.410623e-003
3.795283e+003,5.420027e-003
3.797212e+003,5.362604e-003
3.799140e+003,5.371187e-003
3.801069e+003,5.363187e-003
3.802997e+003,5.394089e-003
3.804926e+003,5.306941e-003
3.806854e+003,5.289726e-003
3.808783e+003,5.378394e-003
3.810711e+003,5.447036e-003
3.812640e+003,5.382397e-003
3.814568e+003,5.415330e-003
3.816497e+003,5.478159e-003
3.818425e+003,5.474024e-003
3.820354e+003,5.413636e-003
3.822282e+003,5.359844e-003
3.824211e+003,5.437339e-003
3.826139e+003,5.469453e-003
3.828068e+003,5.400536e-003
3.829996e+003,5.388493e-003
3.831925e+003,5.473480e-003
3.833853e+003,5.421324e-003
3.835782e+003,5.333669e-003
3.837710e+003,5.398988e-003
3.839639e+003,5.569005e-003
3.841567e+003,5.546059e-003
3.843496e+003,5.495419e-003
3.845424e+003,5.458836e-003
3.847353e+003,5.408946e-003
3.849281e+003,5.439558e-003
3.851210e+003,5.490238e-003
3.853138e+003,5.496242e-003
3.855067e+003,5.391031e-003
3.856995e+003,5.393750e-003
3.858924e+003,5.403863e-003
3.860852e+003,5.427361e-003
3.862781e+003,5.446212e-003
3.864709e+003,5.527667e-003
3.866638e+003,5.521724e-003
3.868566e+003,5.530066e-003
3.870495e+003,5.447221e-003
3.872423e+003,5.475900e-003
3.874352e+003,5.485768e-003
3.876280e+003,5.459605e-003
3.878209e+003,5.489599e-003
3.880137e+003,5.546783e-003
3.882066e+003,5.515599e-003
3.883994e+003,5.498961e-003
3.885923e+003,5.533895e-003
3.887851e+003,5.483480e-003
3.889780e+003,5.470471e-003
3.891708e+003,5.504259e-003
3.893637e+003,5.548315e-003
3.895565e+003,5.472428e-003
3.897494e+003,5.487138e-003
3.899422e+003,5.572672e-003
3.901351e+003,5.571331e-003
3.903279e+003,5.559316e-003
3.905208e+003,5.535810e-003
3.907136e+003,5.505057e-003
3.909065e+003,5.543301e-003
3.910993e+003,5.554426e-003
3.912922e+003,5.509531e-003
3.914850e+003,5.518544e-003
3.916779e+003,5.589525e-003
3.918707e+003,5.501272e-003
3.920636e+003,5.329149e-003
3.922564e+003,5.476225e-003
3.924493e+003,5.582694e-003
3.926421e+003,5.573917e-003
3.928350e+003,5.529106e-003
3.930278e+003,5.461365e-003
3.932207e+003,5.385564e-003
3.934135e+003,5.484502e-003
3.936064e+003,5.507113e-003
3.937992e+003,5.483923e-003
3.939921e+003,5.376579e-003
3.941849e+003,5.391436e-003
3.943778e+003,5.432866e-003
3.945706e+003,5.501923e-003
3.947635e+003,5.513526e-003
3.949563e+003,5.479446e-003
3.951492e+003,5.391657e-003
3.953420e+003,5.408612e-003
3.955349e+003,5.531347e-003
3.957277e+003,5.576392e-003
3.959206e+003,5.499186e-003
3.961134e+003,5.502605e-003
3.963063e+003,5.542251e-003
3.964991e+003,5.554759e-003
3.966920e+003,5.553661e-003
3.968848e+003,5.468834e-003
3.970777e+003,5.433782e-003
3.972705e+003,5.495051e-003
3.974634e+003,5.489114e-003
3.976562e+003,5.474272e-003
3.978491e+003,5.524777e-003
3.980419e+003,5.548023e-003
3.982348e+003,5.573333e-003
3.984276e+003,5.633752e-003
3.986205e+003,5.565834e-003
3.988133e+003,5.420610e-003
3.990062e+003,5.445223e-003
3.991990e+003,5.513562e-003
3.993919e+003,5.478251e-003
3.995847e+003,5.553578e-003
3.997776e+003,5.554328e-003
3.999704e+003,5.554204e-003
4.001633e+003,0.000000e+000
