3.991989e+002,4.211207e-002
4.011274e+002,4.534237e-002
4.030559e+002,4.534237e-002
4.049844e+002,4.264936e-002
4.069129e+002,4.428193e-002
4.088414e+002,4.532501e-002
4.107699e+002,4.544216e-002
4.126984e+002,4.612875e-002
4.146269e+002,4.669234e-002
4.165554e+002,4.748449e-002
4.184839e+002,4.836362e-002
4.204124e+002,4.953537e-002
4.223409e+002,5.073952e-002
4.242694e+002,5.120047e-002
4.261979e+002,5.150323e-002
4.281264e+002,5.186957e-002
4.300549e+002,5.274277e-002
4.319834e+002,5.418342e-002
4.339119e+002,5.458844e-002
4.358404e+002,5.504259e-002
4.377689e+002,5.564388e-002
4.396974e+002,5.637408e-002
4.416259e+002,5.685009e-002
4.435544e+002,5.715304e-002
4.454829e+002,5.760126e-002
4.474114e+002,5.795584e-002
4.493399e+002,5.786697e-002
4.512684e+002,5.747493e-002
4.531969e+002,5.725409e-002
4.551254e+002,5.750102e-002
4.570539e+002,5.790913e-002
4.589824e+002,5.785153e-002
4.609109e+002,5.808705e-002
4.628394e+002,5.803891e-002
4.647679e+002,5.730368e-002
4.666964e+002,5.679641e-002
4.686249e+002,5.583939e-002
4.705533e+002,5.526644e-002
4.724819e+002,5.476705e-002
4.744103e+002,5.336478e-002
4.763389e+002,5.185625e-002
4.782673e+002,5.046092e-002
4.801959e+002,4.880647e-002
4.821243e+002,4.707606e-002
4.840529e+002,4.612183e-002
4.859813e+002,4.495842e-002
4.879099e+002,4.380528e-002
4.898383e+002,4.260359e-002
4.917668e+002,4.130863e-002
4.936953e+002,3.988576e-002
4.956238e+002,3.880498e-002
4.975523e+002,3.805698e-002
4.994808e+002,3.749166e-002
5.014093e+002,3.683813e-002
5.033378e+002,3.629664e-002
5.052663e+002,3.585818e-002
5.071948e+002,3.558972e-002
5.091233e+002,3.528434e-002
5.110518e+002,3.520132e-002
5.129803e+002,3.514667e-002
5.149088e+002,3.519554e-002
5.168373e+002,3.514632e-002
5.187658e+002,3.502350e-002
5.206943e+002,3.553827e-002
5.226228e+002,3.568093e-002
5.245513e+002,3.556155e-002
5.264798e+002,3.534322e-002
5.284083e+002,3.508131e-002
5.303368e+002,3.521658e-002
5.322653e+002,3.554703e-002
5.341938e+002,3.515975e-002
5.361223e+002,3.462909e-002
5.380508e+002,3.480671e-002
5.399792e+002,3.504364e-002
5.419078e+002,3.484300e-002
5.438363e+002,3.480036e-002
5.457648e+002,3.481982e-002
5.476932e+002,3.491459e-002
5.496218e+002,3.507728e-002
5.515503e+002,3.504757e-002
5.534788e+002,3.517474e-002
5.554072e+002,3.552015e-002
5.573358e+002,3.560265e-002
5.592643e+002,3.559774e-002
5.611927e+002,3.556078e-002
5.631212e+002,3.518995e-002
5.650497e+002,3.461133e-002
5.669783e+002,3.448009e-002
5.689067e+002,3.435265e-002
5.708352e+002,3.409641e-002
5.727637e+002,3.366927e-002
5.746923e+002,3.360414e-002
5.766207e+002,3.371344e-002
5.785492e+002,3.394238e-002
5.804777e+002,3.402224e-002
5.824063e+002,3.366849e-002
5.843347e+002,3.332381e-002
5.862632e+002,3.329950e-002
5.881917e+002,3.315481e-002
5.901202e+002,3.312134e-002
5.920487e+002,3.304717e-002
5.939772e+002,3.300358e-002
5.959057e+002,3.272884e-002
5.978342e+002,3.246238e-002
5.997627e+002,3.227589e-002
6.016912e+002,3.222168e-002
6.036197e+002,3.185996e-002
6.055482e+002,3.175482e-002
6.074767e+002,3.155756e-002
6.094052e+002,3.151515e-002
6.113337e+002,3.131280e-002
6.132622e+002,3.109842e-002
6.151907e+002,3.083921e-002
6.171192e+002,3.069483e-002
6.190477e+002,3.035176e-002
6.209762e+002,3.018086e-002
6.229047e+002,2.965100e-002
6.248332e+002,2.917853e-002
6.267617e+002,2.899680e-002
6.286902e+002,2.880178e-002
6.306187e+002,2.862126e-002
6.325472e+002,2.846779e-002
6.344756e+002,2.825152e-002
6.364042e+002,2.799197e-002
6.383326e+002,2.789349e-002
6.402612e+002,2.788207e-002
6.421896e+002,2.777809e-002
6.441182e+002,2.783853e-002
6.460466e+002,2.770048e-002
6.479752e+002,2.743450e-002
6.499036e+002,2.713359e-002
6.518322e+002,2.719577e-002
6.537606e+002,2.734225e-002
6.556891e+002,2.726904e-002
6.576177e+002,2.729115e-002
6.595461e+002,2.724890e-002
6.614746e+002,2.731290e-002
6.634031e+002,2.745913e-002
6.653317e+002,2.750240e-002
6.672601e+002,2.722189e-002
6.691886e+002,2.700070e-002
6.711171e+002,2.672775e-002
6.730457e+002,2.622539e-002
6.749741e+002,2.559737e-002
6.769026e+002,2.504095e-002
6.788311e+002,2.470577e-002
6.807596e+002,2.433506e-002
6.826881e+002,2.401689e-002
6.846166e+002,2.356765e-002
6.865451e+002,2.348321e-002
6.884736e+002,2.351834e-002
6.904021e+002,2.356744e-002
6.923306e+002,2.348061e-002
6.942591e+002,2.341367e-002
6.961876e+002,2.343515e-002
6.981161e+002,2.357285e-002
7.000446e+002,2.340215e-002
7.019731e+002,2.323465e-002
7.039016e+002,2.313066e-002
7.058301e+002,2.295996e-002
7.077585e+002,2.279168e-002
7.096871e+002,2.264704e-002
7.116156e+002,2.250522e-002
7.135441e+002,2.247579e-002
7.154725e+002,2.243587e-002
7.174011e+002,2.230723e-002
7.193296e+002,2.243621e-002
7.212581e+002,2.224404e-002
7.231865e+002,2.179793e-002
7.251151e+002,2.181642e-002
7.270436e+002,2.175791e-002
7.289720e+002,2.160960e-002
7.309005e+002,2.154544e-002
7.328290e+002,2.144225e-002
7.347576e+002,2.131908e-002
7.366860e+002,2.121833e-002
7.386145e+002,2.115685e-002
7.405430e+002,2.104847e-002
7.424716e+002,2.090099e-002
7.444000e+002,2.080202e-002
7.463285e+002,2.061165e-002
7.482570e+002,2.051366e-002
7.501855e+002,2.040666e-002
7.521140e+002,2.041056e-002
7.540425e+002,2.027975e-002
7.559710e+002,2.017308e-002
7.578995e+002,2.010593e-002
7.598280e+002,2.004944e-002
7.617565e+002,2.001752e-002
7.636850e+002,2.007290e-002
7.656135e+002,2.006259e-002
7.675420e+002,2.001831e-002
7.694705e+002,2.014366e-002
7.713990e+002,2.032955e-002
7.733275e+002,2.055666e-002
7.752560e+002,2.070607e-002
7.771844e+002,2.090914e-002
7.791130e+002,2.106948e-002
7.810415e+002,2.116396e-002
7.829700e+002,2.122738e-002
7.848984e+002,2.132938e-002
7.868270e+002,2.144838e-002
7.887555e+002,2.157623e-002
7.906840e+002,2.165545e-002
7.926124e+002,2.161916e-002
7.945410e+002,2.152532e-002
7.964695e+002,2.143856e-002
7.983979e+002,2.143902e-002
8.003264e+002,2.139641e-002
8.022549e+002,2.131928e-002
8.041835e+002,2.126900e-002
8.061119e+002,2.116358e-002
8.080404e+002,2.099106e-002
8.099689e+002,2.087559e-002
8.118975e+002,2.076925e-002
8.138259e+002,2.071837e-002
8.157545e+002,2.049733e-002
8.176830e+002,2.024838e-002
8.196115e+002,2.017670e-002
8.215399e+002,1.998712e-002
8.234684e+002,1.977481e-002
8.253970e+002,1.963272e-002
8.273254e+002,1.940468e-002
8.292539e+002,1.927934e-002
8.311824e+002,1.922739e-002
8.331110e+002,1.924574e-002
8.350394e+002,1.909860e-002
8.369679e+002,1.893735e-002
8.388964e+002,1.876911e-002
8.408250e+002,1.870992e-002
8.427534e+002,1.863935e-002
8.446819e+002,1.865471e-002
8.466104e+002,1.862856e-002
8.485389e+002,1.865540e-002
8.504674e+002,1.869611e-002
8.523959e+002,1.869158e-002
8.543244e+002,1.864797e-002
8.562529e+002,1.876797e-002
8.581814e+002,1.885014e-002
8.601099e+002,1.892874e-002
8.620384e+002,1.900700e-002
8.639669e+002,1.911574e-002
8.658954e+002,1.919113e-002
8.678239e+002,1.927498e-002
8.697524e+002,1.945787e-002
8.716809e+002,1.970400e-002
8.736094e+002,1.983803e-002
8.755378e+002,1.990497e-002
8.774664e+002,2.007165e-002
8.793949e+002,2.034445e-002
8.813234e+002,2.068737e-002
8.832518e+002,2.105251e-002
8.851804e+002,2.141190e-002
8.871089e+002,2.193100e-002
8.890374e+002,2.245330e-002
8.909658e+002,2.299715e-002
8.928943e+002,2.342082e-002
8.948229e+002,2.374630e-002
8.967513e+002,2.389579e-002
8.986798e+002,2.392475e-002
9.006083e+002,2.382263e-002
9.025369e+002,2.355162e-002
9.044653e+002,2.329998e-002
9.063938e+002,2.311592e-002
9.083223e+002,2.292268e-002
9.102509e+002,2.298730e-002
9.121793e+002,2.313426e-002
9.141078e+002,2.318536e-002
9.160364e+002,2.332941e-002
9.179648e+002,2.352927e-002
9.198933e+002,2.369780e-002
9.218218e+002,2.396382e-002
9.237504e+002,2.416418e-002
9.256788e+002,2.440616e-002
9.276073e+002,2.471327e-002
9.295358e+002,2.508037e-002
9.314644e+002,2.530162e-002
9.333928e+002,2.557161e-002
9.353213e+002,2.593638e-002
9.372498e+002,2.639067e-002
9.391783e+002,2.675827e-002
9.411068e+002,2.714421e-002
9.430353e+002,2.758511e-002
9.449637e+002,2.816697e-002
9.468923e+002,2.879518e-002
9.488208e+002,2.934775e-002
9.507493e+002,2.982904e-002
9.526777e+002,3.034885e-002
9.546063e+002,3.097364e-002
9.565348e+002,3.166162e-002
9.584633e+002,3.225186e-002
9.603917e+002,3.288079e-002
9.623203e+002,3.349033e-002
9.642488e+002,3.409640e-002
9.661772e+002,3.467718e-002
9.681057e+002,3.522205e-002
9.700343e+002,3.573174e-002
9.719628e+002,3.614760e-002
9.738912e+002,3.668693e-002
9.758197e+002,3.730163e-002
9.777483e+002,3.788929e-002
9.796768e+002,3.852300e-002
9.816052e+002,3.923629e-002
9.835337e+002,3.998312e-002
9.854623e+002,4.059905e-002
9.873907e+002,4.107004e-002
9.893192e+002,4.141471e-002
9.912477e+002,4.155361e-002
9.931763e+002,4.162643e-002
9.951047e+002,4.181818e-002
9.970332e+002,4.212989e-002
9.989617e+002,4.257023e-002
1.000890e+003,4.317568e-002
1.002819e+003,4.377571e-002
1.004747e+003,4.444336e-002
1.006676e+003,4.502621e-002
1.008604e+003,4.563289e-002
1.010533e+003,4.626809e-002
1.012461e+003,4.696181e-002
1.014390e+003,4.782119e-002
1.016318e+003,4.878962e-002
1.018247e+003,4.969917e-002
1.020175e+003,5.054686e-002
1.022104e+003,5.147069e-002
1.024032e+003,5.242226e-002
1.025961e+003,5.329143e-002
1.027889e+003,5.407542e-002
1.029818e+003,5.472881e-002
1.031746e+003,5.518769e-002
1.033675e+003,5.544869e-002
1.035603e+003,5.543924e-002
1.037532e+003,5.522389e-002
1.039460e+003,5.485354e-002
1.041389e+003,5.450547e-002
1.043317e+003,5.424421e-002
1.045246e+003,5.398420e-002
1.047174e+003,5.374193e-002
1.049103e+003,5.347760e-002
1.051031e+003,5.320898e-002
1.052960e+003,5.293671e-002
1.054888e+003,5.256277e-002
1.056817e+003,5.207695e-002
1.058745e+003,5.153445e-002
1.060674e+003,5.103726e-002
1.062602e+003,5.047971e-002
1.064531e+003,4.983160e-002
1.066459e+003,4.928580e-002
1.068388e+003,4.877445e-002
1.070316e+003,4.822506e-002
1.072245e+003,4.777621e-002
1.074173e+003,4.735587e-002
1.076102e+003,4.688998e-002
1.078030e+003,4.642764e-002
1.079959e+003,4.596801e-002
1.081887e+003,4.547933e-002
1.083816e+003,4.506719e-002
1.085744e+003,4.474672e-002
1.087673e+003,4.438504e-002
1.089601e+003,4.400089e-002
1.091530e+003,4.359789e-002
1.093458e+003,4.315361e-002
1.095387e+003,4.277937e-002
1.097315e+003,4.241841e-002
1.099244e+003,4.202169e-002
1.101172e+003,4.173183e-002
1.103101e+003,4.134033e-002
1.105029e+003,4.083155e-002
1.106958e+003,4.024092e-002
1.108886e+003,3.954173e-002
1.110815e+003,3.867934e-002
1.112743e+003,3.776880e-002
1.114672e+003,3.685152e-002
1.116600e+003,3.602166e-002
1.118529e+003,3.521386e-002
1.120457e+003,3.446399e-002
1.122386e+003,3.370151e-002
1.124314e+003,3.293143e-002
1.126243e+003,3.219583e-002
1.128171e+003,3.147337e-002
1.130100e+003,3.075308e-002
1.132028e+003,3.002740e-002
1.133957e+003,2.932144e-002
1.135885e+003,2.878399e-002
1.137814e+003,2.838552e-002
1.139742e+003,2.800077e-002
1.141671e+003,2.772177e-002
1.143599e+003,2.762116e-002
1.145528e+003,2.760280e-002
1.147456e+003,2.761505e-002
1.149385e+003,2.768155e-002
1.151313e+003,2.779602e-002
1.153242e+003,2.788727e-002
1.155170e+003,2.798013e-002
1.157099e+003,2.806428e-002
1.159027e+003,2.810380e-002
1.160956e+003,2.803353e-002
1.162884e+003,2.782993e-002
1.164813e+003,2.753131e-002
1.166741e+003,2.704695e-002
1.168670e+003,2.640436e-002
1.170598e+003,2.574536e-002
1.172526e+003,2.506226e-002
1.174455e+003,2.437094e-002
1.176384e+003,2.371809e-002
1.178312e+003,2.310934e-002
1.180240e+003,2.258664e-002
1.182169e+003,2.210385e-002
1.184098e+003,2.174605e-002
1.186026e+003,2.145161e-002
1.187954e+003,2.118983e-002
1.189883e+003,2.101528e-002
1.191812e+003,2.090848e-002
1.193740e+003,2.081733e-002
1.195668e+003,2.077414e-002
1.197597e+003,2.077415e-002
1.199526e+003,2.075718e-002
1.201454e+003,2.064619e-002
1.203382e+003,2.047904e-002
1.205311e+003,2.033766e-002
1.207240e+003,2.021977e-002
1.209168e+003,2.005313e-002
1.211096e+003,1.986450e-002
1.213025e+003,1.969855e-002
1.214953e+003,1.965380e-002
1.216882e+003,1.964843e-002
1.218810e+003,1.960146e-002
1.220739e+003,1.955355e-002
1.222667e+003,1.959335e-002
1.224596e+003,1.958695e-002
1.226524e+003,1.956846e-002
1.228453e+003,1.959590e-002
1.230381e+003,1.959532e-002
1.232310e+003,1.953400e-002
1.234238e+003,1.945591e-002
1.236167e+003,1.933052e-002
1.238095e+003,1.917452e-002
1.240024e+003,1.894253e-002
1.241952e+003,1.873827e-002
1.243881e+003,1.856937e-002
1.245809e+003,1.831803e-002
1.247738e+003,1.799244e-002
1.249666e+003,1.765984e-002
1.251595e+003,1.729074e-002
1.253523e+003,1.688896e-002
1.255452e+003,1.655451e-002
1.257380e+003,1.622226e-002
1.259309e+003,1.589387e-002
1.261237e+003,1.559344e-002
1.263166e+003,1.528760e-002
1.265094e+003,1.497554e-002
1.267023e+003,1.467697e-002
1.268951e+003,1.441875e-002
1.270880e+003,1.414428e-002
1.272808e+003,1.391086e-002
1.274737e+003,1.369650e-002
1.276665e+003,1.351403e-002
1.278594e+003,1.333919e-002
1.280522e+003,1.322349e-002
1.282451e+003,1.311520e-002
1.284379e+003,1.303570e-002
1.286308e+003,1.293615e-002
1.288236e+003,1.286021e-002
1.290165e+003,1.283503e-002
1.292093e+003,1.285040e-002
1.294022e+003,1.282332e-002
1.295950e+003,1.290588e-002
1.297879e+003,1.299549e-002
1.299807e+003,1.300265e-002
1.301736e+003,1.308403e-002
1.303664e+003,1.325257e-002
1.305593e+003,1.337743e-002
1.307521e+003,1.354469e-002
1.309450e+003,1.370921e-002
1.311378e+003,1.382068e-002
1.313307e+003,1.389462e-002
1.315235e+003,1.398494e-002
1.317164e+003,1.399844e-002
1.319092e+003,1.396173e-002
1.321021e+003,1.387374e-002
1.322949e+003,1.376749e-002
1.324878e+003,1.368149e-002
1.326806e+003,1.362533e-002
1.328735e+003,1.361625e-002
1.330663e+003,1.357932e-002
1.332592e+003,1.355851e-002
1.334520e+003,1.359624e-002
1.336449e+003,1.360697e-002
1.338377e+003,1.353029e-002
1.340306e+003,1.346192e-002
1.342234e+003,1.345738e-002
1.344163e+003,1.346510e-002
1.346091e+003,1.351860e-002
1.348020e+003,1.356694e-002
1.349948e+003,1.363493e-002
1.351877e+003,1.373878e-002
1.353805e+003,1.387268e-002
1.355734e+003,1.398874e-002
1.357662e+003,1.408491e-002
1.359591e+003,1.420471e-002
1.361519e+003,1.428734e-002
1.363448e+003,1.438533e-002
1.365376e+003,1.447166e-002
1.367305e+003,1.450030e-002
1.369233e+003,1.451997e-002
1.371162e+003,1.447929e-002
1.373090e+003,1.437021e-002
1.375019e+003,1.427444e-002
1.376947e+003,1.415663e-002
1.378876e+003,1.397128e-002
1.380804e+003,1.378051e-002
1.382733e+003,1.359410e-002
1.384661e+003,1.337110e-002
1.386590e+003,1.315891e-002
1.388518e+003,1.302832e-002
1.390447e+003,1.291182e-002
1.392375e+003,1.280017e-002
1.394304e+003,1.274071e-002
1.396232e+003,1.271985e-002
1.398161e+003,1.270063e-002
1.400089e+003,1.270437e-002
1.402018e+003,1.271609e-002
1.403946e+003,1.274115e-002
1.405875e+003,1.279409e-002
1.407803e+003,1.284415e-002
1.409732e+003,1.293848e-002
1.411660e+003,1.300689e-002
1.413589e+003,1.307454e-002
1.415517e+003,1.316346e-002
1.417446e+003,1.324118e-002
1.419374e+003,1.331445e-002
1.421303e+003,1.336631e-002
1.423231e+003,1.341131e-002
1.425160e+003,1.340579e-002
1.427088e+003,1.336786e-002
1.429017e+003,1.331560e-002
1.430945e+003,1.323215e-002
1.432874e+003,1.315802e-002
1.434802e+003,1.307147e-002
1.436731e+003,1.294144e-002
1.438659e+003,1.283750e-002
1.440588e+003,1.278088e-002
1.442516e+003,1.271648e-002
1.444445e+003,1.267690e-002
1.446373e+003,1.267727e-002
1.448302e+003,1.269489e-002
1.450230e+003,1.270405e-002
1.452159e+003,1.269116e-002
1.454087e+003,1.267988e-002
1.456016e+003,1.264594e-002
1.457944e+003,1.256574e-002
1.459873e+003,1.250294e-002
1.461801e+003,1.246573e-002
1.463730e+003,1.243392e-002
1.465658e+003,1.229142e-002
1.467587e+003,1.203004e-002
1.469515e+003,1.174665e-002
1.471444e+003,1.144386e-002
1.473372e+003,1.115901e-002
1.475301e+003,1.091879e-002
1.477229e+003,1.076895e-002
1.479158e+003,1.065009e-002
1.481086e+003,1.061350e-002
1.483015e+003,1.059796e-002
1.484943e+003,1.061281e-002
1.486872e+003,1.067054e-002
1.488800e+003,1.075259e-002
1.490729e+003,1.086426e-002
1.492657e+003,1.100161e-002
1.494586e+003,1.114798e-002
1.496514e+003,1.126176e-002
1.498443e+003,1.138359e-002
1.500371e+003,1.152422e-002
1.502300e+003,1.157776e-002
1.504228e+003,1.161834e-002
1.506157e+003,1.169903e-002
1.508085e+003,1.182709e-002
1.510014e+003,1.192868e-002
1.511942e+003,1.203703e-002
1.513871e+003,1.212304e-002
1.515799e+003,1.211140e-002
1.517728e+003,1.201955e-002
1.519656e+003,1.188382e-002
1.521585e+003,1.173202e-002
1.523513e+003,1.165206e-002
1.525442e+003,1.158086e-002
1.527370e+003,1.151595e-002
1.529299e+003,1.149569e-002
1.531227e+003,1.147552e-002
1.533156e+003,1.142779e-002
1.535084e+003,1.140319e-002
1.537013e+003,1.139044e-002
1.538941e+003,1.136199e-002
1.540870e+003,1.131045e-002
1.542798e+003,1.128917e-002
1.544727e+003,1.126325e-002
1.546655e+003,1.123273e-002
1.548584e+003,1.119344e-002
1.550512e+003,1.117334e-002
1.552441e+003,1.113876e-002
1.554369e+003,1.109427e-002
1.556298e+003,1.110181e-002
1.558226e+003,1.107777e-002
1.560155e+003,1.103231e-002
1.562083e+003,1.101470e-002
1.564012e+003,1.101918e-002
1.565940e+003,1.103654e-002
1.567869e+003,1.110346e-002
1.569797e+003,1.115969e-002
1.571726e+003,1.112991e-002
1.573654e+003,1.115098e-002
1.575583e+003,1.121626e-002
1.577511e+003,1.128768e-002
1.579440e+003,1.139268e-002
1.581368e+003,1.151359e-002
1.583297e+003,1.160910e-002
1.585225e+003,1.169602e-002
1.587154e+003,1.179342e-002
1.589082e+003,1.191535e-002
1.591010e+003,1.201248e-002
1.592939e+003,1.207884e-002
1.594868e+003,1.212182e-002
1.596796e+003,1.214173e-002
1.598724e+003,1.217410e-002
1.600653e+003,1.220971e-002
1.602582e+003,1.222314e-002
1.604510e+003,1.226815e-002
1.606438e+003,1.232715e-002
1.608367e+003,1.236101e-002
1.610296e+003,1.244059e-002
1.612224e+003,1.255240e-002
1.614152e+003,1.264872e-002
1.616081e+003,1.274362e-002
1.618010e+003,1.287159e-002
1.619938e+003,1.297650e-002
1.621866e+003,1.305498e-002
1.623795e+003,1.313862e-002
1.625724e+003,1.318619e-002
1.627652e+003,1.312127e-002
1.629580e+003,1.304255e-002
1.631509e+003,1.299765e-002
1.633438e+003,1.297196e-002
1.635366e+003,1.290023e-002
1.637294e+003,1.283160e-002
1.639223e+003,1.279138e-002
1.641151e+003,1.272312e-002
1.643080e+003,1.272705e-002
1.645008e+003,1.274317e-002
1.646937e+003,1.275922e-002
1.648865e+003,1.271511e-002
1.650794e+003,1.263171e-002
1.652722e+003,1.257544e-002
1.654651e+003,1.251944e-002
1.656579e+003,1.240361e-002
1.658508e+003,1.227040e-002
1.660436e+003,1.207902e-002
1.662365e+003,1.184368e-002
1.664293e+003,1.161334e-002
1.666222e+003,1.139672e-002
1.668150e+003,1.122430e-002
1.670079e+003,1.109443e-002
1.672007e+003,1.095587e-002
1.673936e+003,1.081519e-002
1.675864e+003,1.068842e-002
1.677793e+003,1.060893e-002
1.679721e+003,1.054874e-002
1.681650e+003,1.043240e-002
1.683578e+003,1.030986e-002
1.685507e+003,1.020804e-002
1.687435e+003,1.013962e-002
1.689364e+003,1.011285e-002
1.691292e+003,1.004988e-002
1.693221e+003,1.000111e-002
1.695149e+003,9.940934e-003
1.697078e+003,9.943209e-003
1.699006e+003,9.945623e-003
1.700935e+003,9.926234e-003
1.702863e+003,9.927538e-003
1.704792e+003,9.998585e-003
1.706720e+003,1.006300e-002
1.708649e+003,1.018075e-002
1.710577e+003,1.029078e-002
1.712506e+003,1.038167e-002
1.714434e+003,1.048035e-002
1.716363e+003,1.062417e-002
1.718291e+003,1.070954e-002
1.720220e+003,1.076181e-002
1.722148e+003,1.088157e-002
1.724077e+003,1.098735e-002
1.726005e+003,1.106182e-002
1.727934e+003,1.114260e-002
1.729862e+003,1.121956e-002
1.731791e+003,1.123716e-002
1.733719e+003,1.115849e-002
1.735648e+003,1.100309e-002
1.737576e+003,1.081445e-002
1.739505e+003,1.054835e-002
1.741433e+003,1.022505e-002
1.743362e+003,9.876122e-003
1.745290e+003,9.601355e-003
1.747219e+003,9.385259e-003
1.749147e+003,9.183433e-003
1.751076e+003,8.932067e-003
1.753004e+003,8.804596e-003
1.754933e+003,8.704208e-003
1.756861e+003,8.569048e-003
1.758790e+003,8.502943e-003
1.760718e+003,8.429777e-003
1.762647e+003,8.299241e-003
1.764575e+003,8.237413e-003
1.766504e+003,8.191640e-003
1.768432e+003,8.157872e-003
1.770361e+003,8.126643e-003
1.772289e+003,8.077866e-003
1.774218e+003,8.039648e-003
1.776146e+003,7.982516e-003
1.778075e+003,8.013419e-003
1.780003e+003,8.076767e-003
1.781932e+003,8.022536e-003
1.783860e+003,7.956067e-003
1.785789e+003,7.968925e-003
1.787717e+003,8.012244e-003
1.789646e+003,7.976244e-003
1.791574e+003,7.982367e-003
1.793503e+003,7.982071e-003
1.795431e+003,7.922822e-003
1.797360e+003,7.951063e-003
1.799288e+003,8.034690e-003
1.801217e+003,8.013808e-003
1.803145e+003,8.031347e-003
1.805074e+003,8.068738e-003
1.807002e+003,8.014228e-003
1.808931e+003,8.018962e-003
1.810859e+003,8.054994e-003
1.812788e+003,8.094982e-003
1.814716e+003,8.097206e-003
1.816645e+003,8.086426e-003
1.818573e+003,8.028683e-003
1.820502e+003,7.953209e-003
1.822430e+003,8.006944e-003
1.824359e+003,8.045887e-003
1.826287e+003,8.061641e-003
1.828216e+003,8.057879e-003
1.830144e+003,8.025852e-003
1.832073e+003,8.013538e-003
1.834001e+003,8.179703e-003
1.835930e+003,8.259707e-003
1.837858e+003,8.183702e-003
1.839787e+003,8.082327e-003
1.841715e+003,8.050199e-003
1.843644e+003,8.036349e-003
1.845572e+003,8.036625e-003
1.847501e+003,8.005995e-003
1.849429e+003,8.048001e-003
1.851358e+003,8.022379e-003
1.853286e+003,8.010510e-003
1.855215e+003,8.103378e-003
1.857143e+003,8.139109e-003
1.859072e+003,8.157603e-003
1.861000e+003,8.145291e-003
1.862929e+003,8.038393e-003
1.864857e+003,7.955910e-003
1.866786e+003,8.067874e-003
1.868714e+003,8.121747e-003
1.870643e+003,8.171223e-003
1.872571e+003,8.163446e-003
1.874500e+003,8.102324e-003
1.876428e+003,8.095580e-003
1.878357e+003,8.000219e-003
1.880285e+003,7.933423e-003
1.882214e+003,8.115731e-003
1.884142e+003,8.220176e-003
1.886071e+003,7.996734e-003
1.887999e+003,8.073154e-003
1.889928e+003,8.228320e-003
1.891856e+003,8.134946e-003
1.893785e+003,7.985530e-003
1.895713e+003,8.024379e-003
1.897642e+003,8.007689e-003
1.899570e+003,8.159672e-003
1.901499e+003,8.299315e-003
1.903427e+003,8.061678e-003
1.905356e+003,7.948963e-003
1.907284e+003,7.986070e-003
1.909213e+003,8.064339e-003
1.911141e+003,8.183932e-003
1.913070e+003,8.267178e-003
1.914998e+003,8.202664e-003
1.916927e+003,8.248555e-003
1.918855e+003,8.204763e-003
1.920784e+003,7.996259e-003
1.922712e+003,8.123201e-003
1.924641e+003,8.160552e-003
1.926569e+003,7.956173e-003
1.928498e+003,7.696355e-003
1.930426e+003,7.579360e-003
1.932355e+003,7.886169e-003
1.934283e+003,8.049630e-003
1.936212e+003,8.003300e-003
1.938140e+003,8.113601e-003
1.940069e+003,7.828855e-003
1.941997e+003,7.635093e-003
1.943926e+003,7.906045e-003
1.945854e+003,7.839214e-003
1.947783e+003,7.374714e-003
1.949711e+003,6.973674e-003
1.951640e+003,7.405678e-003
1.953568e+003,7.575868e-003
1.955497e+003,7.338361e-003
1.957425e+003,7.157786e-003
1.959354e+003,7.025583e-003
1.961282e+003,6.991845e-003
1.963211e+003,6.732753e-003
1.965139e+003,6.454592e-003
1.967068e+003,6.403768e-003
1.968996e+003,6.599672e-003
1.970925e+003,6.641333e-003
1.972853e+003,5.498838e-003
1.974782e+003,5.369339e-003
1.976710e+003,5.420619e-003
1.978639e+003,4.978951e-003
1.980567e+003,5.264977e-003
1.982496e+003,6.133001e-003
1.984424e+003,6.183122e-003
1.986353e+003,6.034971e-003
1.988281e+003,5.972167e-003
1.990210e+003,5.742011e-003
1.992138e+003,5.313313e-003
1.994067e+003,5.527985e-003
1.995995e+003,5.382950e-003
1.997924e+003,5.764142e-003
1.999852e+003,5.926096e-003
2.001781e+003,5.681564e-003
2.003709e+003,4.658240e-003
2.005638e+003,4.088706e-003
2.007566e+003,4.306476e-003
2.009495e+003,4.318522e-003
2.011423e+003,4.933249e-003
2.013352e+003,4.834430e-003
2.015280e+003,4.187824e-003
2.017208e+003,4.085788e-003
2.019137e+003,3.853768e-003
2.021066e+003,3.802773e-003
2.022994e+003,3.834460e-003
2.024922e+003,3.771089e-003
2.026851e+003,3.367335e-003
2.028780e+003,2.752761e-003
2.030708e+003,3.451358e-003
2.032636e+003,3.804679e-003
2.034565e+003,3.380733e-003
2.036494e+003,3.065613e-003
2.038422e+003,3.112279e-003
2.040350e+003,4.032310e-003
2.042279e+003,4.651459e-003
2.044208e+003,4.394437e-003
2.046136e+003,4.376009e-003
2.048064e+003,4.637028e-003
2.049993e+003,4.898663e-003
2.051921e+003,5.268012e-003
2.053850e+003,5.401544e-003
2.055778e+003,5.683371e-003
2.057707e+003,6.177634e-003
2.059635e+003,6.061784e-003
2.061564e+003,5.902623e-003
2.063492e+003,5.533027e-003
2.065421e+003,5.932076e-003
2.067349e+003,6.140781e-003
2.069278e+003,6.037229e-003
2.071206e+003,6.105189e-003
2.073135e+003,6.461501e-003
2.075063e+003,6.559227e-003
2.076992e+003,6.441095e-003
2.078920e+003,6.240128e-003
2.080849e+003,6.313406e-003
2.082777e+003,6.469537e-003
2.084706e+003,6.308075e-003
2.086634e+003,6.323740e-003
2.088563e+003,6.494325e-003
2.090491e+003,6.392788e-003
2.092420e+003,6.310320e-003
2.094348e+003,6.154041e-003
2.096277e+003,6.395967e-003
2.098205e+003,6.378359e-003
2.100134e+003,6.230539e-003
2.102062e+003,6.246236e-003
2.103991e+003,6.429000e-003
2.105919e+003,6.677348e-003
2.107848e+003,6.679132e-003
2.109776e+003,6.703762e-003
2.111705e+003,6.744951e-003
2.113633e+003,6.737985e-003
2.115562e+003,6.680007e-003
2.117490e+003,6.642760e-003
2.119419e+003,6.515467e-003
2.121347e+003,6.488325e-003
2.123276e+003,6.438080e-003
2.125204e+003,6.216589e-003
2.127133e+003,6.525221e-003
2.129061e+003,6.346249e-003
2.130990e+003,6.112137e-003
2.132918e+003,6.042348e-003
2.134847e+003,5.658858e-003
2.136775e+003,5.247670e-003
2.138704e+003,4.888505e-003
2.140632e+003,4.641245e-003
2.142561e+003,4.468906e-003
2.144489e+003,4.107039e-003
2.146418e+003,4.182707e-003
2.148346e+003,3.983062e-003
2.150275e+003,3.163168e-003
2.152203e+003,1.879880e-003
2.154132e+003,1.290598e-003
2.156060e+003,1.274846e-003
2.157989e+003,-8.325786e-005
2.159917e+003,-7.359789e-004
2.161846e+003,3.966962e-004
2.163774e+003,1.578388e-003
2.165703e+003,1.532965e-003
2.167631e+003,2.341089e-003
2.169560e+003,2.606842e-003
2.171488e+003,2.586943e-003
2.173417e+003,2.767806e-003
2.175345e+003,2.646578e-003
2.177274e+003,3.074196e-003
2.179202e+003,3.256131e-003
2.181131e+003,3.401106e-003
2.183059e+003,2.480227e-003
2.184988e+003,2.432676e-003
2.186916e+003,3.032553e-003
2.188845e+003,3.542421e-003
2.190773e+003,3.950994e-003
2.192702e+003,4.111220e-003
2.194630e+003,4.858214e-003
2.196559e+003,4.777437e-003
2.198487e+003,4.340675e-003
2.200416e+003,4.410024e-003
2.202344e+003,4.891186e-003
2.204273e+003,4.921848e-003
2.206201e+003,4.541020e-003
2.208130e+003,5.025009e-003
2.210058e+003,5.038987e-003
2.211987e+003,4.615090e-003
2.213915e+003,4.891320e-003
2.215844e+003,5.949257e-003
2.217772e+003,6.293702e-003
2.219701e+003,6.147758e-003
2.221629e+003,6.007138e-003
2.223558e+003,5.781838e-003
2.225486e+003,5.646069e-003
2.227415e+003,5.754069e-003
2.229343e+003,5.996757e-003
2.231272e+003,6.237751e-003
2.233200e+003,6.125202e-003
2.235129e+003,6.406638e-003
2.237057e+003,6.431559e-003
2.238986e+003,6.453200e-003
2.240914e+003,6.714196e-003
2.242843e+003,6.827444e-003
2.244771e+003,6.831970e-003
2.246700e+003,6.849566e-003
2.248628e+003,6.856040e-003
2.250557e+003,6.825356e-003
2.252485e+003,6.919505e-003
2.254414e+003,7.013703e-003
2.256342e+003,7.152488e-003
2.258271e+003,7.131890e-003
2.260199e+003,7.154627e-003
2.262128e+003,7.116058e-003
2.264056e+003,7.150419e-003
2.265985e+003,6.965340e-003
2.267913e+003,6.909280e-003
2.269842e+003,7.201639e-003
2.271770e+003,7.351584e-003
2.273699e+003,7.337129e-003
2.275627e+003,7.366074e-003
2.277556e+003,7.334501e-003
2.279484e+003,7.415217e-003
2.281413e+003,7.576068e-003
2.283341e+003,7.649580e-003
2.285270e+003,7.608737e-003
2.287198e+003,7.434765e-003
2.289127e+003,7.452024e-003
2.291055e+003,7.553269e-003
2.292984e+003,7.740758e-003
2.294912e+003,7.871949e-003
2.296841e+003,7.803675e-003
2.298769e+003,7.875928e-003
2.300698e+003,7.969118e-003
2.302626e+003,7.855848e-003
2.304555e+003,7.872455e-003
2.306483e+003,8.081906e-003
2.308412e+003,8.096562e-003
2.310340e+003,8.251206e-003
2.312269e+003,8.150276e-003
2.314197e+003,8.043620e-003
2.316125e+003,8.195150e-003
2.318054e+003,8.279749e-003
2.319983e+003,8.143574e-003
2.321911e+003,8.139255e-003
2.323840e+003,8.419420e-003
2.325768e+003,8.684824e-003
2.327697e+003,8.864132e-003
2.329625e+003,9.062838e-003
2.331553e+003,8.894678e-003
2.333482e+003,8.746429e-003
2.335411e+003,8.760246e-003
2.337339e+003,8.553510e-003
2.339268e+003,8.443094e-003
2.341196e+003,8.339931e-003
2.343125e+003,8.384022e-003
2.345053e+003,8.290737e-003
2.346981e+003,8.324776e-003
2.348910e+003,8.190020e-003
2.350839e+003,8.230077e-003
2.352767e+003,8.202946e-003
2.354696e+003,8.183719e-003
2.356624e+003,8.157669e-003
2.358552e+003,8.003553e-003
2.360481e+003,8.169793e-003
2.362409e+003,8.386691e-003
2.364338e+003,7.940756e-003
2.366267e+003,7.786203e-003
2.368195e+003,8.169913e-003
2.370124e+003,8.034021e-003
2.372052e+003,8.232094e-003
2.373980e+003,8.409781e-003
2.375909e+003,8.485521e-003
2.377838e+003,8.479985e-003
2.379766e+003,8.489994e-003
2.381695e+003,8.424303e-003
2.383623e+003,8.360083e-003
2.385552e+003,8.261036e-003
2.387480e+003,8.194370e-003
2.389408e+003,8.220118e-003
2.391337e+003,8.217482e-003
2.393266e+003,8.191882e-003
2.395194e+003,8.209418e-003
2.397123e+003,8.165262e-003
2.399051e+003,8.161331e-003
2.400979e+003,8.109420e-003
2.402908e+003,8.101452e-003
2.404836e+003,8.197032e-003
2.406765e+003,8.206789e-003
2.408694e+003,8.217933e-003
2.410622e+003,8.228198e-003
2.412551e+003,8.227996e-003
2.414479e+003,8.146555e-003
2.416407e+003,8.065738e-003
2.418336e+003,8.028339e-003
2.420264e+003,8.144259e-003
2.422193e+003,8.228266e-003
2.424122e+003,8.244711e-003
2.426050e+003,8.173632e-003
2.427979e+003,8.148614e-003
2.429907e+003,8.033773e-003
2.431835e+003,7.969513e-003
2.433764e+003,8.057738e-003
2.435692e+003,8.079004e-003
2.437621e+003,7.869024e-003
2.439550e+003,7.771729e-003
2.441478e+003,7.849961e-003
2.443406e+003,7.910660e-003
2.445335e+003,7.964079e-003
2.447263e+003,8.016357e-003
2.449192e+003,8.004578e-003
2.451121e+003,7.995971e-003
2.453049e+003,7.991382e-003
2.454978e+003,8.033166e-003
2.456906e+003,8.050278e-003
2.458834e+003,8.068304e-003
2.460763e+003,8.028035e-003
2.462691e+003,7.993103e-003
2.464620e+003,7.973630e-003
2.466549e+003,7.994588e-003
2.468477e+003,7.943933e-003
2.470406e+003,8.018078e-003
2.472334e+003,8.030026e-003
2.474262e+003,8.034347e-003
2.476191e+003,8.014635e-003
2.478119e+003,8.080252e-003
2.480048e+003,8.050481e-003
2.481977e+003,7.976127e-003
2.483905e+003,8.113369e-003
2.485833e+003,8.252444e-003
2.487762e+003,8.145441e-003
2.489690e+003,7.992529e-003
2.491619e+003,7.998031e-003
2.493547e+003,8.077181e-003
2.495476e+003,8.222627e-003
2.497405e+003,8.220296e-003
2.499333e+003,8.224281e-003
2.501261e+003,8.126704e-003
2.503190e+003,8.032017e-003
2.505118e+003,8.046160e-003
2.507047e+003,8.192169e-003
2.508975e+003,8.156583e-003
2.510904e+003,8.159520e-003
2.512833e+003,8.168062e-003
2.514761e+003,8.191258e-003
2.516689e+003,8.147669e-003
2.518618e+003,8.063071e-003
2.520546e+003,7.995499e-003
2.522475e+003,7.937757e-003
2.524403e+003,7.950007e-003
2.526332e+003,8.079105e-003
2.528260e+003,8.154827e-003
2.530189e+003,8.183559e-003
2.532117e+003,8.191596e-003
2.534046e+003,8.224078e-003
2.535974e+003,8.191460e-003
2.537903e+003,8.166509e-003
2.539831e+003,8.071747e-003
2.541760e+003,8.011395e-003
2.543688e+003,7.984800e-003
2.545617e+003,8.014805e-003
2.547545e+003,8.067695e-003
2.549474e+003,8.066548e-003
2.551402e+003,8.089164e-003
2.553331e+003,8.118163e-003
2.555259e+003,8.180250e-003
2.557188e+003,8.204697e-003
2.559116e+003,8.051730e-003
2.561045e+003,8.024390e-003
2.562973e+003,8.066041e-003
2.564902e+003,8.137642e-003
2.566830e+003,8.152902e-003
2.568759e+003,8.166981e-003
2.570687e+003,8.222829e-003
2.572616e+003,8.205237e-003
2.574544e+003,8.166576e-003
2.576473e+003,8.141997e-003
2.578401e+003,8.197977e-003
2.580330e+003,8.205574e-003
2.582258e+003,8.263757e-003
2.584187e+003,8.336606e-003
2.586115e+003,8.327082e-003
2.588044e+003,8.246298e-003
2.589972e+003,8.304791e-003
2.591901e+003,8.418014e-003
2.593829e+003,8.410042e-003
2.595758e+003,8.355893e-003
2.597686e+003,8.386530e-003
2.599615e+003,8.428082e-003
2.601543e+003,8.438183e-003
2.603472e+003,8.537250e-003
2.605400e+003,8.514542e-003
2.607329e+003,8.487342e-003
2.609257e+003,8.545326e-003
2.611186e+003,8.560398e-003
2.613114e+003,8.567663e-003
2.615043e+003,8.567461e-003
2.616971e+003,8.607171e-003
2.618900e+003,8.614335e-003
2.620828e+003,8.651346e-003
2.622757e+003,8.763882e-003
2.624685e+003,8.797423e-003
2.626614e+003,8.762970e-003
2.628542e+003,8.763206e-003
2.630471e+003,8.784000e-003
2.632399e+003,8.799959e-003
2.634328e+003,8.857477e-003
2.636256e+003,8.938578e-003
2.638185e+003,8.975480e-003
2.640113e+003,8.953764e-003
2.642042e+003,8.978220e-003
2.643970e+003,9.044862e-003
2.645899e+003,9.070643e-003
2.647827e+003,9.093583e-003
2.649756e+003,9.104274e-003
2.651684e+003,9.140007e-003
2.653613e+003,9.177468e-003
2.655541e+003,9.192866e-003
2.657470e+003,9.245495e-003
2.659398e+003,9.246781e-003
2.661327e+003,9.218486e-003
2.663255e+003,9.259576e-003
2.665184e+003,9.282864e-003
2.667112e+003,9.279039e-003
2.669041e+003,9.313330e-003
2.670969e+003,9.327481e-003
2.672898e+003,9.284251e-003
2.674826e+003,9.269121e-003
2.676755e+003,9.255277e-003
2.678683e+003,9.233411e-003
2.680612e+003,9.285775e-003
2.682540e+003,9.333167e-003
2.684469e+003,9.339871e-003
2.686397e+003,9.326972e-003
2.688326e+003,9.298807e-003
2.690254e+003,9.294373e-003
2.692183e+003,9.289871e-003
2.694111e+003,9.291868e-003
2.696040e+003,9.280832e-003
2.697968e+003,9.360353e-003
2.699897e+003,9.412393e-003
2.701825e+003,9.345118e-003
2.703754e+003,9.342376e-003
2.705682e+003,9.357915e-003
2.707611e+003,9.364890e-003
2.709539e+003,9.359540e-003
2.711468e+003,9.360590e-003
2.713396e+003,9.349689e-003
2.715325e+003,9.407415e-003
2.717253e+003,9.442259e-003
2.719182e+003,9.401930e-003
2.721110e+003,9.337535e-003
2.723039e+003,9.384324e-003
2.724967e+003,9.418657e-003
2.726896e+003,9.400813e-003
2.728824e+003,9.373320e-003
2.730753e+003,9.420655e-003
2.732681e+003,9.416016e-003
2.734610e+003,9.443748e-003
2.736538e+003,9.451468e-003
2.738467e+003,9.423770e-003
2.740395e+003,9.451096e-003
2.742324e+003,9.491700e-003
2.744252e+003,9.513206e-003
2.746181e+003,9.507515e-003
2.748109e+003,9.493088e-003
2.750038e+003,9.507685e-003
2.751966e+003,9.516017e-003
2.753895e+003,9.482827e-003
2.755823e+003,9.541994e-003
2.757752e+003,9.600323e-003
2.759680e+003,9.581048e-003
2.761609e+003,9.544839e-003
2.763537e+003,9.576543e-003
2.765466e+003,9.599611e-003
2.767394e+003,9.611467e-003
2.769323e+003,9.588873e-003
2.771251e+003,9.606319e-003
2.773180e+003,9.668924e-003
2.775108e+003,9.724152e-003
2.777037e+003,9.698739e-003
2.778965e+003,9.662114e-003
2.780894e+003,9.679427e-003
2.782822e+003,9.703889e-003
2.784750e+003,9.686203e-003
2.786679e+003,9.726862e-003
2.788608e+003,9.740552e-003
2.790536e+003,9.757190e-003
2.792465e+003,9.797416e-003
2.794393e+003,9.828698e-003
2.796322e+003,9.789113e-003
2.798250e+003,9.810464e-003
2.800178e+003,9.867642e-003
2.802107e+003,9.905369e-003
2.804036e+003,9.924997e-003
2.805964e+003,9.868761e-003
2.807893e+003,9.860693e-003
2.809821e+003,9.911980e-003
2.811750e+003,9.962967e-003
2.813678e+003,1.000202e-002
2.815606e+003,1.000287e-002
2.817535e+003,1.003502e-002
2.819464e+003,1.006618e-002
2.821392e+003,1.010901e-002
2.823321e+003,1.016440e-002
2.825249e+003,1.016881e-002
2.827177e+003,1.018665e-002
2.829106e+003,1.025059e-002
2.831034e+003,1.028062e-002
2.832963e+003,1.035764e-002
2.834892e+003,1.046604e-002
2.836820e+003,1.048681e-002
2.838749e+003,1.056238e-002
2.840677e+003,1.064869e-002
2.842605e+003,1.073753e-002
2.844534e+003,1.090102e-002
2.846462e+003,1.109935e-002
2.848391e+003,1.128421e-002
2.850320e+003,1.133467e-002
2.852248e+003,1.134379e-002
2.854177e+003,1.135518e-002
2.856105e+003,1.136382e-002
2.858033e+003,1.134008e-002
2.859962e+003,1.129431e-002
2.861890e+003,1.124721e-002
2.863819e+003,1.124401e-002
2.865748e+003,1.124656e-002
2.867676e+003,1.121008e-002
2.869604e+003,1.119862e-002
2.871533e+003,1.125414e-002
2.873461e+003,1.127676e-002
2.875390e+003,1.123531e-002
2.877319e+003,1.121035e-002
2.879247e+003,1.118910e-002
2.881176e+003,1.117309e-002
2.883104e+003,1.124275e-002
2.885032e+003,1.128665e-002
2.886961e+003,1.129427e-002
2.888889e+003,1.132165e-002
2.890818e+003,1.134702e-002
2.892747e+003,1.135011e-002
2.894675e+003,1.140631e-002
2.896604e+003,1.141899e-002
2.898532e+003,1.140848e-002
2.900460e+003,1.143107e-002
2.902389e+003,1.145873e-002
2.904317e+003,1.152180e-002
2.906246e+003,1.154270e-002
2.908175e+003,1.162192e-002
2.910103e+003,1.163114e-002
2.912031e+003,1.169383e-002
2.913960e+003,1.179473e-002
2.915888e+003,1.186940e-002
2.917817e+003,1.190710e-002
2.919745e+003,1.189249e-002
2.921674e+003,1.184254e-002
2.923603e+003,1.171715e-002
2.925531e+003,1.164370e-002
2.927459e+003,1.159871e-002
2.929388e+003,1.148564e-002
2.931316e+003,1.141498e-002
2.933245e+003,1.133358e-002
2.935173e+003,1.124401e-002
2.937102e+003,1.120624e-002
2.939031e+003,1.111417e-002
2.940959e+003,1.095270e-002
2.942887e+003,1.082852e-002
2.944816e+003,1.073111e-002
2.946744e+003,1.069290e-002
2.948673e+003,1.058098e-002
2.950601e+003,1.048158e-002
2.952530e+003,1.039141e-002
2.954458e+003,1.035028e-002
2.956387e+003,1.032517e-002
2.958315e+003,1.023706e-002
2.960244e+003,1.020459e-002
2.962172e+003,1.018129e-002
2.964101e+003,1.011342e-002
2.966029e+003,1.004668e-002
2.967958e+003,1.001854e-002
2.969886e+003,9.964594e-003
2.971815e+003,9.894216e-003
2.973743e+003,9.863609e-003
2.975672e+003,9.866049e-003
2.977600e+003,9.856592e-003
2.979529e+003,9.848694e-003
2.981457e+003,9.762240e-003
2.983386e+003,9.724897e-003
2.985314e+003,9.733673e-003
2.987243e+003,9.684340e-003
2.989171e+003,9.622172e-003
2.991100e+003,9.641076e-003
2.993028e+003,9.602795e-003
2.994957e+003,9.576678e-003
2.996885e+003,9.587551e-003
2.998814e+003,9.571665e-003
3.000742e+003,9.514560e-003
3.002671e+003,9.503689e-003
3.004599e+003,9.489533e-003
3.006528e+003,9.513544e-003
3.008456e+003,9.543519e-003
3.010385e+003,9.624408e-003
3.012313e+003,9.667637e-003
3.014242e+003,9.627897e-003
3.016170e+003,9.702500e-003
3.018099e+003,9.704296e-003
3.020027e+003,9.628032e-003
3.021956e+003,9.606251e-003
3.023884e+003,9.598358e-003
3.025813e+003,9.630404e-003
3.027741e+003,9.636706e-003
3.029670e+003,9.622409e-003
3.031598e+003,9.677428e-003
3.033527e+003,9.724186e-003
3.035455e+003,9.766848e-003
3.037384e+003,9.804770e-003
3.039312e+003,9.816768e-003
3.041241e+003,9.761731e-003
3.043169e+003,9.681324e-003
3.045098e+003,9.750413e-003
3.047026e+003,9.835849e-003
3.048955e+003,9.802974e-003
3.050883e+003,9.803313e-003
3.052812e+003,9.804669e-003
3.054740e+003,9.829240e-003
3.056669e+003,9.855372e-003
3.058597e+003,9.843170e-003
3.060526e+003,9.882895e-003
3.062454e+003,9.906589e-003
3.064383e+003,9.922386e-003
3.066311e+003,9.986394e-003
3.068240e+003,1.000260e-002
3.070168e+003,1.001667e-002
3.072097e+003,1.003936e-002
3.074025e+003,1.005092e-002
3.075954e+003,1.002979e-002
3.077882e+003,1.007384e-002
3.079811e+003,1.012997e-002
3.081739e+003,1.007439e-002
3.083668e+003,1.008849e-002
3.085596e+003,1.016335e-002
3.087525e+003,1.018773e-002
3.089453e+003,1.019275e-002
3.091382e+003,1.023356e-002
3.093310e+003,1.026586e-002
3.095239e+003,1.023896e-002
3.097167e+003,1.025806e-002
3.099096e+003,1.024917e-002
3.101024e+003,1.021446e-002
3.102953e+003,1.026236e-002
3.104881e+003,1.035947e-002
3.106810e+003,1.044133e-002
3.108738e+003,1.041954e-002
3.110667e+003,1.035411e-002
3.112595e+003,1.041665e-002
3.114524e+003,1.044082e-002
3.116452e+003,1.035747e-002
3.118381e+003,1.036741e-002
3.120309e+003,1.051057e-002
3.122238e+003,1.054764e-002
3.124166e+003,1.054628e-002
3.126095e+003,1.050633e-002
3.128023e+003,1.050932e-002
3.129952e+003,1.054554e-002
3.131880e+003,1.057124e-002
3.133809e+003,1.060190e-002
3.135737e+003,1.063358e-002
3.137666e+003,1.071307e-002
3.139594e+003,1.071823e-002
3.141523e+003,1.073111e-002
3.143451e+003,1.069714e-002
3.145380e+003,1.065195e-002
3.147308e+003,1.071681e-002
3.149237e+003,1.076354e-002
3.151165e+003,1.081667e-002
3.153094e+003,1.083046e-002
3.155022e+003,1.086511e-002
3.156951e+003,1.092715e-002
3.158879e+003,1.094247e-002
3.160808e+003,1.090802e-002
3.162736e+003,1.094727e-002
3.164665e+003,1.094686e-002
3.166593e+003,1.096334e-002
3.168522e+003,1.105646e-002
3.170450e+003,1.101921e-002
3.172379e+003,1.097163e-002
3.174307e+003,1.109136e-002
3.176236e+003,1.118601e-002
3.178164e+003,1.122286e-002
3.180093e+003,1.120641e-002
3.182021e+003,1.122745e-002
3.183950e+003,1.123867e-002
3.185878e+003,1.125516e-002
3.187807e+003,1.129536e-002
3.189735e+003,1.141716e-002
3.191664e+003,1.146720e-002
3.193592e+003,1.141876e-002
3.195521e+003,1.146465e-002
3.197449e+003,1.144883e-002
3.199378e+003,1.146454e-002
3.201306e+003,1.152296e-002
3.203235e+003,1.148237e-002
3.205163e+003,1.152191e-002
3.207092e+003,1.164989e-002
3.209020e+003,1.168529e-002
3.210948e+003,1.164877e-002
3.212877e+003,1.163852e-002
3.214806e+003,1.171119e-002
3.216734e+003,1.176454e-002
3.218663e+003,1.179909e-002
3.220591e+003,1.178735e-002
3.222520e+003,1.176808e-002
3.224448e+003,1.175749e-002
3.226376e+003,1.179770e-002
3.228305e+003,1.191265e-002
3.230234e+003,1.194569e-002
3.232162e+003,1.194010e-002
3.234091e+003,1.194599e-002
3.236019e+003,1.202420e-002
3.237948e+003,1.209536e-002
3.239876e+003,1.213993e-002
3.241804e+003,1.209121e-002
3.243733e+003,1.217479e-002
3.245662e+003,1.220410e-002
3.247590e+003,1.221926e-002
3.249519e+003,1.225133e-002
3.251447e+003,1.227267e-002
3.253375e+003,1.231667e-002
3.255304e+003,1.238321e-002
3.257232e+003,1.239845e-002
3.259161e+003,1.242607e-002
3.261090e+003,1.240162e-002
3.263018e+003,1.244278e-002
3.264947e+003,1.245495e-002
3.266875e+003,1.248100e-002
3.268803e+003,1.254106e-002
3.270732e+003,1.264533e-002
3.272660e+003,1.259130e-002
3.274589e+003,1.256162e-002
3.276518e+003,1.260296e-002
3.278446e+003,1.255044e-002
3.280375e+003,1.255640e-002
3.282303e+003,1.263004e-002
3.284231e+003,1.266197e-002
3.286160e+003,1.267200e-002
3.288088e+003,1.270407e-002
3.290017e+003,1.274215e-002
3.291946e+003,1.275699e-002
3.293874e+003,1.267613e-002
3.295802e+003,1.258833e-002
3.297731e+003,1.257557e-002
3.299659e+003,1.258287e-002
3.301588e+003,1.258638e-002
3.303516e+003,1.264202e-002
3.305445e+003,1.273642e-002
3.307374e+003,1.269343e-002
3.309302e+003,1.265109e-002
3.311230e+003,1.264120e-002
3.313159e+003,1.261848e-002
3.315087e+003,1.264406e-002
3.317016e+003,1.260508e-002
3.318944e+003,1.260006e-002
3.320873e+003,1.254955e-002
3.322802e+003,1.251323e-002
3.324730e+003,1.256189e-002
3.326658e+003,1.260552e-002
3.328587e+003,1.257124e-002
3.330515e+003,1.263393e-002
3.332444e+003,1.270667e-002
3.334372e+003,1.266668e-002
3.336301e+003,1.260770e-002
3.338229e+003,1.252803e-002
3.340158e+003,1.249618e-002
3.342086e+003,1.251865e-002
3.344015e+003,1.252018e-002
3.345943e+003,1.246423e-002
3.347872e+003,1.239078e-002
3.349800e+003,1.236177e-002
3.351729e+003,1.248189e-002
3.353657e+003,1.247285e-002
3.355586e+003,1.234847e-002
3.357514e+003,1.233709e-002
3.359443e+003,1.235662e-002
3.361371e+003,1.232639e-002
3.363300e+003,1.229400e-002
3.365229e+003,1.222124e-002
3.367157e+003,1.227049e-002
3.369085e+003,1.232775e-002
3.371014e+003,1.225549e-002
3.372942e+003,1.222171e-002
3.374871e+003,1.214429e-002
3.376799e+003,1.206876e-002
3.378728e+003,1.204116e-002
3.380656e+003,1.205762e-002
3.382585e+003,1.208092e-002
3.384513e+003,1.206794e-002
3.386442e+003,1.202161e-002
3.388370e+003,1.189743e-002
3.390299e+003,1.190152e-002
3.392227e+003,1.185997e-002
3.394156e+003,1.178231e-002
3.396084e+003,1.185762e-002
3.398013e+003,1.190945e-002
3.399941e+003,1.175071e-002
3.401870e+003,1.165619e-002
3.403798e+003,1.167593e-002
3.405727e+003,1.165969e-002
3.407655e+003,1.158969e-002
3.409584e+003,1.148771e-002
3.411512e+003,1.149874e-002
3.413441e+003,1.144685e-002
3.415369e+003,1.145397e-002
3.417298e+003,1.137584e-002
3.419226e+003,1.124265e-002
3.421155e+003,1.118522e-002
3.423083e+003,1.122888e-002
3.425012e+003,1.113431e-002
3.426940e+003,1.105490e-002
3.428869e+003,1.106129e-002
3.430797e+003,1.095016e-002
3.432726e+003,1.083414e-002
3.434654e+003,1.081784e-002
3.436583e+003,1.078851e-002
3.438511e+003,1.077533e-002
3.440440e+003,1.079254e-002
3.442368e+003,1.072123e-002
3.444297e+003,1.063030e-002
3.446225e+003,1.059792e-002
3.448154e+003,1.058233e-002
3.450082e+003,1.051463e-002
3.452011e+003,1.046345e-002
3.453939e+003,1.041578e-002
3.455868e+003,1.036173e-002
3.457796e+003,1.029506e-002
3.459725e+003,1.018776e-002
3.461653e+003,1.020866e-002
3.463582e+003,1.010381e-002
3.465510e+003,1.000605e-002
3.467439e+003,1.001349e-002
3.469367e+003,1.002546e-002
3.471296e+003,9.994380e-003
3.473224e+003,9.963997e-003
3.475153e+003,9.861398e-003
3.477081e+003,9.821979e-003
3.479010e+003,9.769463e-003
3.480938e+003,9.668705e-003
3.482867e+003,9.630948e-003
3.484795e+003,9.661556e-003
3.486724e+003,9.667264e-003
3.488652e+003,9.553934e-003
3.490581e+003,9.446594e-003
3.492509e+003,9.501421e-003
3.494438e+003,9.530225e-003
3.496366e+003,9.440757e-003
3.498295e+003,9.308752e-003
3.500223e+003,9.266026e-003
3.502152e+003,9.298031e-003
3.504080e+003,9.253868e-003
3.506009e+003,9.146162e-003
3.507937e+003,9.075521e-003
3.509866e+003,9.105146e-003
3.511794e+003,9.093745e-003
3.513723e+003,8.992597e-003
3.515651e+003,8.926769e-003
3.517580e+003,8.904456e-003
3.519508e+003,8.900426e-003
3.521437e+003,8.872839e-003
3.523365e+003,8.776848e-003
3.525294e+003,8.655522e-003
3.527222e+003,8.676395e-003
3.529151e+003,8.631939e-003
3.531079e+003,8.580061e-003
3.533008e+003,8.412232e-003
3.534936e+003,8.380472e-003
3.536865e+003,8.372582e-003
3.538793e+003,8.344719e-003
3.540722e+003,8.372745e-003
3.542650e+003,8.390241e-003
3.544579e+003,8.287584e-003
3.546507e+003,8.160805e-003
3.548436e+003,8.081090e-003
3.550364e+003,8.092715e-003
3.552293e+003,8.077585e-003
3.554221e+003,8.032742e-003
3.556150e+003,7.975300e-003
3.558078e+003,7.858094e-003
3.560007e+003,7.764888e-003
3.561935e+003,7.619596e-003
3.563864e+003,7.661491e-003
3.565792e+003,7.712982e-003
3.567721e+003,7.624459e-003
3.569649e+003,7.461620e-003
3.571578e+003,7.419284e-003
3.573506e+003,7.363149e-003
3.575435e+003,7.263016e-003
3.577363e+003,7.187532e-003
3.579292e+003,7.126232e-003
3.581220e+003,7.018561e-003
3.583149e+003,6.911414e-003
3.585077e+003,6.789577e-003
3.587006e+003,6.598799e-003
3.588934e+003,6.294929e-003
3.590863e+003,5.986142e-003
3.592791e+003,5.887765e-003
3.594720e+003,5.758739e-003
3.596648e+003,5.612564e-003
3.598577e+003,5.604845e-003
3.600505e+003,5.599303e-003
3.602434e+003,5.655996e-003
3.604362e+003,5.713956e-003
3.606291e+003,5.928063e-003
3.608219e+003,6.266516e-003
3.610148e+003,6.586182e-003
3.612076e+003,6.826186e-003
3.614005e+003,6.678771e-003
3.615933e+003,6.238998e-003
3.617862e+003,5.796786e-003
3.619790e+003,5.403730e-003
3.621719e+003,5.179408e-003
3.623647e+003,5.008543e-003
3.625576e+003,4.816628e-003
3.627504e+003,4.846177e-003
3.629433e+003,5.030525e-003
3.631361e+003,5.131303e-003
3.633290e+003,5.310488e-003
3.635218e+003,5.562732e-003
3.637146e+003,5.748456e-003
3.639075e+003,6.026726e-003
3.641004e+003,6.238929e-003
3.642932e+003,6.483789e-003
3.644861e+003,6.682660e-003
3.646789e+003,6.680169e-003
3.648718e+003,6.638801e-003
3.650646e+003,6.653347e-003
3.652574e+003,6.681222e-003
3.654503e+003,6.671182e-003
3.656432e+003,6.513357e-003
3.658360e+003,6.523323e-003
3.660289e+003,6.627542e-003
3.662217e+003,6.549434e-003
3.664146e+003,6.531480e-003
3.666074e+003,6.546094e-003
3.668002e+003,6.626752e-003
3.669931e+003,6.477185e-003
3.671860e+003,6.365060e-003
3.673788e+003,6.352351e-003
3.675717e+003,6.226763e-003
3.677645e+003,6.186274e-003
3.679573e+003,6.136668e-003
3.681502e+003,5.916226e-003
3.683430e+003,5.760441e-003
3.685359e+003,5.609209e-003
3.687288e+003,5.429984e-003
3.689216e+003,5.143510e-003
3.691145e+003,4.923729e-003
3.693073e+003,4.718643e-003
3.695001e+003,4.610662e-003
3.696930e+003,4.434207e-003
3.698858e+003,4.220489e-003
3.700787e+003,4.147899e-003
3.702716e+003,4.055003e-003
3.704644e+003,4.021535e-003
3.706573e+003,4.212259e-003
3.708501e+003,4.512770e-003
3.710429e+003,4.893448e-003
3.712358e+003,5.405756e-003
3.714286e+003,5.845207e-003
3.716215e+003,5.707764e-003
3.718144e+003,5.125450e-003
3.720072e+003,4.522934e-003
3.722000e+003,3.992110e-003
3.723929e+003,3.675665e-003
3.725857e+003,3.408764e-003
3.727786e+003,3.089788e-003
3.729714e+003,3.153672e-003
3.731643e+003,3.373520e-003
3.733572e+003,3.755384e-003
3.735500e+003,4.090935e-003
3.737428e+003,4.520444e-003
3.739357e+003,5.066130e-003
3.741285e+003,5.535545e-003
3.743214e+003,5.878870e-003
3.745142e+003,6.027148e-003
3.747071e+003,6.231469e-003
3.749000e+003,6.381574e-003
3.750928e+003,6.494177e-003
3.752856e+003,6.457856e-003
3.754785e+003,6.446598e-003
3.756713e+003,6.545951e-003
3.758642e+003,6.605467e-003
3.760570e+003,6.633457e-003
3.762499e+003,6.590475e-003
3.764427e+003,6.557319e-003
3.766356e+003,6.456698e-003
3.768284e+003,6.485411e-003
3.770213e+003,6.478823e-003
3.772141e+003,6.431374e-003
3.774070e+003,6.491113e-003
3.775998e+003,6.613717e-003
3.777927e+003,6.574750e-003
3.779855e+003,6.485697e-003
3.781784e+003,6.581484e-003
3.783712e+003,6.657774e-003
3.785641e+003,6.629732e-003
3.787569e+003,6.685371e-003
3.789498e+003,6.681242e-003
3.791426e+003,6.665105e-003
3.793355e+003,6.713288e-003
3.795283e+003,6.692128e-003
3.797212e+003,6.630025e-003
3.799140e+003,6.682973e-003
3.801069e+003,6.692419e-003
3.802997e+003,6.625254e-003
3.804926e+003,6.639804e-003
3.806854e+003,6.631925e-003
3.808783e+003,6.691183e-003
3.810711e+003,6.716446e-003
3.812640e+003,6.696904e-003
3.814568e+003,6.667508e-003
3.816497e+003,6.630830e-003
3.818425e+003,6.637449e-003
3.820354e+003,6.640306e-003
3.822282e+003,6.655460e-003
3.824211e+003,6.719666e-003
3.826139e+003,6.669919e-003
3.828068e+003,6.706038e-003
3.829996e+003,6.763870e-003
3.831925e+003,6.675934e-003
3.833853e+003,6.679993e-003
3.835782e+003,6.730831e-003
3.837710e+003,6.733773e-003
3.839639e+003,6.823499e-003
3.841567e+003,6.802862e-003
3.843496e+003,6.670820e-003
3.845424e+003,6.544744e-003
3.847353e+003,6.591157e-003
3.849281e+003,6.633330e-003
3.851210e+003,6.723590e-003
3.853138e+003,6.785762e-003
3.855067e+003,6.718163e-003
3.856995e+003,6.701928e-003
3.858924e+003,6.727431e-003
3.860852e+003,6.710808e-003
3.862781e+003,6.676930e-003
3.864709e+003,6.670548e-003
3.866638e+003,6.779607e-003
3.868566e+003,6.866040e-003
3.870495e+003,6.833436e-003
3.872423e+003,6.864913e-003
3.874352e+003,6.833770e-003
3.876280e+003,6.822153e-003
3.878209e+003,6.759535e-003
3.880137e+003,6.744565e-003
3.882066e+003,6.771056e-003
3.883994e+003,6.751163e-003
3.885923e+003,6.710699e-003
3.887851e+003,6.721225e-003
3.889780e+003,6.719689e-003
3.891708e+003,6.687540e-003
3.893637e+003,6.738088e-003
3.895565e+003,6.747964e-003
3.897494e+003,6.790851e-003
3.899422e+003,6.785286e-003
3.901351e+003,6.788998e-003
3.903279e+003,6.844387e-003
3.905208e+003,6.876900e-003
3.907136e+003,6.865751e-003
3.909065e+003,6.812763e-003
3.910993e+003,6.796625e-003
3.912922e+003,6.793499e-003
3.914850e+003,6.883667e-003
3.916779e+003,6.876399e-003
3.918707e+003,6.795461e-003
3.920636e+003,6.777414e-003
3.922564e+003,6.709266e-003
3.924493e+003,6.772527e-003
3.926421e+003,6.851953e-003
3.928350e+003,6.775266e-003
3.930278e+003,6.743171e-003
3.932207e+003,6.791787e-003
3.934135e+003,6.775771e-003
3.936064e+003,6.763955e-003
3.937992e+003,6.793716e-003
3.939921e+003,6.787149e-003
3.941849e+003,6.752447e-003
3.943778e+003,6.818547e-003
3.945706e+003,6.814682e-003
3.947635e+003,6.741415e-003
3.949563e+003,6.756295e-003
3.951492e+003,6.838922e-003
3.953420e+003,6.782151e-003
3.955349e+003,6.740980e-003
3.957277e+003,6.763672e-003
3.959206e+003,6.707002e-003
3.961134e+003,6.731562e-003
3.963063e+003,6.791433e-003
3.964991e+003,6.866537e-003
3.966920e+003,6.890225e-003
3.968848e+003,6.786257e-003
3.970777e+003,6.768201e-003
3.972705e+003,6.793850e-003
3.974634e+003,6.803974e-003
3.976562e+003,6.821969e-003
3.978491e+003,6.854416e-003
3.980419e+003,6.844282e-003
3.982348e+003,6.799321e-003
3.984276e+003,6.776405e-003
3.986205e+003,6.759614e-003
3.988133e+003,6.804687e-003
3.990062e+003,6.828065e-003
3.991990e+003,6.739887e-003
3.993919e+003,6.747425e-003
3.995847e+003,6.803130e-003
3.997776e+003,6.879736e-003
3.999704e+003,6.880155e-003
4.001633e+003,0.000000e+000
