3.991989e+002,4.225981e-002
4.011274e+002,4.762522e-002
4.030559e+002,4.762522e-002
4.049844e+002,4.810086e-002
4.069129e+002,4.711686e-002
4.088414e+002,4.772787e-002
4.107699e+002,4.827460e-002
4.126984e+002,4.798720e-002
4.146269e+002,4.711964e-002
4.165554e+002,4.835572e-002
4.184839e+002,4.988379e-002
4.204124e+002,5.070011e-002
4.223409e+002,5.177071e-002
4.242694e+002,5.205651e-002
4.261979e+002,5.296565e-002
4.281264e+002,5.398577e-002
4.300549e+002,5.428170e-002
4.319834e+002,5.430883e-002
4.339119e+002,5.453654e-002
4.358404e+002,5.597439e-002
4.377689e+002,5.722370e-002
4.396974e+002,5.684550e-002
4.416259e+002,5.672041e-002
4.435544e+002,5.679470e-002
4.454829e+002,5.781785e-002
4.474114e+002,5.809750e-002
4.493399e+002,5.835420e-002
4.512684e+002,5.838904e-002
4.531969e+002,5.810938e-002
4.551254e+002,5.814297e-002
4.570539e+002,5.779327e-002
4.589824e+002,5.708586e-002
4.609109e+002,5.753069e-002
4.628394e+002,5.751463e-002
4.647679e+002,5.697970e-002
4.666964e+002,5.677680e-002
4.686249e+002,5.599054e-002
4.705533e+002,5.507119e-002
4.724819e+002,5.390064e-002
4.744103e+002,5.229950e-002
4.763389e+002,5.066297e-002
4.782673e+002,4.913924e-002
4.801959e+002,4.724248e-002
4.821243e+002,4.562501e-002
4.840529e+002,4.433953e-002
4.859813e+002,4.284272e-002
4.879099e+002,4.150784e-002
4.898383e+002,4.051195e-002
4.917668e+002,3.934947e-002
4.936953e+002,3.782215e-002
4.956238e+002,3.641927e-002
4.975523e+002,3.601326e-002
4.994808e+002,3.576550e-002
5.014093e+002,3.478804e-002
5.033378e+002,3.391943e-002
5.052663e+002,3.391457e-002
5.071948e+002,3.367002e-002
5.091233e+002,3.331600e-002
5.110518e+002,3.321403e-002
5.129803e+002,3.329321e-002
5.149088e+002,3.315747e-002
5.168373e+002,3.319905e-002
5.187658e+002,3.295312e-002
5.206943e+002,3.352372e-002
5.226228e+002,3.342764e-002
5.245513e+002,3.292793e-002
5.264798e+002,3.272042e-002
5.284083e+002,3.301605e-002
5.303368e+002,3.314054e-002
5.322653e+002,3.337682e-002
5.341938e+002,3.327906e-002
5.361223e+002,3.288449e-002
5.380508e+002,3.282371e-002
5.399792e+002,3.269412e-002
5.419078e+002,3.229592e-002
5.438363e+002,3.248494e-002
5.457648e+002,3.275080e-002
5.476932e+002,3.282994e-002
5.496218e+002,3.300148e-002
5.515503e+002,3.291433e-002
5.534788e+002,3.284107e-002
5.554072e+002,3.293722e-002
5.573358e+002,3.318696e-002
5.592643e+002,3.315131e-002
5.611927e+002,3.315645e-002
5.631212e+002,3.291454e-002
5.650497e+002,3.235614e-002
5.669783e+002,3.207303e-002
5.689067e+002,3.215079e-002
5.708352e+002,3.181053e-002
5.727637e+002,3.137696e-002
5.746923e+002,3.133193e-002
5.766207e+002,3.136338e-002
5.785492e+002,3.142688e-002
5.804777e+002,3.164131e-002
5.824063e+002,3.089679e-002
5.843347e+002,3.045238e-002
5.862632e+002,3.050487e-002
5.881917e+002,3.039053e-002
5.901202e+002,3.025699e-002
5.920487e+002,3.023872e-002
5.939772e+002,3.022747e-002
5.959057e+002,2.973955e-002
5.978342e+002,2.959771e-002
5.997627e+002,2.963595e-002
6.016912e+002,2.935598e-002
6.036197e+002,2.909464e-002
6.055482e+002,2.928834e-002
6.074767e+002,2.909864e-002
6.094052e+002,2.891185e-002
6.113337e+002,2.904360e-002
6.132622e+002,2.875025e-002
6.151907e+002,2.828306e-002
6.171192e+002,2.829567e-002
6.190477e+002,2.816905e-002
6.209762e+002,2.793976e-002
6.229047e+002,2.751663e-002
6.248332e+002,2.711254e-002
6.267617e+002,2.666196e-002
6.286902e+002,2.633664e-002
6.306187e+002,2.638204e-002
6.325472e+002,2.649654e-002
6.344756e+002,2.636982e-002
6.364042e+002,2.603665e-002
6.383326e+002,2.583726e-002
6.402612e+002,2.578190e-002
6.421896e+002,2.562453e-002
6.441182e+002,2.552181e-002
6.460466e+002,2.554430e-002
6.479752e+002,2.550318e-002
6.499036e+002,2.523233e-002
6.518322e+002,2.517739e-002
6.537606e+002,2.520261e-002
6.556891e+002,2.511992e-002
6.576177e+002,2.519846e-002
6.595461e+002,2.530213e-002
6.614746e+002,2.542745e-002
6.634031e+002,2.542140e-002
6.653317e+002,2.557399e-002
6.672601e+002,2.523067e-002
6.691886e+002,2.499647e-002
6.711171e+002,2.468530e-002
6.730457e+002,2.426522e-002
6.749741e+002,2.363537e-002
6.769026e+002,2.331565e-002
6.788311e+002,2.302995e-002
6.807596e+002,2.279467e-002
6.826881e+002,2.247700e-002
6.846166e+002,2.212521e-002
6.865451e+002,2.202337e-002
6.884736e+002,2.197142e-002
6.904021e+002,2.184891e-002
6.923306e+002,2.189397e-002
6.942591e+002,2.201531e-002
6.961876e+002,2.219298e-002
6.981161e+002,2.227537e-002
7.000446e+002,2.211791e-002
7.019731e+002,2.185980e-002
7.039016e+002,2.172714e-002
7.058301e+002,2.155973e-002
7.077585e+002,2.144201e-002
7.096871e+002,2.133249e-002
7.116156e+002,2.113699e-002
7.135441e+002,2.110124e-002
7.154725e+002,2.104673e-002
7.174011e+002,2.093663e-002
7.193296e+002,2.114579e-002
7.212581e+002,2.091401e-002
7.231865e+002,2.048143e-002
7.251151e+002,2.038626e-002
7.270436e+002,2.031934e-002
7.289720e+002,2.031234e-002
7.309005e+002,2.021550e-002
7.328290e+002,2.003582e-002
7.347576e+002,1.989057e-002
7.366860e+002,1.988315e-002
7.386145e+002,1.978720e-002
7.405430e+002,1.960866e-002
7.424716e+002,1.949158e-002
7.444000e+002,1.953607e-002
7.463285e+002,1.946774e-002
7.482570e+002,1.929370e-002
7.501855e+002,1.912434e-002
7.521140e+002,1.901862e-002
7.540425e+002,1.894413e-002
7.559710e+002,1.896228e-002
7.578995e+002,1.892317e-002
7.598280e+002,1.896401e-002
7.617565e+002,1.897418e-002
7.636850e+002,1.900229e-002
7.656135e+002,1.899762e-002
7.675420e+002,1.900859e-002
7.694705e+002,1.914912e-002
7.713990e+002,1.927851e-002
7.733275e+002,1.943628e-002
7.752560e+002,1.960998e-002
7.771844e+002,1.988392e-002
7.791130e+002,2.012700e-002
7.810415e+002,2.033921e-002
7.829700e+002,2.040741e-002
7.848984e+002,2.051501e-002
7.868270e+002,2.063441e-002
7.887555e+002,2.063678e-002
7.906840e+002,2.060832e-002
7.926124e+002,2.059693e-002
7.945410e+002,2.054509e-002
7.964695e+002,2.046798e-002
7.983979e+002,2.044280e-002
8.003264e+002,2.034719e-002
8.022549e+002,2.021276e-002
8.041835e+002,2.006974e-002
8.061119e+002,1.999413e-002
8.080404e+002,1.995420e-002
8.099689e+002,1.988104e-002
8.118975e+002,1.966645e-002
8.138259e+002,1.945700e-002
8.157545e+002,1.916730e-002
8.176830e+002,1.905162e-002
8.196115e+002,1.896632e-002
8.215399e+002,1.868176e-002
8.234684e+002,1.842213e-002
8.253970e+002,1.833423e-002
8.273254e+002,1.817375e-002
8.292539e+002,1.796902e-002
8.311824e+002,1.776149e-002
8.331110e+002,1.782701e-002
8.350394e+002,1.777077e-002
8.369679e+002,1.756661e-002
8.388964e+002,1.740124e-002
8.408250e+002,1.732465e-002
8.427534e+002,1.739204e-002
8.446819e+002,1.737227e-002
8.466104e+002,1.727062e-002
8.485389e+002,1.724083e-002
8.504674e+002,1.724256e-002
8.523959e+002,1.733279e-002
8.543244e+002,1.735934e-002
8.562529e+002,1.744370e-002
8.581814e+002,1.753163e-002
8.601099e+002,1.766402e-002
8.620384e+002,1.773063e-002
8.639669e+002,1.788818e-002
8.658954e+002,1.802873e-002
8.678239e+002,1.811757e-002
8.697524e+002,1.823391e-002
8.716809e+002,1.840443e-002
8.736094e+002,1.859049e-002
8.755378e+002,1.879194e-002
8.774664e+002,1.897747e-002
8.793949e+002,1.924824e-002
8.813234e+002,1.949373e-002
8.832518e+002,1.978962e-002
8.851804e+002,2.010777e-002
8.871089e+002,2.050594e-002
8.890374e+002,2.099325e-002
8.909658e+002,2.138287e-002
8.928943e+002,2.169516e-002
8.948229e+002,2.199209e-002
8.967513e+002,2.212774e-002
8.986798e+002,2.212062e-002
9.006083e+002,2.208074e-002
9.025369e+002,2.191092e-002
9.044653e+002,2.178416e-002
9.063938e+002,2.164218e-002
9.083223e+002,2.161161e-002
9.102509e+002,2.172233e-002
9.121793e+002,2.186447e-002
9.141078e+002,2.195414e-002
9.160364e+002,2.217725e-002
9.179648e+002,2.236430e-002
9.198933e+002,2.256395e-002
9.218218e+002,2.281486e-002
9.237504e+002,2.304872e-002
9.256788e+002,2.328306e-002
9.276073e+002,2.356173e-002
9.295358e+002,2.385190e-002
9.314644e+002,2.413710e-002
9.333928e+002,2.434501e-002
9.353213e+002,2.463152e-002
9.372498e+002,2.502105e-002
9.391783e+002,2.538866e-002
9.411068e+002,2.571998e-002
9.430353e+002,2.609219e-002
9.449637e+002,2.649821e-002
9.468923e+002,2.699783e-002
9.488208e+002,2.745443e-002
9.507493e+002,2.774046e-002
9.526777e+002,2.810963e-002
9.546063e+002,2.853357e-002
9.565348e+002,2.902286e-002
9.584633e+002,2.950017e-002
9.603917e+002,2.995256e-002
9.623203e+002,3.033528e-002
9.642488e+002,3.072121e-002
9.661772e+002,3.109556e-002
9.681057e+002,3.141488e-002
9.700343e+002,3.172948e-002
9.719628e+002,3.207256e-002
9.738912e+002,3.251657e-002
9.758197e+002,3.300336e-002
9.777483e+002,3.347444e-002
9.796768e+002,3.395295e-002
9.816052e+002,3.457409e-002
9.835337e+002,3.516654e-002
9.854623e+002,3.560304e-002
9.873907e+002,3.604081e-002
9.893192e+002,3.645909e-002
9.912477e+002,3.667803e-002
9.931763e+002,3.686465e-002
9.951047e+002,3.704925e-002
9.970332e+002,3.744781e-002
9.989617e+002,3.793976e-002
1.000890e+003,3.849313e-002
1.002819e+003,3.898014e-002
1.004747e+003,3.955207e-002
1.006676e+003,4.013017e-002
1.008604e+003,4.071476e-002
1.010533e+003,4.129747e-002
1.012461e+003,4.194862e-002
1.014390e+003,4.263617e-002
1.016318e+003,4.338474e-002
1.018247e+003,4.418423e-002
1.020175e+003,4.492173e-002
1.022104e+003,4.565063e-002
1.024032e+003,4.632891e-002
1.025961e+003,4.704227e-002
1.027889e+003,4.774311e-002
1.029818e+003,4.830456e-002
1.031746e+003,4.876548e-002
1.033675e+003,4.895474e-002
1.035603e+003,4.896204e-002
1.037532e+003,4.888469e-002
1.039460e+003,4.863772e-002
1.041389e+003,4.835567e-002
1.043317e+003,4.815727e-002
1.045246e+003,4.801140e-002
1.047174e+003,4.795341e-002
1.049103e+003,4.787486e-002
1.051031e+003,4.784583e-002
1.052960e+003,4.773981e-002
1.054888e+003,4.756728e-002
1.056817e+003,4.726328e-002
1.058745e+003,4.687942e-002
1.060674e+003,4.642060e-002
1.062602e+003,4.583481e-002
1.064531e+003,4.528183e-002
1.066459e+003,4.477886e-002
1.068388e+003,4.427074e-002
1.070316e+003,4.372173e-002
1.072245e+003,4.321814e-002
1.074173e+003,4.277633e-002
1.076102e+003,4.236431e-002
1.078030e+003,4.192457e-002
1.079959e+003,4.145127e-002
1.081887e+003,4.095198e-002
1.083816e+003,4.057591e-002
1.085744e+003,4.028960e-002
1.087673e+003,3.996765e-002
1.089601e+003,3.967375e-002
1.091530e+003,3.933371e-002
1.093458e+003,3.902744e-002
1.095387e+003,3.878453e-002
1.097315e+003,3.846981e-002
1.099244e+003,3.814378e-002
1.101172e+003,3.784207e-002
1.103101e+003,3.752843e-002
1.105029e+003,3.702526e-002
1.106958e+003,3.642190e-002
1.108886e+003,3.576884e-002
1.110815e+003,3.503901e-002
1.112743e+003,3.416715e-002
1.114672e+003,3.325364e-002
1.116600e+003,3.242852e-002
1.118529e+003,3.168653e-002
1.120457e+003,3.097741e-002
1.122386e+003,3.027431e-002
1.124314e+003,2.959565e-002
1.126243e+003,2.888218e-002
1.128171e+003,2.817800e-002
1.130100e+003,2.750229e-002
1.132028e+003,2.685516e-002
1.133957e+003,2.627315e-002
1.135885e+003,2.582771e-002
1.137814e+003,2.544452e-002
1.139742e+003,2.511537e-002
1.141671e+003,2.492906e-002
1.143599e+003,2.479454e-002
1.145528e+003,2.476676e-002
1.147456e+003,2.479146e-002
1.149385e+003,2.474564e-002
1.151313e+003,2.477395e-002
1.153242e+003,2.486822e-002
1.155170e+003,2.496802e-002
1.157099e+003,2.498602e-002
1.159027e+003,2.497935e-002
1.160956e+003,2.483559e-002
1.162884e+003,2.458162e-002
1.164813e+003,2.423260e-002
1.166741e+003,2.372250e-002
1.168670e+003,2.313943e-002
1.170598e+003,2.249287e-002
1.172526e+003,2.190423e-002
1.174455e+003,2.131887e-002
1.176384e+003,2.073050e-002
1.178312e+003,2.023974e-002
1.180240e+003,1.978226e-002
1.182169e+003,1.933605e-002
1.184098e+003,1.903933e-002
1.186026e+003,1.884832e-002
1.187954e+003,1.865610e-002
1.189883e+003,1.851148e-002
1.191812e+003,1.840338e-002
1.193740e+003,1.835497e-002
1.195668e+003,1.830442e-002
1.197597e+003,1.821658e-002
1.199526e+003,1.814470e-002
1.201454e+003,1.810899e-002
1.203382e+003,1.797733e-002
1.205311e+003,1.775748e-002
1.207240e+003,1.755747e-002
1.209168e+003,1.739036e-002
1.211096e+003,1.723576e-002
1.213025e+003,1.705155e-002
1.214953e+003,1.696595e-002
1.216882e+003,1.689107e-002
1.218810e+003,1.679980e-002
1.220739e+003,1.667183e-002
1.222667e+003,1.662883e-002
1.224596e+003,1.661086e-002
1.226524e+003,1.654878e-002
1.228453e+003,1.647673e-002
1.230381e+003,1.638214e-002
1.232310e+003,1.627298e-002
1.234238e+003,1.615684e-002
1.236167e+003,1.595834e-002
1.238095e+003,1.575236e-002
1.240024e+003,1.552165e-002
1.241952e+003,1.530672e-002
1.243881e+003,1.511879e-002
1.245809e+003,1.486126e-002
1.247738e+003,1.458279e-002
1.249666e+003,1.430332e-002
1.251595e+003,1.395704e-002
1.253523e+003,1.361392e-002
1.255452e+003,1.336491e-002
1.257380e+003,1.314333e-002
1.259309e+003,1.288981e-002
1.261237e+003,1.260566e-002
1.263166e+003,1.240824e-002
1.265094e+003,1.217942e-002
1.267023e+003,1.195549e-002
1.268951e+003,1.178557e-002
1.270880e+003,1.160230e-002
1.272808e+003,1.147263e-002
1.274737e+003,1.129051e-002
1.276665e+003,1.113293e-002
1.278594e+003,1.103343e-002
1.280522e+003,1.098724e-002
1.282451e+003,1.095384e-002
1.284379e+003,1.089581e-002
1.286308e+003,1.078684e-002
1.288236e+003,1.073035e-002
1.290165e+003,1.069867e-002
1.292093e+003,1.067857e-002
1.294022e+003,1.070613e-002
1.295950e+003,1.078206e-002
1.297879e+003,1.081264e-002
1.299807e+003,1.086696e-002
1.301736e+003,1.099160e-002
1.303664e+003,1.113831e-002
1.305593e+003,1.126342e-002
1.307521e+003,1.141994e-002
1.309450e+003,1.155293e-002
1.311378e+003,1.167953e-002
1.313307e+003,1.175108e-002
1.315235e+003,1.179171e-002
1.317164e+003,1.181086e-002
1.319092e+003,1.177643e-002
1.321021e+003,1.173569e-002
1.322949e+003,1.163573e-002
1.324878e+003,1.154365e-002
1.326806e+003,1.149244e-002
1.328735e+003,1.144770e-002
1.330663e+003,1.145186e-002
1.332592e+003,1.145731e-002
1.334520e+003,1.144889e-002
1.336449e+003,1.147329e-002
1.338377e+003,1.145239e-002
1.340306e+003,1.139162e-002
1.342234e+003,1.134256e-002
1.344163e+003,1.132471e-002
1.346091e+003,1.128953e-002
1.348020e+003,1.129045e-002
1.349948e+003,1.133270e-002
1.351877e+003,1.140218e-002
1.353805e+003,1.151211e-002
1.355734e+003,1.162053e-002
1.357662e+003,1.169153e-002
1.359591e+003,1.176993e-002
1.361519e+003,1.185098e-002
1.363448e+003,1.196516e-002
1.365376e+003,1.202823e-002
1.367305e+003,1.203908e-002
1.369233e+003,1.206154e-002
1.371162e+003,1.200744e-002
1.373090e+003,1.193077e-002
1.375019e+003,1.188992e-002
1.376947e+003,1.181016e-002
1.378876e+003,1.166155e-002
1.380804e+003,1.152566e-002
1.382733e+003,1.136866e-002
1.384661e+003,1.118927e-002
1.386590e+003,1.104106e-002
1.388518e+003,1.097299e-002
1.390447e+003,1.089454e-002
1.392375e+003,1.083111e-002
1.394304e+003,1.084355e-002
1.396232e+003,1.087918e-002
1.398161e+003,1.085843e-002
1.400089e+003,1.086384e-002
1.402018e+003,1.090772e-002
1.403946e+003,1.093958e-002
1.405875e+003,1.096445e-002
1.407803e+003,1.101057e-002
1.409732e+003,1.108884e-002
1.411660e+003,1.112019e-002
1.413589e+003,1.114577e-002
1.415517e+003,1.117942e-002
1.417446e+003,1.122630e-002
1.419374e+003,1.125255e-002
1.421303e+003,1.125379e-002
1.423231e+003,1.128269e-002
1.425160e+003,1.127818e-002
1.427088e+003,1.126812e-002
1.429017e+003,1.126615e-002
1.430945e+003,1.120887e-002
1.432874e+003,1.111848e-002
1.434802e+003,1.104172e-002
1.436731e+003,1.090851e-002
1.438659e+003,1.080976e-002
1.440588e+003,1.076215e-002
1.442516e+003,1.070219e-002
1.444445e+003,1.063459e-002
1.446373e+003,1.063312e-002
1.448302e+003,1.063904e-002
1.450230e+003,1.062265e-002
1.452159e+003,1.062827e-002
1.454087e+003,1.060915e-002
1.456016e+003,1.056836e-002
1.457944e+003,1.049751e-002
1.459873e+003,1.045608e-002
1.461801e+003,1.043572e-002
1.463730e+003,1.041686e-002
1.465658e+003,1.028809e-002
1.467587e+003,1.009141e-002
1.469515e+003,9.902770e-003
1.471444e+003,9.713506e-003
1.473372e+003,9.498302e-003
1.475301e+003,9.344378e-003
1.477229e+003,9.227363e-003
1.479158e+003,9.157148e-003
1.481086e+003,9.096644e-003
1.483015e+003,9.054808e-003
1.484943e+003,9.050523e-003
1.486872e+003,9.060604e-003
1.488800e+003,9.123221e-003
1.490729e+003,9.190596e-003
1.492657e+003,9.283646e-003
1.494586e+003,9.401097e-003
1.496514e+003,9.497231e-003
1.498443e+003,9.590222e-003
1.500371e+003,9.707771e-003
1.502300e+003,9.786399e-003
1.504228e+003,9.854642e-003
1.506157e+003,9.940079e-003
1.508085e+003,9.993743e-003
1.510014e+003,1.007585e-002
1.511942e+003,1.014913e-002
1.513871e+003,1.022898e-002
1.515799e+003,1.028683e-002
1.517728e+003,1.023628e-002
1.519656e+003,1.013532e-002
1.521585e+003,1.005696e-002
1.523513e+003,1.001372e-002
1.525442e+003,9.968774e-003
1.527370e+003,9.946101e-003
1.529299e+003,9.962851e-003
1.531227e+003,9.962276e-003
1.533156e+003,9.942464e-003
1.535084e+003,9.905539e-003
1.537013e+003,9.919768e-003
1.538941e+003,9.895462e-003
1.540870e+003,9.860005e-003
1.542798e+003,9.865043e-003
1.544727e+003,9.854301e-003
1.546655e+003,9.830745e-003
1.548584e+003,9.848564e-003
1.550512e+003,9.817957e-003
1.552441e+003,9.777385e-003
1.554369e+003,9.745060e-003
1.556298e+003,9.789225e-003
1.558226e+003,9.762482e-003
1.560155e+003,9.694155e-003
1.562083e+003,9.702819e-003
1.564012e+003,9.707619e-003
1.565940e+003,9.716819e-003
1.567869e+003,9.732136e-003
1.569797e+003,9.758176e-003
1.571726e+003,9.770569e-003
1.573654e+003,9.808777e-003
1.575583e+003,9.806911e-003
1.577511e+003,9.804495e-003
1.579440e+003,9.901267e-003
1.581368e+003,1.002037e-002
1.583297e+003,1.005816e-002
1.585225e+003,1.009902e-002
1.587154e+003,1.015728e-002
1.589082e+003,1.019632e-002
1.591010e+003,1.025745e-002
1.592939e+003,1.031826e-002
1.594868e+003,1.032175e-002
1.596796e+003,1.032137e-002
1.598724e+003,1.032152e-002
1.600653e+003,1.035692e-002
1.602582e+003,1.038654e-002
1.604510e+003,1.041395e-002
1.606438e+003,1.043201e-002
1.608367e+003,1.045459e-002
1.610296e+003,1.048405e-002
1.612224e+003,1.055156e-002
1.614152e+003,1.061228e-002
1.616081e+003,1.062148e-002
1.618010e+003,1.067934e-002
1.619938e+003,1.079336e-002
1.621866e+003,1.088271e-002
1.623795e+003,1.094691e-002
1.625724e+003,1.096356e-002
1.627652e+003,1.095221e-002
1.629580e+003,1.091823e-002
1.631509e+003,1.091982e-002
1.633438e+003,1.089357e-002
1.635366e+003,1.079042e-002
1.637294e+003,1.071073e-002
1.639223e+003,1.066700e-002
1.641151e+003,1.060650e-002
1.643080e+003,1.059552e-002
1.645008e+003,1.061132e-002
1.646937e+003,1.059492e-002
1.648865e+003,1.053067e-002
1.650794e+003,1.046087e-002
1.652722e+003,1.038471e-002
1.654651e+003,1.031428e-002
1.656579e+003,1.028162e-002
1.658508e+003,1.014201e-002
1.660436e+003,9.970412e-003
1.662365e+003,9.848716e-003
1.664293e+003,9.705492e-003
1.666222e+003,9.558235e-003
1.668150e+003,9.429378e-003
1.670079e+003,9.306355e-003
1.672007e+003,9.187534e-003
1.673936e+003,9.038270e-003
1.675864e+003,8.915787e-003
1.677793e+003,8.873779e-003
1.679721e+003,8.823149e-003
1.681650e+003,8.743046e-003
1.683578e+003,8.638357e-003
1.685507e+003,8.492989e-003
1.687435e+003,8.468954e-003
1.689364e+003,8.432921e-003
1.691292e+003,8.356314e-003
1.693221e+003,8.316568e-003
1.695149e+003,8.250526e-003
1.697078e+003,8.205086e-003
1.699006e+003,8.256201e-003
1.700935e+003,8.199487e-003
1.702863e+003,8.141026e-003
1.704792e+003,8.156609e-003
1.706720e+003,8.170999e-003
1.708649e+003,8.200721e-003
1.710577e+003,8.280745e-003
1.712506e+003,8.350372e-003
1.714434e+003,8.413482e-003
1.716363e+003,8.446865e-003
1.718291e+003,8.462903e-003
1.720220e+003,8.507992e-003
1.722148e+003,8.561668e-003
1.724077e+003,8.609626e-003
1.726005e+003,8.659899e-003
1.727934e+003,8.681854e-003
1.729862e+003,8.682128e-003
1.731791e+003,8.645489e-003
1.733719e+003,8.611218e-003
1.735648e+003,8.557936e-003
1.737576e+003,8.503407e-003
1.739505e+003,8.346366e-003
1.741433e+003,8.106860e-003
1.743362e+003,7.896660e-003
1.745290e+003,7.783828e-003
1.747219e+003,7.725772e-003
1.749147e+003,7.600812e-003
1.751076e+003,7.420967e-003
1.753004e+003,7.322529e-003
1.754933e+003,7.280815e-003
1.756861e+003,7.224035e-003
1.758790e+003,7.127660e-003
1.760718e+003,7.138605e-003
1.762647e+003,7.099785e-003
1.764575e+003,7.023180e-003
1.766504e+003,7.006988e-003
1.768432e+003,6.974331e-003
1.770361e+003,6.940480e-003
1.772289e+003,6.956006e-003
1.774218e+003,6.938169e-003
1.776146e+003,6.892386e-003
1.778075e+003,6.864049e-003
1.780003e+003,6.893313e-003
1.781932e+003,6.883511e-003
1.783860e+003,6.884281e-003
1.785789e+003,6.907325e-003
1.787717e+003,6.897126e-003
1.789646e+003,6.848080e-003
1.791574e+003,6.843866e-003
1.793503e+003,6.881553e-003
1.795431e+003,6.919460e-003
1.797360e+003,6.905818e-003
1.799288e+003,6.968501e-003
1.801217e+003,7.005160e-003
1.803145e+003,6.966696e-003
1.805074e+003,6.904711e-003
1.807002e+003,6.870976e-003
1.808931e+003,6.898102e-003
1.810859e+003,6.896597e-003
1.812788e+003,6.834139e-003
1.814716e+003,6.855466e-003
1.816645e+003,6.897382e-003
1.818573e+003,6.870092e-003
1.820502e+003,6.854819e-003
1.822430e+003,6.853066e-003
1.824359e+003,6.857222e-003
1.826287e+003,6.871635e-003
1.828216e+003,6.888778e-003
1.830144e+003,6.947301e-003
1.832073e+003,6.915511e-003
1.834001e+003,6.877126e-003
1.835930e+003,6.873158e-003
1.837858e+003,6.829323e-003
1.839787e+003,6.833885e-003
1.841715e+003,6.812838e-003
1.843644e+003,6.810348e-003
1.845572e+003,6.831267e-003
1.847501e+003,6.865960e-003
1.849429e+003,6.868051e-003
1.851358e+003,6.716331e-003
1.853286e+003,6.727977e-003
1.855215e+003,6.820987e-003
1.857143e+003,6.841412e-003
1.859072e+003,6.824838e-003
1.861000e+003,6.789396e-003
1.862929e+003,6.631911e-003
1.864857e+003,6.655336e-003
1.866786e+003,6.889428e-003
1.868714e+003,6.925114e-003
1.870643e+003,6.849888e-003
1.872571e+003,6.867060e-003
1.874500e+003,6.754491e-003
1.876428e+003,6.777911e-003
1.878357e+003,6.678043e-003
1.880285e+003,6.604240e-003
1.882214e+003,6.658220e-003
1.884142e+003,6.792224e-003
1.886071e+003,6.584004e-003
1.887999e+003,6.403980e-003
1.889928e+003,6.546204e-003
1.891856e+003,6.714359e-003
1.893785e+003,6.630275e-003
1.895713e+003,6.583944e-003
1.897642e+003,6.599477e-003
1.899570e+003,6.636163e-003
1.901499e+003,6.537274e-003
1.903427e+003,6.421752e-003
1.905356e+003,6.233234e-003
1.907284e+003,6.142003e-003
1.909213e+003,6.443653e-003
1.911141e+003,6.729985e-003
1.913070e+003,6.633129e-003
1.914998e+003,6.236887e-003
1.916927e+003,6.345734e-003
1.918855e+003,6.636046e-003
1.920784e+003,6.661200e-003
1.922712e+003,6.493434e-003
1.924641e+003,6.527906e-003
1.926569e+003,6.537299e-003
1.928498e+003,6.435625e-003
1.930426e+003,6.317175e-003
1.932355e+003,6.150725e-003
1.934283e+003,6.172437e-003
1.936212e+003,6.275809e-003
1.938140e+003,6.492937e-003
1.940069e+003,6.282594e-003
1.941997e+003,6.000266e-003
1.943926e+003,5.983138e-003
1.945854e+003,6.007562e-003
1.947783e+003,5.701180e-003
1.949711e+003,5.451709e-003
1.951640e+003,5.581177e-003
1.953568e+003,5.693425e-003
1.955497e+003,5.170903e-003
1.957425e+003,4.738672e-003
1.959354e+003,5.001826e-003
1.961282e+003,5.197896e-003
1.963211e+003,4.615455e-003
1.965139e+003,4.419711e-003
1.967068e+003,4.356279e-003
1.968996e+003,4.453306e-003
1.970925e+003,4.138570e-003
1.972853e+003,3.883903e-003
1.974782e+003,3.611400e-003
1.976710e+003,3.689155e-003
1.978639e+003,4.123463e-003
1.980567e+003,3.841301e-003
1.982496e+003,3.516288e-003
1.984424e+003,3.383023e-003
1.986353e+003,3.557278e-003
1.988281e+003,4.306250e-003
1.990210e+003,4.911159e-003
1.992138e+003,4.530458e-003
1.994067e+003,4.029087e-003
1.995995e+003,3.203300e-003
1.997924e+003,2.861567e-003
1.999852e+003,2.820597e-003
2.001781e+003,2.824391e-003
2.003709e+003,2.669306e-003
2.005638e+003,2.610951e-003
2.007566e+003,2.534190e-003
2.009495e+003,2.663623e-003
2.011423e+003,3.182170e-003
2.013352e+003,3.214404e-003
2.015280e+003,2.402584e-003
2.017208e+003,2.564314e-003
2.019137e+003,2.821452e-003
2.021066e+003,2.476325e-003
2.022994e+003,2.405737e-003
2.024922e+003,2.127159e-003
2.026851e+003,2.045385e-003
2.028780e+003,2.365604e-003
2.030708e+003,2.733739e-003
2.032636e+003,2.275715e-003
2.034565e+003,1.553562e-003
2.036494e+003,1.445936e-003
2.038422e+003,2.093455e-003
2.040350e+003,3.825505e-003
2.042279e+003,4.166063e-003
2.044208e+003,3.517892e-003
2.046136e+003,3.484687e-003
2.048064e+003,3.879207e-003
2.049993e+003,4.306952e-003
2.051921e+003,4.256085e-003
2.053850e+003,4.453439e-003
2.055778e+003,4.538876e-003
2.057707e+003,4.936869e-003
2.059635e+003,5.256452e-003
2.061564e+003,4.728130e-003
2.063492e+003,4.383583e-003
2.065421e+003,5.163821e-003
2.067349e+003,5.145034e-003
2.069278e+003,4.864258e-003
2.071206e+003,5.073794e-003
2.073135e+003,5.375554e-003
2.075063e+003,5.550701e-003
2.076992e+003,5.269754e-003
2.078920e+003,5.123651e-003
2.080849e+003,5.554708e-003
2.082777e+003,5.631144e-003
2.084706e+003,5.170709e-003
2.086634e+003,5.287829e-003
2.088563e+003,5.708309e-003
2.090491e+003,5.686971e-003
2.092420e+003,5.635220e-003
2.094348e+003,5.671531e-003
2.096277e+003,5.970700e-003
2.098205e+003,5.992189e-003
2.100134e+003,5.904315e-003
2.102062e+003,5.808802e-003
2.103991e+003,5.509873e-003
2.105919e+003,5.578570e-003
2.107848e+003,5.875027e-003
2.109776e+003,6.125847e-003
2.111705e+003,6.084717e-003
2.113633e+003,6.232690e-003
2.115562e+003,6.446521e-003
2.117490e+003,6.316394e-003
2.119419e+003,6.291147e-003
2.121347e+003,6.075342e-003
2.123276e+003,5.869788e-003
2.125204e+003,5.720965e-003
2.127133e+003,5.921646e-003
2.129061e+003,5.767937e-003
2.130990e+003,4.932002e-003
2.132918e+003,4.841260e-003
2.134847e+003,5.133492e-003
2.136775e+003,4.869003e-003
2.138704e+003,4.545340e-003
2.140632e+003,4.515441e-003
2.142561e+003,3.727761e-003
2.144489e+003,3.402642e-003
2.146418e+003,3.603257e-003
2.148346e+003,3.687057e-003
2.150275e+003,2.810424e-003
2.152203e+003,1.842344e-003
2.154132e+003,2.353248e-003
2.156060e+003,2.045968e-003
2.157989e+003,1.448980e-003
2.159917e+003,8.827922e-004
2.161846e+003,1.280861e-003
2.163774e+003,1.472153e-003
2.165703e+003,2.148981e-003
2.167631e+003,2.924260e-003
2.169560e+003,3.078034e-003
2.171488e+003,3.167440e-003
2.173417e+003,2.886834e-003
2.175345e+003,2.730127e-003
2.177274e+003,2.847343e-003
2.179202e+003,3.018973e-003
2.181131e+003,3.013001e-003
2.183059e+003,3.500266e-003
2.184988e+003,3.374959e-003
2.186916e+003,3.269284e-003
2.188845e+003,3.651804e-003
2.190773e+003,4.288470e-003
2.192702e+003,3.931735e-003
2.194630e+003,4.053892e-003
2.196559e+003,4.165746e-003
2.198487e+003,4.402593e-003
2.200416e+003,4.060347e-003
2.202344e+003,4.258622e-003
2.204273e+003,4.647474e-003
2.206201e+003,4.957573e-003
2.208130e+003,5.048943e-003
2.210058e+003,5.112404e-003
2.211987e+003,5.118003e-003
2.213915e+003,5.170039e-003
2.215844e+003,5.397371e-003
2.217772e+003,5.470882e-003
2.219701e+003,5.751853e-003
2.221629e+003,6.103938e-003
2.223558e+003,5.827070e-003
2.225486e+003,5.381838e-003
2.227415e+003,5.629386e-003
2.229343e+003,6.090564e-003
2.231272e+003,6.068407e-003
2.233200e+003,5.924486e-003
2.235129e+003,6.083158e-003
2.237057e+003,6.487262e-003
2.238986e+003,6.545153e-003
2.240914e+003,6.317917e-003
2.242843e+003,6.122075e-003
2.244771e+003,6.352085e-003
2.246700e+003,6.465253e-003
2.248628e+003,6.152823e-003
2.250557e+003,5.928427e-003
2.252485e+003,6.275221e-003
2.254414e+003,6.251924e-003
2.256342e+003,6.107913e-003
2.258271e+003,6.223772e-003
2.260199e+003,6.596567e-003
2.262128e+003,6.615491e-003
2.264056e+003,6.336310e-003
2.265985e+003,6.289366e-003
2.267913e+003,6.413550e-003
2.269842e+003,6.452666e-003
2.271770e+003,6.646114e-003
2.273699e+003,6.665332e-003
2.275627e+003,6.752930e-003
2.277556e+003,6.980994e-003
2.279484e+003,6.969400e-003
2.281413e+003,6.995555e-003
2.283341e+003,7.021870e-003
2.285270e+003,7.117295e-003
2.287198e+003,6.963529e-003
2.289127e+003,6.941502e-003
2.291055e+003,7.112347e-003
2.292984e+003,7.362286e-003
2.294912e+003,7.480900e-003
2.296841e+003,7.541279e-003
2.298769e+003,7.651499e-003
2.300698e+003,7.601986e-003
2.302626e+003,7.576094e-003
2.304555e+003,7.664328e-003
2.306483e+003,7.814799e-003
2.308412e+003,7.888367e-003
2.310340e+003,7.981861e-003
2.312269e+003,7.795726e-003
2.314197e+003,7.580392e-003
2.316125e+003,7.689186e-003
2.318054e+003,7.816312e-003
2.319983e+003,7.709513e-003
2.321911e+003,7.648456e-003
2.323840e+003,7.791277e-003
2.325768e+003,8.048231e-003
2.327697e+003,8.211724e-003
2.329625e+003,8.439017e-003
2.331553e+003,8.295315e-003
2.333482e+003,8.130302e-003
2.335411e+003,8.211593e-003
2.337339e+003,8.308131e-003
2.339268e+003,8.032865e-003
2.341196e+003,7.777785e-003
2.343125e+003,7.884275e-003
2.345053e+003,7.732463e-003
2.346981e+003,7.594184e-003
2.348910e+003,7.501237e-003
2.350839e+003,7.408223e-003
2.352767e+003,7.287330e-003
2.354696e+003,7.384515e-003
2.356624e+003,7.750761e-003
2.358552e+003,7.370479e-003
2.360481e+003,7.358782e-003
2.362409e+003,7.364909e-003
2.364338e+003,6.843500e-003
2.366267e+003,6.647323e-003
2.368195e+003,7.314438e-003
2.370124e+003,7.610865e-003
2.372052e+003,7.812974e-003
2.373980e+003,7.879391e-003
2.375909e+003,7.817715e-003
2.377838e+003,7.689705e-003
2.379766e+003,7.656661e-003
2.381695e+003,7.714210e-003
2.383623e+003,7.754922e-003
2.385552e+003,7.680870e-003
2.387480e+003,7.472929e-003
2.389408e+003,7.370289e-003
2.391337e+003,7.497642e-003
2.393266e+003,7.596971e-003
2.395194e+003,7.505853e-003
2.397123e+003,7.353372e-003
2.399051e+003,7.212227e-003
2.400979e+003,7.178277e-003
2.402908e+003,7.230898e-003
2.404836e+003,7.190573e-003
2.406765e+003,7.216917e-003
2.408694e+003,7.383744e-003
2.410622e+003,7.374308e-003
2.412551e+003,7.354222e-003
2.414479e+003,7.236592e-003
2.416407e+003,7.247373e-003
2.418336e+003,7.341349e-003
2.420264e+003,7.497673e-003
2.422193e+003,7.551951e-003
2.424122e+003,7.438244e-003
2.426050e+003,7.428099e-003
2.427979e+003,7.336564e-003
2.429907e+003,7.175919e-003
2.431835e+003,7.213918e-003
2.433764e+003,7.166352e-003
2.435692e+003,7.092419e-003
2.437621e+003,7.018634e-003
2.439550e+003,6.996511e-003
2.441478e+003,7.089658e-003
2.443406e+003,7.134622e-003
2.445335e+003,7.205732e-003
2.447263e+003,7.276618e-003
2.449192e+003,7.255089e-003
2.451121e+003,7.211089e-003
2.453049e+003,7.075142e-003
2.454978e+003,7.161434e-003
2.456906e+003,7.241713e-003
2.458834e+003,7.350852e-003
2.460763e+003,7.278135e-003
2.462691e+003,7.308763e-003
2.464620e+003,7.258761e-003
2.466549e+003,7.139775e-003
2.468477e+003,7.164668e-003
2.470406e+003,7.290062e-003
2.472334e+003,7.229685e-003
2.474262e+003,7.060896e-003
2.476191e+003,7.005333e-003
2.478119e+003,7.122294e-003
2.480048e+003,7.186564e-003
2.481977e+003,7.119869e-003
2.483905e+003,7.221499e-003
2.485833e+003,7.363962e-003
2.487762e+003,7.327634e-003
2.489690e+003,7.211965e-003
2.491619e+003,7.238478e-003
2.493547e+003,7.296700e-003
2.495476e+003,7.445457e-003
2.497405e+003,7.488504e-003
2.499333e+003,7.433289e-003
2.501261e+003,7.347988e-003
2.503190e+003,7.369960e-003
2.505118e+003,7.353818e-003
2.507047e+003,7.527609e-003
2.508975e+003,7.584217e-003
2.510904e+003,7.544028e-003
2.512833e+003,7.575856e-003
2.514761e+003,7.489481e-003
2.516689e+003,7.354492e-003
2.518618e+003,7.380644e-003
2.520546e+003,7.300878e-003
2.522475e+003,7.328409e-003
2.524403e+003,7.454794e-003
2.526332e+003,7.462581e-003
2.528260e+003,7.377172e-003
2.530189e+003,7.323320e-003
2.532117e+003,7.383812e-003
2.534046e+003,7.488739e-003
2.535974e+003,7.471210e-003
2.537903e+003,7.373095e-003
2.539831e+003,7.330431e-003
2.541760e+003,7.403090e-003
2.543688e+003,7.418863e-003
2.545617e+003,7.461738e-003
2.547545e+003,7.432009e-003
2.549474e+003,7.390957e-003
2.551402e+003,7.373432e-003
2.553331e+003,7.263511e-003
2.555259e+003,7.299969e-003
2.557188e+003,7.347213e-003
2.559116e+003,7.381520e-003
2.561045e+003,7.366826e-003
2.562973e+003,7.387081e-003
2.564902e+003,7.305765e-003
2.566830e+003,7.298082e-003
2.568759e+003,7.422976e-003
2.570687e+003,7.471379e-003
2.572616e+003,7.376532e-003
2.574544e+003,7.403157e-003
2.576473e+003,7.333295e-003
2.578401e+003,7.452873e-003
2.580330e+003,7.540319e-003
2.582258e+003,7.515742e-003
2.584187e+003,7.455974e-003
2.586115e+003,7.440065e-003
2.588044e+003,7.441244e-003
2.589972e+003,7.415190e-003
2.591901e+003,7.431503e-003
2.593829e+003,7.415156e-003
2.595758e+003,7.381116e-003
2.597686e+003,7.417583e-003
2.599615e+003,7.440098e-003
2.601543e+003,7.407168e-003
2.603472e+003,7.428267e-003
2.605400e+003,7.532801e-003
2.607329e+003,7.452704e-003
2.609257e+003,7.445727e-003
2.611186e+003,7.487223e-003
2.613114e+003,7.582464e-003
2.615043e+003,7.602864e-003
2.616971e+003,7.602594e-003
2.618900e+003,7.554884e-003
2.620828e+003,7.560144e-003
2.622757e+003,7.611496e-003
2.624685e+003,7.644914e-003
2.626614e+003,7.628997e-003
2.628542e+003,7.684067e-003
2.630471e+003,7.741202e-003
2.632399e+003,7.766433e-003
2.634328e+003,7.810388e-003
2.636256e+003,7.884376e-003
2.638185e+003,7.916735e-003
2.640113e+003,7.889842e-003
2.642042e+003,7.912247e-003
2.643970e+003,7.956823e-003
2.645899e+003,7.983821e-003
2.647827e+003,8.030870e-003
2.649756e+003,8.044304e-003
2.651684e+003,8.078396e-003
2.653613e+003,8.133558e-003
2.655541e+003,8.144800e-003
2.657470e+003,8.146387e-003
2.659398e+003,8.171168e-003
2.661327e+003,8.224450e-003
2.663255e+003,8.227117e-003
2.665184e+003,8.206249e-003
2.667112e+003,8.231811e-003
2.669041e+003,8.224213e-003
2.670969e+003,8.235357e-003
2.672898e+003,8.199361e-003
2.674826e+003,8.201826e-003
2.676755e+003,8.226071e-003
2.678683e+003,8.205472e-003
2.680612e+003,8.215535e-003
2.682540e+003,8.265817e-003
2.684469e+003,8.263993e-003
2.686397e+003,8.225632e-003
2.688326e+003,8.250148e-003
2.690254e+003,8.293037e-003
2.692183e+003,8.281589e-003
2.694111e+003,8.230798e-003
2.696040e+003,8.235660e-003
2.697968e+003,8.332958e-003
2.699897e+003,8.351974e-003
2.701825e+003,8.288917e-003
2.703754e+003,8.260886e-003
2.705682e+003,8.286992e-003
2.707611e+003,8.287532e-003
2.709539e+003,8.292699e-003
2.711468e+003,8.320090e-003
2.713396e+003,8.310396e-003
2.715325e+003,8.274969e-003
2.717253e+003,8.275577e-003
2.719182e+003,8.320968e-003
2.721110e+003,8.296752e-003
2.723039e+003,8.262373e-003
2.724967e+003,8.245251e-003
2.726896e+003,8.285101e-003
2.728824e+003,8.286891e-003
2.730753e+003,8.339613e-003
2.732681e+003,8.370485e-003
2.734610e+003,8.347178e-003
2.736538e+003,8.314449e-003
2.738467e+003,8.295806e-003
2.740395e+003,8.299319e-003
2.742324e+003,8.305533e-003
2.744252e+003,8.316544e-003
2.746181e+003,8.352752e-003
2.748109e+003,8.350759e-003
2.750038e+003,8.342821e-003
2.751966e+003,8.297496e-003
2.753895e+003,8.304689e-003
2.755823e+003,8.331270e-003
2.757752e+003,8.421258e-003
2.759680e+003,8.413589e-003
2.761609e+003,8.317557e-003
2.763537e+003,8.332790e-003
2.765466e+003,8.368459e-003
2.767394e+003,8.372782e-003
2.769323e+003,8.383659e-003
2.771251e+003,8.375484e-003
2.773180e+003,8.444298e-003
2.775108e+003,8.456765e-003
2.777037e+003,8.430818e-003
2.778965e+003,8.441832e-003
2.780894e+003,8.445582e-003
2.782822e+003,8.445886e-003
2.784750e+003,8.476023e-003
2.786679e+003,8.458724e-003
2.788608e+003,8.491159e-003
2.790536e+003,8.550294e-003
2.792465e+003,8.569555e-003
2.794393e+003,8.522111e-003
2.796322e+003,8.430548e-003
2.798250e+003,8.465009e-003
2.800178e+003,8.568576e-003
2.802107e+003,8.573611e-003
2.804036e+003,8.531336e-003
2.805964e+003,8.515522e-003
2.807893e+003,8.520827e-003
2.809821e+003,8.576247e-003
2.811750e+003,8.651684e-003
2.813678e+003,8.673452e-003
2.815606e+003,8.670782e-003
2.817535e+003,8.654523e-003
2.819464e+003,8.704416e-003
2.821392e+003,8.800027e-003
2.823321e+003,8.790864e-003
2.825249e+003,8.737140e-003
2.827177e+003,8.769224e-003
2.829106e+003,8.799046e-003
2.831034e+003,8.822918e-003
2.832963e+003,8.914496e-003
2.834892e+003,9.023380e-003
2.836820e+003,9.042359e-003
2.838749e+003,9.035221e-003
2.840677e+003,9.117809e-003
2.842605e+003,9.169752e-003
2.844534e+003,9.227692e-003
2.846462e+003,9.289837e-003
2.848391e+003,9.367666e-003
2.850320e+003,9.429628e-003
2.852248e+003,9.471754e-003
2.854177e+003,9.493765e-003
2.856105e+003,9.457056e-003
2.858033e+003,9.384696e-003
2.859962e+003,9.419436e-003
2.861890e+003,9.371695e-003
2.863819e+003,9.384560e-003
2.865748e+003,9.452789e-003
2.867676e+003,9.452248e-003
2.869604e+003,9.445171e-003
2.871533e+003,9.483572e-003
2.873461e+003,9.503215e-003
2.875390e+003,9.458648e-003
2.877319e+003,9.475343e-003
2.879247e+003,9.437450e-003
2.881176e+003,9.409142e-003
2.883104e+003,9.423228e-003
2.885032e+003,9.489601e-003
2.886961e+003,9.517507e-003
2.888889e+003,9.485062e-003
2.890818e+003,9.429730e-003
2.892747e+003,9.442665e-003
2.894675e+003,9.507786e-003
2.896604e+003,9.545110e-003
2.898532e+003,9.514458e-003
2.900460e+003,9.520081e-003
2.902389e+003,9.524044e-003
2.904317e+003,9.554831e-003
2.906246e+003,9.528683e-003
2.908175e+003,9.556253e-003
2.910103e+003,9.651916e-003
2.912031e+003,9.702195e-003
2.913960e+003,9.704839e-003
2.915888e+003,9.694640e-003
2.917817e+003,9.710361e-003
2.919745e+003,9.653441e-003
2.921674e+003,9.640262e-003
2.923603e+003,9.568854e-003
2.925531e+003,9.498676e-003
2.927459e+003,9.445441e-003
2.929388e+003,9.385847e-003
2.931316e+003,9.388353e-003
2.933245e+003,9.285504e-003
2.935173e+003,9.206071e-003
2.937102e+003,9.153067e-003
2.939031e+003,9.095871e-003
2.940959e+003,9.044730e-003
2.942887e+003,9.027935e-003
2.944816e+003,8.996194e-003
2.946744e+003,8.943796e-003
2.948673e+003,8.926377e-003
2.950601e+003,8.871689e-003
2.952530e+003,8.800561e-003
2.954458e+003,8.733835e-003
2.956387e+003,8.687981e-003
2.958315e+003,8.628614e-003
2.960244e+003,8.572162e-003
2.962172e+003,8.535111e-003
2.964101e+003,8.514873e-003
2.966029e+003,8.528585e-003
2.967958e+003,8.525130e-003
2.969886e+003,8.464784e-003
2.971815e+003,8.405304e-003
2.973743e+003,8.370423e-003
2.975672e+003,8.356796e-003
2.977600e+003,8.393048e-003
2.979529e+003,8.345455e-003
2.981457e+003,8.270510e-003
2.983386e+003,8.257698e-003
2.985314e+003,8.254894e-003
2.987243e+003,8.243827e-003
2.989171e+003,8.230357e-003
2.991100e+003,8.270469e-003
2.993028e+003,8.241078e-003
2.994957e+003,8.213769e-003
2.996885e+003,8.247794e-003
2.998814e+003,8.236164e-003
3.000742e+003,8.185863e-003
3.002671e+003,8.202942e-003
3.004599e+003,8.239773e-003
3.006528e+003,8.224919e-003
3.008456e+003,8.226152e-003
3.010385e+003,8.313983e-003
3.012313e+003,8.334612e-003
3.014242e+003,8.256368e-003
3.016170e+003,8.219630e-003
3.018099e+003,8.296788e-003
3.020027e+003,8.324967e-003
3.021956e+003,8.270005e-003
3.023884e+003,8.269868e-003
3.025813e+003,8.308089e-003
3.027741e+003,8.326594e-003
3.029670e+003,8.324117e-003
3.031598e+003,8.302371e-003
3.033527e+003,8.305223e-003
3.035455e+003,8.370201e-003
3.037384e+003,8.364378e-003
3.039312e+003,8.360893e-003
3.041241e+003,8.397213e-003
3.043169e+003,8.339825e-003
3.045098e+003,8.376496e-003
3.047026e+003,8.484235e-003
3.048955e+003,8.461573e-003
3.050883e+003,8.378142e-003
3.052812e+003,8.354009e-003
3.054740e+003,8.445348e-003
3.056669e+003,8.386564e-003
3.058597e+003,8.405749e-003
3.060526e+003,8.492552e-003
3.062454e+003,8.506863e-003
3.064383e+003,8.555598e-003
3.066311e+003,8.614057e-003
3.068240e+003,8.572694e-003
3.070168e+003,8.535100e-003
3.072097e+003,8.550231e-003
3.074025e+003,8.503343e-003
3.075954e+003,8.583943e-003
3.077882e+003,8.639602e-003
3.079811e+003,8.630462e-003
3.081739e+003,8.601865e-003
3.083668e+003,8.641954e-003
3.085596e+003,8.671458e-003
3.087525e+003,8.621671e-003
3.089453e+003,8.655813e-003
3.091382e+003,8.710974e-003
3.093310e+003,8.721821e-003
3.095239e+003,8.652946e-003
3.097167e+003,8.594377e-003
3.099096e+003,8.630420e-003
3.101024e+003,8.702767e-003
3.102953e+003,8.759961e-003
3.104881e+003,8.779529e-003
3.106810e+003,8.757634e-003
3.108738e+003,8.813024e-003
3.110667e+003,8.841461e-003
3.112595e+003,8.825823e-003
3.114524e+003,8.861856e-003
3.116452e+003,8.850415e-003
3.118381e+003,8.902209e-003
3.120309e+003,8.931105e-003
3.122238e+003,8.894903e-003
3.124166e+003,8.868509e-003
3.126095e+003,8.898739e-003
3.128023e+003,8.913297e-003
3.129952e+003,8.926278e-003
3.131880e+003,8.981726e-003
3.133809e+003,9.030655e-003
3.135737e+003,9.063208e-003
3.137666e+003,9.061026e-003
3.139594e+003,8.997578e-003
3.141523e+003,9.068232e-003
3.143451e+003,9.114348e-003
3.145380e+003,9.077685e-003
3.147308e+003,9.034825e-003
3.149237e+003,8.983699e-003
3.151165e+003,9.062310e-003
3.153094e+003,9.147404e-003
3.155022e+003,9.131892e-003
3.156951e+003,9.109464e-003
3.158879e+003,9.172354e-003
3.160808e+003,9.215808e-003
3.162736e+003,9.187670e-003
3.164665e+003,9.166166e-003
3.166593e+003,9.183638e-003
3.168522e+003,9.285633e-003
3.170450e+003,9.288219e-003
3.172379e+003,9.223863e-003
3.174307e+003,9.244430e-003
3.176236e+003,9.313336e-003
3.178164e+003,9.426091e-003
3.180093e+003,9.388859e-003
3.182021e+003,9.322150e-003
3.183950e+003,9.366808e-003
3.185878e+003,9.380457e-003
3.187807e+003,9.439287e-003
3.189735e+003,9.503218e-003
3.191664e+003,9.551562e-003
3.193592e+003,9.569717e-003
3.195521e+003,9.616947e-003
3.197449e+003,9.633221e-003
3.199378e+003,9.587364e-003
3.201306e+003,9.597110e-003
3.203235e+003,9.625534e-003
3.205163e+003,9.636976e-003
3.207092e+003,9.724600e-003
3.209020e+003,9.689304e-003
3.210948e+003,9.721056e-003
3.212877e+003,9.771098e-003
3.214806e+003,9.731231e-003
3.216734e+003,9.734075e-003
3.218663e+003,9.777987e-003
3.220591e+003,9.814548e-003
3.222520e+003,9.894098e-003
3.224448e+003,9.874639e-003
3.226376e+003,9.927305e-003
3.228305e+003,9.994025e-003
3.230234e+003,9.977473e-003
3.232162e+003,9.948833e-003
3.234091e+003,9.980602e-003
3.236019e+003,1.002262e-002
3.237948e+003,1.001370e-002
3.239876e+003,1.012001e-002
3.241804e+003,1.013949e-002
3.243733e+003,1.018393e-002
3.245662e+003,1.018734e-002
3.247590e+003,1.024506e-002
3.249519e+003,1.032297e-002
3.251447e+003,1.028063e-002
3.253375e+003,1.031269e-002
3.255304e+003,1.040803e-002
3.257232e+003,1.042481e-002
3.259161e+003,1.040255e-002
3.261090e+003,1.034623e-002
3.263018e+003,1.036619e-002
3.264947e+003,1.037678e-002
3.266875e+003,1.036585e-002
3.268803e+003,1.041623e-002
3.270732e+003,1.053058e-002
3.272660e+003,1.049103e-002
3.274589e+003,1.041817e-002
3.276518e+003,1.043048e-002
3.278446e+003,1.046852e-002
3.280375e+003,1.051294e-002
3.282303e+003,1.053274e-002
3.284231e+003,1.050396e-002
3.286160e+003,1.052002e-002
3.288088e+003,1.054550e-002
3.290017e+003,1.057121e-002
3.291946e+003,1.062690e-002
3.293874e+003,1.059173e-002
3.295802e+003,1.047380e-002
3.297731e+003,1.042256e-002
3.299659e+003,1.052099e-002
3.301588e+003,1.058889e-002
3.303516e+003,1.059382e-002
3.305445e+003,1.056696e-002
3.307374e+003,1.048817e-002
3.309302e+003,1.050366e-002
3.311230e+003,1.055337e-002
3.313159e+003,1.052652e-002
3.315087e+003,1.052134e-002
3.317016e+003,1.060399e-002
3.318944e+003,1.059566e-002
3.320873e+003,1.054383e-002
3.322802e+003,1.054130e-002
3.324730e+003,1.056358e-002
3.326658e+003,1.055976e-002
3.328587e+003,1.056990e-002
3.330515e+003,1.059985e-002
3.332444e+003,1.061880e-002
3.334372e+003,1.058168e-002
3.336301e+003,1.054406e-002
3.338229e+003,1.046129e-002
3.340158e+003,1.043326e-002
3.342086e+003,1.042491e-002
3.344015e+003,1.039992e-002
3.345943e+003,1.037718e-002
3.347872e+003,1.035267e-002
3.349800e+003,1.033256e-002
3.351729e+003,1.034424e-002
3.353657e+003,1.030798e-002
3.355586e+003,1.021335e-002
3.357514e+003,1.018491e-002
3.359443e+003,1.024280e-002
3.361371e+003,1.018190e-002
3.363300e+003,1.013869e-002
3.365229e+003,1.016487e-002
3.367157e+003,1.015853e-002
3.369085e+003,1.021448e-002
3.371014e+003,1.016734e-002
3.372942e+003,1.005061e-002
3.374871e+003,9.982960e-003
3.376799e+003,1.000963e-002
3.378728e+003,1.007431e-002
3.380656e+003,1.003775e-002
3.382585e+003,9.949281e-003
3.384513e+003,9.963025e-003
3.386442e+003,9.993603e-003
3.388370e+003,9.930917e-003
3.390299e+003,9.883893e-003
3.392227e+003,9.800828e-003
3.394156e+003,9.731974e-003
3.396084e+003,9.790838e-003
3.398013e+003,9.789923e-003
3.399941e+003,9.781946e-003
3.401870e+003,9.750248e-003
3.403798e+003,9.730540e-003
3.405727e+003,9.746099e-003
3.407655e+003,9.701109e-003
3.409584e+003,9.650121e-003
3.411512e+003,9.562346e-003
3.413441e+003,9.464383e-003
3.415369e+003,9.489076e-003
3.417298e+003,9.474772e-003
3.419226e+003,9.423847e-003
3.421155e+003,9.309221e-003
3.423083e+003,9.261015e-003
3.425012e+003,9.335511e-003
3.426940e+003,9.259366e-003
3.428869e+003,9.152238e-003
3.430797e+003,9.049365e-003
3.432726e+003,9.047166e-003
3.434654e+003,9.084875e-003
3.436583e+003,9.032099e-003
3.438511e+003,9.002944e-003
3.440440e+003,8.982675e-003
3.442368e+003,8.957179e-003
3.444297e+003,8.898472e-003
3.446225e+003,8.779634e-003
3.448154e+003,8.709207e-003
3.450082e+003,8.668391e-003
3.452011e+003,8.668168e-003
3.453939e+003,8.640585e-003
3.455868e+003,8.580135e-003
3.457796e+003,8.504301e-003
3.459725e+003,8.472917e-003
3.461653e+003,8.475396e-003
3.463582e+003,8.384353e-003
3.465510e+003,8.230390e-003
3.467439e+003,8.225244e-003
3.469367e+003,8.318854e-003
3.471296e+003,8.376509e-003
3.473224e+003,8.287618e-003
3.475153e+003,8.210272e-003
3.477081e+003,8.217225e-003
3.479010e+003,8.102139e-003
3.480938e+003,7.972756e-003
3.482867e+003,7.925577e-003
3.484795e+003,7.895462e-003
3.486724e+003,7.870542e-003
3.488652e+003,7.792155e-003
3.490581e+003,7.682074e-003
3.492509e+003,7.747281e-003
3.494438e+003,7.849701e-003
3.496366e+003,7.840331e-003
3.498295e+003,7.708132e-003
3.500223e+003,7.648634e-003
3.502152e+003,7.677860e-003
3.504080e+003,7.660986e-003
3.506009e+003,7.594069e-003
3.507937e+003,7.506028e-003
3.509866e+003,7.438305e-003
3.511794e+003,7.462664e-003
3.513723e+003,7.457326e-003
3.515651e+003,7.399738e-003
3.517580e+003,7.360381e-003
3.519508e+003,7.265896e-003
3.521437e+003,7.238335e-003
3.523365e+003,7.235141e-003
3.525294e+003,7.194345e-003
3.527222e+003,7.211702e-003
3.529151e+003,7.172904e-003
3.531079e+003,7.080015e-003
3.533008e+003,7.019539e-003
3.534936e+003,7.018009e-003
3.536865e+003,6.991087e-003
3.538793e+003,6.962418e-003
3.540722e+003,6.903840e-003
3.542650e+003,6.822510e-003
3.544579e+003,6.765420e-003
3.546507e+003,6.745311e-003
3.548436e+003,6.687194e-003
3.550364e+003,6.650528e-003
3.552293e+003,6.586205e-003
3.554221e+003,6.603982e-003
3.556150e+003,6.684177e-003
3.558078e+003,6.595714e-003
3.560007e+003,6.537884e-003
3.561935e+003,6.452750e-003
3.563864e+003,6.386093e-003
3.565792e+003,6.298806e-003
3.567721e+003,6.239674e-003
3.569649e+003,6.209143e-003
3.571578e+003,6.097751e-003
3.573506e+003,6.045322e-003
3.575435e+003,5.973833e-003
3.577363e+003,5.861735e-003
3.579292e+003,5.771407e-003
3.581220e+003,5.576411e-003
3.583149e+003,5.471895e-003
3.585077e+003,5.219700e-003
3.587006e+003,4.966167e-003
3.588934e+003,4.685968e-003
3.590863e+003,4.288658e-003
3.592791e+003,4.170266e-003
3.594720e+003,4.058787e-003
3.596648e+003,3.836735e-003
3.598577e+003,3.737745e-003
3.600505e+003,3.751444e-003
3.602434e+003,3.789219e-003
3.604362e+003,3.920101e-003
3.606291e+003,4.371836e-003
3.608219e+003,4.800670e-003
3.610148e+003,5.186628e-003
3.612076e+003,5.643133e-003
3.614005e+003,5.489526e-003
3.615933e+003,4.832004e-003
3.617862e+003,4.122992e-003
3.619790e+003,3.604271e-003
3.621719e+003,3.259853e-003
3.623647e+003,3.025923e-003
3.625576e+003,2.979019e-003
3.627504e+003,3.168317e-003
3.629433e+003,3.317201e-003
3.631361e+003,3.507316e-003
3.633290e+003,3.819365e-003
3.635218e+003,4.173530e-003
3.637146e+003,4.477500e-003
3.639075e+003,4.911780e-003
3.641004e+003,5.245311e-003
3.642932e+003,5.490970e-003
3.644861e+003,5.627556e-003
3.646789e+003,5.720288e-003
3.648718e+003,5.779286e-003
3.650646e+003,5.793902e-003
3.652574e+003,5.828009e-003
3.654503e+003,5.858507e-003
3.656432e+003,5.710435e-003
3.658360e+003,5.617566e-003
3.660289e+003,5.770361e-003
3.662217e+003,5.714151e-003
3.664146e+003,5.630842e-003
3.666074e+003,5.644584e-003
3.668002e+003,5.634979e-003
3.669931e+003,5.535160e-003
3.671860e+003,5.425206e-003
3.673788e+003,5.440349e-003
3.675717e+003,5.334286e-003
3.677645e+003,5.126812e-003
3.679573e+003,5.024568e-003
3.681502e+003,4.810557e-003
3.683430e+003,4.648114e-003
3.685359e+003,4.467054e-003
3.687288e+003,4.195098e-003
3.689216e+003,3.868913e-003
3.691145e+003,3.558664e-003
3.693073e+003,3.266989e-003
3.695001e+003,3.070588e-003
3.696930e+003,2.750395e-003
3.698858e+003,2.424208e-003
3.700787e+003,2.315639e-003
3.702716e+003,2.403411e-003
3.704644e+003,2.443500e-003
3.706573e+003,2.684732e-003
3.708501e+003,3.081745e-003
3.710429e+003,3.621474e-003
3.712358e+003,4.259709e-003
3.714286e+003,4.766310e-003
3.716215e+003,4.492825e-003
3.718144e+003,3.658950e-003
3.720072e+003,2.810865e-003
3.722000e+003,2.082475e-003
3.723929e+003,1.529524e-003
3.725857e+003,1.200190e-003
3.727786e+003,9.988729e-004
3.729714e+003,1.180456e-003
3.731643e+003,1.526048e-003
3.733572e+003,1.934503e-003
3.735500e+003,2.300788e-003
3.737428e+003,2.917510e-003
3.739357e+003,3.678752e-003
3.741285e+003,4.356721e-003
3.743214e+003,4.828661e-003
3.745142e+003,5.034506e-003
3.747071e+003,5.318818e-003
3.749000e+003,5.439515e-003
3.750928e+003,5.479452e-003
3.752856e+003,5.563682e-003
3.754785e+003,5.637617e-003
3.756713e+003,5.692578e-003
3.758642e+003,5.659540e-003
3.760570e+003,5.614941e-003
3.762499e+003,5.720255e-003
3.764427e+003,5.795582e-003
3.766356e+003,5.721887e-003
3.768284e+003,5.746465e-003
3.770213e+003,5.648575e-003
3.772141e+003,5.543131e-003
3.774070e+003,5.576548e-003
3.775998e+003,5.759675e-003
3.777927e+003,5.814708e-003
3.779855e+003,5.729403e-003
3.781784e+003,5.706494e-003
3.783712e+003,5.850999e-003
3.785641e+003,5.864657e-003
3.787569e+003,5.825588e-003
3.789498e+003,5.843452e-003
3.791426e+003,5.788428e-003
3.793355e+003,5.686942e-003
3.795283e+003,5.742074e-003
3.797212e+003,5.791351e-003
3.799140e+003,5.816792e-003
3.801069e+003,5.815589e-003
3.802997e+003,5.797940e-003
3.804926e+003,5.814589e-003
3.806854e+003,5.729183e-003
3.808783e+003,5.726696e-003
3.810711e+003,5.784149e-003
3.812640e+003,5.871749e-003
3.814568e+003,5.894079e-003
3.816497e+003,5.855816e-003
3.818425e+003,5.917425e-003
3.820354e+003,5.871779e-003
3.822282e+003,5.752099e-003
3.824211e+003,5.809982e-003
3.826139e+003,5.788716e-003
3.828068e+003,5.816923e-003
3.829996e+003,5.889587e-003
3.831925e+003,5.869368e-003
3.833853e+003,5.858066e-003
3.835782e+003,5.900666e-003
3.837710e+003,5.891982e-003
3.839639e+003,5.919665e-003
3.841567e+003,5.904526e-003
3.843496e+003,5.950171e-003
3.845424e+003,5.921618e-003
3.847353e+003,5.884016e-003
3.849281e+003,5.858321e-003
3.851210e+003,5.936453e-003
3.853138e+003,5.974282e-003
3.855067e+003,5.918493e-003
3.856995e+003,5.981766e-003
3.858924e+003,5.922968e-003
3.860852e+003,5.802464e-003
3.862781e+003,5.861139e-003
3.864709e+003,5.885550e-003
3.866638e+003,5.898944e-003
3.868566e+003,6.053283e-003
3.870495e+003,5.978535e-003
3.872423e+003,5.939397e-003
3.874352e+003,5.953941e-003
3.876280e+003,5.933256e-003
3.878209e+003,5.890529e-003
3.880137e+003,5.904402e-003
3.882066e+003,5.974198e-003
3.883994e+003,5.988163e-003
3.885923e+003,5.887493e-003
3.887851e+003,5.896790e-003
3.889780e+003,5.931131e-003
3.891708e+003,5.925133e-003
3.893637e+003,5.921507e-003
3.895565e+003,5.946643e-003
3.897494e+003,5.958073e-003
3.899422e+003,5.914002e-003
3.901351e+003,5.873498e-003
3.903279e+003,5.988071e-003
3.905208e+003,5.997902e-003
3.907136e+003,5.965804e-003
3.909065e+003,5.995692e-003
3.910993e+003,6.055808e-003
3.912922e+003,6.010460e-003
3.914850e+003,6.068240e-003
3.916779e+003,6.083348e-003
3.918707e+003,5.984345e-003
3.920636e+003,5.915051e-003
3.922564e+003,5.928471e-003
3.924493e+003,5.958358e-003
3.926421e+003,5.943616e-003
3.928350e+003,5.946395e-003
3.930278e+003,5.996405e-003
3.932207e+003,6.025301e-003
3.934135e+003,5.998537e-003
3.936064e+003,5.993964e-003
3.937992e+003,5.951467e-003
3.939921e+003,5.930476e-003
3.941849e+003,5.960998e-003
3.943778e+003,6.014516e-003
3.945706e+003,5.930468e-003
3.947635e+003,5.981290e-003
3.949563e+003,6.033616e-003
3.951492e+003,6.083460e-003
3.953420e+003,6.127343e-003
3.955349e+003,6.046188e-003
3.957277e+003,5.923259e-003
3.959206e+003,5.972865e-003
3.961134e+003,6.044710e-003
3.963063e+003,6.078650e-003
3.964991e+003,6.043748e-003
3.966920e+003,6.010789e-003
3.968848e+003,6.025429e-003
3.970777e+003,5.985322e-003
3.972705e+003,5.998382e-003
3.974634e+003,6.013060e-003
3.976562e+003,6.023988e-003
3.978491e+003,6.023498e-003
3.980419e+003,6.021434e-003
3.982348e+003,6.037892e-003
3.984276e+003,5.951265e-003
3.986205e+003,5.883764e-003
3.988133e+003,5.998999e-003
3.990062e+003,6.002115e-003
3.991990e+003,5.950981e-003
3.993919e+003,5.983493e-003
3.995847e+003,6.061816e-003
3.997776e+003,6.020308e-003
3.999704e+003,6.020711e-003
4.001633e+003,0.000000e+000
