3.991989e+002,2.573130e-002
4.011274e+002,2.516013e-002
4.030559e+002,2.516013e-002
4.049844e+002,2.376243e-002
4.069129e+002,2.444654e-002
4.088414e+002,2.577370e-002
4.107699e+002,2.507010e-002
4.126984e+002,2.496056e-002
4.146269e+002,2.650253e-002
4.165554e+002,2.829507e-002
4.184839e+002,2.822888e-002
4.204124e+002,2.764886e-002
4.223409e+002,2.779223e-002
4.242694e+002,2.723002e-002
4.261979e+002,2.810838e-002
4.281264e+002,2.907267e-002
4.300549e+002,2.964875e-002
4.319834e+002,2.916323e-002
4.339119e+002,2.930281e-002
4.358404e+002,3.108897e-002
4.377689e+002,3.062428e-002
4.396974e+002,2.997606e-002
4.416259e+002,3.087261e-002
4.435544e+002,3.063696e-002
4.454829e+002,3.007697e-002
4.474114e+002,3.046525e-002
4.493399e+002,3.037616e-002
4.512684e+002,3.070576e-002
4.531969e+002,3.132734e-002
4.551254e+002,3.168311e-002
4.570539e+002,3.170081e-002
4.589824e+002,3.156734e-002
4.609109e+002,3.127987e-002
4.628394e+002,3.142371e-002
4.647679e+002,3.109926e-002
4.666964e+002,3.031882e-002
4.686249e+002,2.952140e-002
4.705533e+002,3.015948e-002
4.724819e+002,3.012473e-002
4.744103e+002,2.968860e-002
4.763389e+002,2.860489e-002
4.782673e+002,2.828854e-002
4.801959e+002,2.790589e-002
4.821243e+002,2.754055e-002
4.840529e+002,2.677083e-002
4.859813e+002,2.618878e-002
4.879099e+002,2.605863e-002
4.898383e+002,2.573873e-002
4.917668e+002,2.485230e-002
4.936953e+002,2.449739e-002
4.956238e+002,2.464743e-002
4.975523e+002,2.455262e-002
4.994808e+002,2.447881e-002
5.014093e+002,2.410559e-002
5.033378e+002,2.344168e-002
5.052663e+002,2.338927e-002
5.071948e+002,2.325242e-002
5.091233e+002,2.314859e-002
5.110518e+002,2.359693e-002
5.129803e+002,2.368714e-002
5.149088e+002,2.350050e-002
5.168373e+002,2.359764e-002
5.187658e+002,2.371709e-002
5.206943e+002,2.386336e-002
5.226228e+002,2.388305e-002
5.245513e+002,2.397634e-002
5.264798e+002,2.375089e-002
5.284083e+002,2.397302e-002
5.303368e+002,2.395229e-002
5.322653e+002,2.381441e-002
5.341938e+002,2.341853e-002
5.361223e+002,2.325525e-002
5.380508e+002,2.313361e-002
5.399792e+002,2.386289e-002
5.419078e+002,2.422550e-002
5.438363e+002,2.396899e-002
5.457648e+002,2.373637e-002
5.476932e+002,2.366918e-002
5.496218e+002,2.329167e-002
5.515503e+002,2.356400e-002
5.534788e+002,2.397727e-002
5.554072e+002,2.410654e-002
5.573358e+002,2.382892e-002
5.592643e+002,2.433357e-002
5.611927e+002,2.388389e-002
5.631212e+002,2.357531e-002
5.650497e+002,2.314318e-002
5.669783e+002,2.327019e-002
5.689067e+002,2.361680e-002
5.708352e+002,2.344756e-002
5.727637e+002,2.338456e-002
5.746923e+002,2.328750e-002
5.766207e+002,2.302265e-002
5.785492e+002,2.322505e-002
5.804777e+002,2.315098e-002
5.824063e+002,2.298886e-002
5.843347e+002,2.306991e-002
5.862632e+002,2.298377e-002
5.881917e+002,2.283831e-002
5.901202e+002,2.292458e-002
5.920487e+002,2.295710e-002
5.939772e+002,2.285474e-002
5.959057e+002,2.271594e-002
5.978342e+002,2.259479e-002
5.997627e+002,2.233445e-002
6.016912e+002,2.216444e-002
6.036197e+002,2.215007e-002
6.055482e+002,2.231422e-002
6.074767e+002,2.248159e-002
6.094052e+002,2.241416e-002
6.113337e+002,2.194034e-002
6.132622e+002,2.190564e-002
6.151907e+002,2.169083e-002
6.171192e+002,2.157071e-002
6.190477e+002,2.134139e-002
6.209762e+002,2.095031e-002
6.229047e+002,2.077813e-002
6.248332e+002,2.077191e-002
6.267617e+002,2.038608e-002
6.286902e+002,2.010382e-002
6.306187e+002,2.000905e-002
6.325472e+002,1.998887e-002
6.344756e+002,1.983289e-002
6.364042e+002,1.962397e-002
6.383326e+002,1.957995e-002
6.402612e+002,1.959832e-002
6.421896e+002,1.933408e-002
6.441182e+002,1.916493e-002
6.460466e+002,1.926418e-002
6.479752e+002,1.933619e-002
6.499036e+002,1.910893e-002
6.518322e+002,1.914430e-002
6.537606e+002,1.918109e-002
6.556891e+002,1.914353e-002
6.576177e+002,1.916408e-002
6.595461e+002,1.931303e-002
6.614746e+002,1.928332e-002
6.634031e+002,1.923950e-002
6.653317e+002,1.906682e-002
6.672601e+002,1.890260e-002
6.691886e+002,1.875186e-002
6.711171e+002,1.857330e-002
6.730457e+002,1.837911e-002
6.749741e+002,1.806925e-002
6.769026e+002,1.776978e-002
6.788311e+002,1.763067e-002
6.807596e+002,1.730533e-002
6.826881e+002,1.709837e-002
6.846166e+002,1.673450e-002
6.865451e+002,1.663037e-002
6.884736e+002,1.660270e-002
6.904021e+002,1.661944e-002
6.923306e+002,1.662580e-002
6.942591e+002,1.656337e-002
6.961876e+002,1.634691e-002
6.981161e+002,1.625909e-002
7.000446e+002,1.638141e-002
7.019731e+002,1.651200e-002
7.039016e+002,1.630450e-002
7.058301e+002,1.613107e-002
7.077585e+002,1.606230e-002
7.096871e+002,1.600805e-002
7.116156e+002,1.598806e-002
7.135441e+002,1.600346e-002
7.154725e+002,1.575868e-002
7.174011e+002,1.577989e-002
7.193296e+002,1.566295e-002
7.212581e+002,1.560876e-002
7.231865e+002,1.557658e-002
7.251151e+002,1.549556e-002
7.270436e+002,1.538900e-002
7.289720e+002,1.532575e-002
7.309005e+002,1.513216e-002
7.328290e+002,1.495749e-002
7.347576e+002,1.480674e-002
7.366860e+002,1.480075e-002
7.386145e+002,1.476232e-002
7.405430e+002,1.470275e-002
7.424716e+002,1.457749e-002
7.444000e+002,1.455850e-002
7.463285e+002,1.444957e-002
7.482570e+002,1.444667e-002
7.501855e+002,1.435378e-002
7.521140e+002,1.422541e-002
7.540425e+002,1.405066e-002
7.559710e+002,1.409928e-002
7.578995e+002,1.406641e-002
7.598280e+002,1.399157e-002
7.617565e+002,1.397863e-002
7.636850e+002,1.394589e-002
7.656135e+002,1.395978e-002
7.675420e+002,1.397247e-002
7.694705e+002,1.396922e-002
7.713990e+002,1.413048e-002
7.733275e+002,1.407866e-002
7.752560e+002,1.404259e-002
7.771844e+002,1.412829e-002
7.791130e+002,1.416824e-002
7.810415e+002,1.408732e-002
7.829700e+002,1.420627e-002
7.848984e+002,1.414924e-002
7.868270e+002,1.412343e-002
7.887555e+002,1.410372e-002
7.906840e+002,1.408903e-002
7.926124e+002,1.401460e-002
7.945410e+002,1.397463e-002
7.964695e+002,1.396515e-002
7.983979e+002,1.397692e-002
8.003264e+002,1.399731e-002
8.022549e+002,1.398790e-002
8.041835e+002,1.398688e-002
8.061119e+002,1.395790e-002
8.080404e+002,1.378606e-002
8.099689e+002,1.371821e-002
8.118975e+002,1.365543e-002
8.138259e+002,1.370207e-002
8.157545e+002,1.376804e-002
8.176830e+002,1.365536e-002
8.196115e+002,1.358301e-002
8.215399e+002,1.349140e-002
8.234684e+002,1.336561e-002
8.253970e+002,1.343221e-002
8.273254e+002,1.335074e-002
8.292539e+002,1.332778e-002
8.311824e+002,1.313130e-002
8.331110e+002,1.315241e-002
8.350394e+002,1.316795e-002
8.369679e+002,1.321204e-002
8.388964e+002,1.312491e-002
8.408250e+002,1.308134e-002
8.427534e+002,1.302640e-002
8.446819e+002,1.310920e-002
8.466104e+002,1.309944e-002
8.485389e+002,1.320463e-002
8.504674e+002,1.318919e-002
8.523959e+002,1.307243e-002
8.543244e+002,1.306819e-002
8.562529e+002,1.315732e-002
8.581814e+002,1.320528e-002
8.601099e+002,1.320610e-002
8.620384e+002,1.322980e-002
8.639669e+002,1.336157e-002
8.658954e+002,1.339643e-002
8.678239e+002,1.333639e-002
8.697524e+002,1.329553e-002
8.716809e+002,1.346307e-002
8.736094e+002,1.357375e-002
8.755378e+002,1.369670e-002
8.774664e+002,1.375275e-002
8.793949e+002,1.386224e-002
8.813234e+002,1.403410e-002
8.832518e+002,1.429259e-002
8.851804e+002,1.445798e-002
8.871089e+002,1.466891e-002
8.890374e+002,1.493419e-002
8.909658e+002,1.535713e-002
8.928943e+002,1.555634e-002
8.948229e+002,1.571685e-002
8.967513e+002,1.578666e-002
8.986798e+002,1.576787e-002
9.006083e+002,1.575248e-002
9.025369e+002,1.559717e-002
9.044653e+002,1.538085e-002
9.063938e+002,1.525467e-002
9.083223e+002,1.505149e-002
9.102509e+002,1.500847e-002
9.121793e+002,1.505444e-002
9.141078e+002,1.505849e-002
9.160364e+002,1.504332e-002
9.179648e+002,1.509766e-002
9.198933e+002,1.518869e-002
9.218218e+002,1.540110e-002
9.237504e+002,1.551921e-002
9.256788e+002,1.562692e-002
9.276073e+002,1.571853e-002
9.295358e+002,1.579683e-002
9.314644e+002,1.594565e-002
9.333928e+002,1.620424e-002
9.353213e+002,1.636668e-002
9.372498e+002,1.646960e-002
9.391783e+002,1.668182e-002
9.411068e+002,1.696270e-002
9.430353e+002,1.730265e-002
9.449637e+002,1.763065e-002
9.468923e+002,1.786505e-002
9.488208e+002,1.806808e-002
9.507493e+002,1.840329e-002
9.526777e+002,1.890652e-002
9.546063e+002,1.930033e-002
9.565348e+002,1.956780e-002
9.584633e+002,1.995167e-002
9.603917e+002,2.038515e-002
9.623203e+002,2.078580e-002
9.642488e+002,2.115958e-002
9.661772e+002,2.149883e-002
9.681057e+002,2.185907e-002
9.700343e+002,2.220106e-002
9.719628e+002,2.253624e-002
9.738912e+002,2.293480e-002
9.758197e+002,2.339218e-002
9.777483e+002,2.385907e-002
9.796768e+002,2.436106e-002
9.816052e+002,2.490597e-002
9.835337e+002,2.548692e-002
9.854623e+002,2.593437e-002
9.873907e+002,2.627924e-002
9.893192e+002,2.657369e-002
9.912477e+002,2.673752e-002
9.931763e+002,2.673723e-002
9.951047e+002,2.678724e-002
9.970332e+002,2.701863e-002
9.989617e+002,2.732981e-002
1.000890e+003,2.755722e-002
1.002819e+003,2.792129e-002
1.004747e+003,2.833091e-002
1.006676e+003,2.857586e-002
1.008604e+003,2.879514e-002
1.010533e+003,2.916323e-002
1.012461e+003,2.946457e-002
1.014390e+003,2.988806e-002
1.016318e+003,3.033314e-002
1.018247e+003,3.081443e-002
1.020175e+003,3.132997e-002
1.022104e+003,3.181839e-002
1.024032e+003,3.224237e-002
1.025961e+003,3.268708e-002
1.027889e+003,3.317778e-002
1.029818e+003,3.353067e-002
1.031746e+003,3.380418e-002
1.033675e+003,3.396345e-002
1.035603e+003,3.394092e-002
1.037532e+003,3.376006e-002
1.039460e+003,3.339854e-002
1.041389e+003,3.313290e-002
1.043317e+003,3.283815e-002
1.045246e+003,3.265465e-002
1.047174e+003,3.261732e-002
1.049103e+003,3.250943e-002
1.051031e+003,3.231564e-002
1.052960e+003,3.210988e-002
1.054888e+003,3.192693e-002
1.056817e+003,3.156857e-002
1.058745e+003,3.118292e-002
1.060674e+003,3.075322e-002
1.062602e+003,3.024418e-002
1.064531e+003,2.977655e-002
1.066459e+003,2.930251e-002
1.068388e+003,2.886550e-002
1.070316e+003,2.841880e-002
1.072245e+003,2.804088e-002
1.074173e+003,2.768935e-002
1.076102e+003,2.734580e-002
1.078030e+003,2.693666e-002
1.079959e+003,2.651913e-002
1.081887e+003,2.611865e-002
1.083816e+003,2.578738e-002
1.085744e+003,2.548878e-002
1.087673e+003,2.525923e-002
1.089601e+003,2.506050e-002
1.091530e+003,2.483461e-002
1.093458e+003,2.462882e-002
1.095387e+003,2.445026e-002
1.097315e+003,2.434368e-002
1.099244e+003,2.425463e-002
1.101172e+003,2.416677e-002
1.103101e+003,2.408117e-002
1.105029e+003,2.391155e-002
1.106958e+003,2.366246e-002
1.108886e+003,2.324307e-002
1.110815e+003,2.277582e-002
1.112743e+003,2.225080e-002
1.114672e+003,2.166040e-002
1.116600e+003,2.110385e-002
1.118529e+003,2.067941e-002
1.120457e+003,2.026022e-002
1.122386e+003,1.985156e-002
1.124314e+003,1.941663e-002
1.126243e+003,1.893019e-002
1.128171e+003,1.847323e-002
1.130100e+003,1.803616e-002
1.132028e+003,1.760602e-002
1.133957e+003,1.725004e-002
1.135885e+003,1.696353e-002
1.137814e+003,1.667920e-002
1.139742e+003,1.653351e-002
1.141671e+003,1.650133e-002
1.143599e+003,1.649576e-002
1.145528e+003,1.655038e-002
1.147456e+003,1.662284e-002
1.149385e+003,1.675424e-002
1.151313e+003,1.691481e-002
1.153242e+003,1.709851e-002
1.155170e+003,1.722542e-002
1.157099e+003,1.732024e-002
1.159027e+003,1.730562e-002
1.160956e+003,1.727159e-002
1.162884e+003,1.716806e-002
1.164813e+003,1.693462e-002
1.166741e+003,1.659258e-002
1.168670e+003,1.612246e-002
1.170598e+003,1.559408e-002
1.172526e+003,1.512833e-002
1.174455e+003,1.466994e-002
1.176384e+003,1.423496e-002
1.178312e+003,1.384958e-002
1.180240e+003,1.360052e-002
1.182169e+003,1.335710e-002
1.184098e+003,1.311760e-002
1.186026e+003,1.289150e-002
1.187954e+003,1.273559e-002
1.189883e+003,1.267579e-002
1.191812e+003,1.267529e-002
1.193740e+003,1.271414e-002
1.195668e+003,1.278593e-002
1.197597e+003,1.285146e-002
1.199526e+003,1.283991e-002
1.201454e+003,1.283931e-002
1.203382e+003,1.287727e-002
1.205311e+003,1.278714e-002
1.207240e+003,1.268960e-002
1.209168e+003,1.260290e-002
1.211096e+003,1.250277e-002
1.213025e+003,1.242517e-002
1.214953e+003,1.244659e-002
1.216882e+003,1.248137e-002
1.218810e+003,1.251882e-002
1.220739e+003,1.253742e-002
1.222667e+003,1.256825e-002
1.224596e+003,1.263401e-002
1.226524e+003,1.274102e-002
1.228453e+003,1.280186e-002
1.230381e+003,1.288018e-002
1.232310e+003,1.289918e-002
1.234238e+003,1.291565e-002
1.236167e+003,1.286749e-002
1.238095e+003,1.286658e-002
1.240024e+003,1.282700e-002
1.241952e+003,1.275301e-002
1.243881e+003,1.268146e-002
1.245809e+003,1.262236e-002
1.247738e+003,1.249433e-002
1.249666e+003,1.233582e-002
1.251595e+003,1.219756e-002
1.253523e+003,1.207911e-002
1.255452e+003,1.195181e-002
1.257380e+003,1.179699e-002
1.259309e+003,1.159878e-002
1.261237e+003,1.145092e-002
1.263166e+003,1.134343e-002
1.265094e+003,1.120116e-002
1.267023e+003,1.104053e-002
1.268951e+003,1.091180e-002
1.270880e+003,1.079803e-002
1.272808e+003,1.071206e-002
1.274737e+003,1.062110e-002
1.276665e+003,1.051101e-002
1.278594e+003,1.043675e-002
1.280522e+003,1.040610e-002
1.282451e+003,1.033846e-002
1.284379e+003,1.028920e-002
1.286308e+003,1.024156e-002
1.288236e+003,1.020238e-002
1.290165e+003,1.016494e-002
1.292093e+003,1.020241e-002
1.294022e+003,1.023271e-002
1.295950e+003,1.026798e-002
1.297879e+003,1.034805e-002
1.299807e+003,1.045561e-002
1.301736e+003,1.051085e-002
1.303664e+003,1.060724e-002
1.305593e+003,1.076244e-002
1.307521e+003,1.088386e-002
1.309450e+003,1.098971e-002
1.311378e+003,1.111322e-002
1.313307e+003,1.116396e-002
1.315235e+003,1.120340e-002
1.317164e+003,1.119063e-002
1.319092e+003,1.113891e-002
1.321021e+003,1.106237e-002
1.322949e+003,1.100103e-002
1.324878e+003,1.097808e-002
1.326806e+003,1.091503e-002
1.328735e+003,1.086918e-002
1.330663e+003,1.085698e-002
1.332592e+003,1.084051e-002
1.334520e+003,1.085446e-002
1.336449e+003,1.081752e-002
1.338377e+003,1.076508e-002
1.340306e+003,1.071903e-002
1.342234e+003,1.068494e-002
1.344163e+003,1.065948e-002
1.346091e+003,1.065684e-002
1.348020e+003,1.067412e-002
1.349948e+003,1.074596e-002
1.351877e+003,1.079372e-002
1.353805e+003,1.083180e-002
1.355734e+003,1.094800e-002
1.357662e+003,1.100826e-002
1.359591e+003,1.104636e-002
1.361519e+003,1.114214e-002
1.363448e+003,1.126716e-002
1.365376e+003,1.132297e-002
1.367305e+003,1.135575e-002
1.369233e+003,1.136300e-002
1.371162e+003,1.130339e-002
1.373090e+003,1.123116e-002
1.375019e+003,1.113569e-002
1.376947e+003,1.104295e-002
1.378876e+003,1.094976e-002
1.380804e+003,1.079938e-002
1.382733e+003,1.066091e-002
1.384661e+003,1.055130e-002
1.386590e+003,1.042656e-002
1.388518e+003,1.033774e-002
1.390447e+003,1.026304e-002
1.392375e+003,1.025118e-002
1.394304e+003,1.024245e-002
1.396232e+003,1.024106e-002
1.398161e+003,1.026275e-002
1.400089e+003,1.029887e-002
1.402018e+003,1.032964e-002
1.403946e+003,1.038410e-002
1.405875e+003,1.041798e-002
1.407803e+003,1.046975e-002
1.409732e+003,1.048051e-002
1.411660e+003,1.047725e-002
1.413589e+003,1.052027e-002
1.415517e+003,1.060562e-002
1.417446e+003,1.062057e-002
1.419374e+003,1.063547e-002
1.421303e+003,1.060416e-002
1.423231e+003,1.060405e-002
1.425160e+003,1.060949e-002
1.427088e+003,1.059031e-002
1.429017e+003,1.056218e-002
1.430945e+003,1.044787e-002
1.432874e+003,1.037178e-002
1.434802e+003,1.036592e-002
1.436731e+003,1.030129e-002
1.438659e+003,1.021767e-002
1.440588e+003,1.013985e-002
1.442516e+003,1.005790e-002
1.444445e+003,1.001837e-002
1.446373e+003,1.001138e-002
1.448302e+003,9.972325e-003
1.450230e+003,9.927139e-003
1.452159e+003,9.925525e-003
1.454087e+003,9.926100e-003
1.456016e+003,9.910382e-003
1.457944e+003,9.864092e-003
1.459873e+003,9.824297e-003
1.461801e+003,9.805026e-003
1.463730e+003,9.763718e-003
1.465658e+003,9.696743e-003
1.467587e+003,9.585175e-003
1.469515e+003,9.386378e-003
1.471444e+003,9.194052e-003
1.473372e+003,9.029755e-003
1.475301e+003,8.836390e-003
1.477229e+003,8.704250e-003
1.479158e+003,8.629643e-003
1.481086e+003,8.625509e-003
1.483015e+003,8.572252e-003
1.484943e+003,8.564656e-003
1.486872e+003,8.586030e-003
1.488800e+003,8.597392e-003
1.490729e+003,8.654797e-003
1.492657e+003,8.727799e-003
1.494586e+003,8.814774e-003
1.496514e+003,8.925260e-003
1.498443e+003,8.991590e-003
1.500371e+003,9.021309e-003
1.502300e+003,9.083219e-003
1.504228e+003,9.164455e-003
1.506157e+003,9.245316e-003
1.508085e+003,9.314486e-003
1.510014e+003,9.343140e-003
1.511942e+003,9.357212e-003
1.513871e+003,9.418410e-003
1.515799e+003,9.423267e-003
1.517728e+003,9.343126e-003
1.519656e+003,9.288734e-003
1.521585e+003,9.236366e-003
1.523513e+003,9.184551e-003
1.525442e+003,9.158106e-003
1.527370e+003,9.164522e-003
1.529299e+003,9.151139e-003
1.531227e+003,9.123810e-003
1.533156e+003,9.127231e-003
1.535084e+003,9.139698e-003
1.537013e+003,9.151552e-003
1.538941e+003,9.150422e-003
1.540870e+003,9.121202e-003
1.542798e+003,9.124313e-003
1.544727e+003,9.157451e-003
1.546655e+003,9.119061e-003
1.548584e+003,9.121492e-003
1.550512e+003,9.128151e-003
1.552441e+003,9.092459e-003
1.554369e+003,9.091927e-003
1.556298e+003,9.101550e-003
1.558226e+003,9.106950e-003
1.560155e+003,9.149006e-003
1.562083e+003,9.173520e-003
1.564012e+003,9.169298e-003
1.565940e+003,9.159903e-003
1.567869e+003,9.220570e-003
1.569797e+003,9.272284e-003
1.571726e+003,9.277411e-003
1.573654e+003,9.299646e-003
1.575583e+003,9.332421e-003
1.577511e+003,9.391245e-003
1.579440e+003,9.456876e-003
1.581368e+003,9.478374e-003
1.583297e+003,9.510761e-003
1.585225e+003,9.527385e-003
1.587154e+003,9.579998e-003
1.589082e+003,9.643100e-003
1.591010e+003,9.648742e-003
1.592939e+003,9.617566e-003
1.594868e+003,9.635692e-003
1.596796e+003,9.656703e-003
1.598724e+003,9.635883e-003
1.600653e+003,9.606528e-003
1.602582e+003,9.619577e-003
1.604510e+003,9.611920e-003
1.606438e+003,9.583036e-003
1.608367e+003,9.603640e-003
1.610296e+003,9.612683e-003
1.612224e+003,9.612061e-003
1.614152e+003,9.627737e-003
1.616081e+003,9.669527e-003
1.618010e+003,9.722296e-003
1.619938e+003,9.728980e-003
1.621866e+003,9.778604e-003
1.623795e+003,9.812545e-003
1.625724e+003,9.802707e-003
1.627652e+003,9.798673e-003
1.629580e+003,9.776530e-003
1.631509e+003,9.717386e-003
1.633438e+003,9.737284e-003
1.635366e+003,9.715322e-003
1.637294e+003,9.634562e-003
1.639223e+003,9.600855e-003
1.641151e+003,9.594753e-003
1.643080e+003,9.540148e-003
1.645008e+003,9.465354e-003
1.646937e+003,9.482849e-003
1.648865e+003,9.518398e-003
1.650794e+003,9.507752e-003
1.652722e+003,9.449691e-003
1.654651e+003,9.421652e-003
1.656579e+003,9.360815e-003
1.658508e+003,9.211426e-003
1.660436e+003,9.050041e-003
1.662365e+003,8.948429e-003
1.664293e+003,8.865410e-003
1.666222e+003,8.775031e-003
1.668150e+003,8.655150e-003
1.670079e+003,8.558191e-003
1.672007e+003,8.488538e-003
1.673936e+003,8.420603e-003
1.675864e+003,8.394165e-003
1.677793e+003,8.353723e-003
1.679721e+003,8.280266e-003
1.681650e+003,8.240114e-003
1.683578e+003,8.155225e-003
1.685507e+003,8.086099e-003
1.687435e+003,8.060046e-003
1.689364e+003,8.051196e-003
1.691292e+003,8.028304e-003
1.693221e+003,8.030115e-003
1.695149e+003,8.010528e-003
1.697078e+003,7.977551e-003
1.699006e+003,7.980911e-003
1.700935e+003,7.967026e-003
1.702863e+003,7.952726e-003
1.704792e+003,7.949593e-003
1.706720e+003,8.008616e-003
1.708649e+003,8.042074e-003
1.710577e+003,8.057720e-003
1.712506e+003,8.146032e-003
1.714434e+003,8.175078e-003
1.716363e+003,8.246918e-003
1.718291e+003,8.349085e-003
1.720220e+003,8.376660e-003
1.722148e+003,8.398836e-003
1.724077e+003,8.454471e-003
1.726005e+003,8.444608e-003
1.727934e+003,8.451192e-003
1.729862e+003,8.483649e-003
1.731791e+003,8.519944e-003
1.733719e+003,8.516639e-003
1.735648e+003,8.457270e-003
1.737576e+003,8.342677e-003
1.739505e+003,8.198292e-003
1.741433e+003,8.052144e-003
1.743362e+003,7.930105e-003
1.745290e+003,7.764320e-003
1.747219e+003,7.603642e-003
1.749147e+003,7.513362e-003
1.751076e+003,7.444793e-003
1.753004e+003,7.381951e-003
1.754933e+003,7.228933e-003
1.756861e+003,7.158340e-003
1.758790e+003,7.207436e-003
1.760718e+003,7.143837e-003
1.762647e+003,7.061847e-003
1.764575e+003,7.085790e-003
1.766504e+003,7.094761e-003
1.768432e+003,7.004923e-003
1.770361e+003,6.970178e-003
1.772289e+003,6.977954e-003
1.774218e+003,6.974315e-003
1.776146e+003,6.953271e-003
1.778075e+003,6.941890e-003
1.780003e+003,6.986958e-003
1.781932e+003,6.995647e-003
1.783860e+003,6.989700e-003
1.785789e+003,7.011363e-003
1.787717e+003,6.966590e-003
1.789646e+003,6.972926e-003
1.791574e+003,6.963732e-003
1.793503e+003,6.988695e-003
1.795431e+003,6.960647e-003
1.797360e+003,6.981609e-003
1.799288e+003,7.093149e-003
1.801217e+003,7.063271e-003
1.803145e+003,6.996880e-003
1.805074e+003,7.009750e-003
1.807002e+003,7.088644e-003
1.808931e+003,7.034558e-003
1.810859e+003,7.023452e-003
1.812788e+003,7.060528e-003
1.814716e+003,7.031945e-003
1.816645e+003,7.009550e-003
1.818573e+003,7.018701e-003
1.820502e+003,7.004672e-003
1.822430e+003,6.991352e-003
1.824359e+003,7.008227e-003
1.826287e+003,7.037505e-003
1.828216e+003,7.077584e-003
1.830144e+003,7.092805e-003
1.832073e+003,7.127754e-003
1.834001e+003,7.062298e-003
1.835930e+003,7.049149e-003
1.837858e+003,7.124363e-003
1.839787e+003,7.199098e-003
1.841715e+003,7.212700e-003
1.843644e+003,7.127940e-003
1.845572e+003,7.118450e-003
1.847501e+003,7.108824e-003
1.849429e+003,7.227307e-003
1.851358e+003,7.147672e-003
1.853286e+003,7.148293e-003
1.855215e+003,7.157742e-003
1.857143e+003,7.127190e-003
1.859072e+003,7.130935e-003
1.861000e+003,7.184420e-003
1.862929e+003,7.202295e-003
1.864857e+003,7.204941e-003
1.866786e+003,7.248574e-003
1.868714e+003,7.046707e-003
1.870643e+003,7.012564e-003
1.872571e+003,7.157156e-003
1.874500e+003,7.306566e-003
1.876428e+003,7.227983e-003
1.878357e+003,7.134960e-003
1.880285e+003,7.288761e-003
1.882214e+003,7.328061e-003
1.884142e+003,7.243737e-003
1.886071e+003,7.178915e-003
1.887999e+003,7.109120e-003
1.889928e+003,7.265882e-003
1.891856e+003,7.136972e-003
1.893785e+003,7.077252e-003
1.895713e+003,7.232185e-003
1.897642e+003,7.290907e-003
1.899570e+003,7.155637e-003
1.901499e+003,7.237098e-003
1.903427e+003,7.269327e-003
1.905356e+003,7.161997e-003
1.907284e+003,7.271115e-003
1.909213e+003,7.114495e-003
1.911141e+003,6.911629e-003
1.913070e+003,7.041212e-003
1.914998e+003,7.166123e-003
1.916927e+003,7.210287e-003
1.918855e+003,7.385500e-003
1.920784e+003,7.306596e-003
1.922712e+003,7.135930e-003
1.924641e+003,7.067284e-003
1.926569e+003,7.235960e-003
1.928498e+003,7.075396e-003
1.930426e+003,7.100482e-003
1.932355e+003,7.169311e-003
1.934283e+003,7.105696e-003
1.936212e+003,7.164217e-003
1.938140e+003,6.912289e-003
1.940069e+003,6.696707e-003
1.941997e+003,7.001043e-003
1.943926e+003,7.568514e-003
1.945854e+003,7.655758e-003
1.947783e+003,7.681697e-003
1.949711e+003,7.563072e-003
1.951640e+003,6.990329e-003
1.953568e+003,6.751795e-003
1.955497e+003,7.266324e-003
1.957425e+003,7.471879e-003
1.959354e+003,7.141472e-003
1.961282e+003,7.580315e-003
1.963211e+003,7.229430e-003
1.965139e+003,6.958206e-003
1.967068e+003,6.433770e-003
1.968996e+003,6.181547e-003
1.970925e+003,6.434077e-003
1.972853e+003,6.528974e-003
1.974782e+003,6.290441e-003
1.976710e+003,6.281275e-003
1.978639e+003,5.922240e-003
1.980567e+003,5.893357e-003
1.982496e+003,6.302150e-003
1.984424e+003,6.317287e-003
1.986353e+003,5.898322e-003
1.988281e+003,5.783539e-003
1.990210e+003,4.758466e-003
1.992138e+003,5.310369e-003
1.994067e+003,5.845673e-003
1.995995e+003,5.524476e-003
1.997924e+003,5.181901e-003
1.999852e+003,4.970211e-003
2.001781e+003,4.691706e-003
2.003709e+003,4.580372e-003
2.005638e+003,4.589550e-003
2.007566e+003,3.541435e-003
2.009495e+003,3.675392e-003
2.011423e+003,4.764554e-003
2.013352e+003,5.009489e-003
2.015280e+003,4.604700e-003
2.017208e+003,4.314729e-003
2.019137e+003,2.949307e-003
2.021066e+003,2.902734e-003
2.022994e+003,3.339621e-003
2.024922e+003,3.199588e-003
2.026851e+003,4.466547e-003
2.028780e+003,5.518107e-003
2.030708e+003,4.980459e-003
2.032636e+003,4.549138e-003
2.034565e+003,4.135552e-003
2.036494e+003,4.288667e-003
2.038422e+003,3.956934e-003
2.040350e+003,3.348404e-003
2.042279e+003,3.432986e-003
2.044208e+003,4.305279e-003
2.046136e+003,4.017219e-003
2.048064e+003,3.872435e-003
2.049993e+003,4.796534e-003
2.051921e+003,4.765777e-003
2.053850e+003,5.393095e-003
2.055778e+003,5.805469e-003
2.057707e+003,5.594981e-003
2.059635e+003,5.406350e-003
2.061564e+003,5.248744e-003
2.063492e+003,5.122329e-003
2.065421e+003,4.952364e-003
2.067349e+003,5.014770e-003
2.069278e+003,5.128600e-003
2.071206e+003,5.399709e-003
2.073135e+003,5.719964e-003
2.075063e+003,5.452392e-003
2.076992e+003,5.409641e-003
2.078920e+003,5.450126e-003
2.080849e+003,5.237058e-003
2.082777e+003,5.593494e-003
2.084706e+003,6.014553e-003
2.086634e+003,6.189671e-003
2.088563e+003,5.820523e-003
2.090491e+003,5.496037e-003
2.092420e+003,5.139054e-003
2.094348e+003,5.272352e-003
2.096277e+003,5.769335e-003
2.098205e+003,5.933469e-003
2.100134e+003,5.905322e-003
2.102062e+003,5.680377e-003
2.103991e+003,5.406697e-003
2.105919e+003,5.494772e-003
2.107848e+003,5.809171e-003
2.109776e+003,5.786102e-003
2.111705e+003,5.643182e-003
2.113633e+003,5.951037e-003
2.115562e+003,5.972301e-003
2.117490e+003,5.731876e-003
2.119419e+003,5.734361e-003
2.121347e+003,5.760013e-003
2.123276e+003,5.939079e-003
2.125204e+003,6.070974e-003
2.127133e+003,6.215043e-003
2.129061e+003,5.819245e-003
2.130990e+003,5.386032e-003
2.132918e+003,5.322564e-003
2.134847e+003,5.558064e-003
2.136775e+003,5.631266e-003
2.138704e+003,5.783953e-003
2.140632e+003,5.350808e-003
2.142561e+003,4.620113e-003
2.144489e+003,5.123467e-003
2.146418e+003,5.356142e-003
2.148346e+003,5.261655e-003
2.150275e+003,5.055949e-003
2.152203e+003,4.096168e-003
2.154132e+003,4.614152e-003
2.156060e+003,4.099011e-003
2.157989e+003,2.935135e-003
2.159917e+003,2.701320e-003
2.161846e+003,2.137993e-003
2.163774e+003,3.534638e-003
2.165703e+003,4.888672e-003
2.167631e+003,4.718245e-003
2.169560e+003,4.415480e-003
2.171488e+003,4.947317e-003
2.173417e+003,4.785443e-003
2.175345e+003,5.474539e-003
2.177274e+003,5.291337e-003
2.179202e+003,4.041751e-003
2.181131e+003,4.734893e-003
2.183059e+003,4.949094e-003
2.184988e+003,3.963065e-003
2.186916e+003,4.145205e-003
2.188845e+003,5.289325e-003
2.190773e+003,5.496987e-003
2.192702e+003,4.826987e-003
2.194630e+003,4.254272e-003
2.196559e+003,4.551568e-003
2.198487e+003,4.724609e-003
2.200416e+003,4.552606e-003
2.202344e+003,4.953953e-003
2.204273e+003,5.329038e-003
2.206201e+003,5.195154e-003
2.208130e+003,5.145395e-003
2.210058e+003,4.612980e-003
2.211987e+003,4.293958e-003
2.213915e+003,4.547583e-003
2.215844e+003,4.839249e-003
2.217772e+003,4.891454e-003
2.219701e+003,4.846687e-003
2.221629e+003,4.769899e-003
2.223558e+003,4.782998e-003
2.225486e+003,4.924797e-003
2.227415e+003,5.164909e-003
2.229343e+003,5.540713e-003
2.231272e+003,5.495145e-003
2.233200e+003,5.343538e-003
2.235129e+003,5.394663e-003
2.237057e+003,5.825482e-003
2.238986e+003,6.395936e-003
2.240914e+003,6.570104e-003
2.242843e+003,6.154126e-003
2.244771e+003,6.153510e-003
2.246700e+003,6.106438e-003
2.248628e+003,6.179788e-003
2.250557e+003,6.093790e-003
2.252485e+003,6.156385e-003
2.254414e+003,6.390773e-003
2.256342e+003,6.484149e-003
2.258271e+003,6.123925e-003
2.260199e+003,6.053294e-003
2.262128e+003,6.168719e-003
2.264056e+003,6.196930e-003
2.265985e+003,6.247762e-003
2.267913e+003,6.311941e-003
2.269842e+003,6.435799e-003
2.271770e+003,6.480459e-003
2.273699e+003,6.341384e-003
2.275627e+003,6.099336e-003
2.277556e+003,6.351608e-003
2.279484e+003,6.621196e-003
2.281413e+003,6.401521e-003
2.283341e+003,6.458848e-003
2.285270e+003,6.552066e-003
2.287198e+003,6.597277e-003
2.289127e+003,6.770055e-003
2.291055e+003,6.641090e-003
2.292984e+003,6.600907e-003
2.294912e+003,6.724999e-003
2.296841e+003,6.708482e-003
2.298769e+003,6.883254e-003
2.300698e+003,6.897456e-003
2.302626e+003,6.877055e-003
2.304555e+003,6.937014e-003
2.306483e+003,6.869829e-003
2.308412e+003,6.766199e-003
2.310340e+003,6.681466e-003
2.312269e+003,6.556290e-003
2.314197e+003,6.477971e-003
2.316125e+003,6.596708e-003
2.318054e+003,6.730207e-003
2.319983e+003,6.775570e-003
2.321911e+003,6.686774e-003
2.323840e+003,6.992527e-003
2.325768e+003,7.358582e-003
2.327697e+003,7.382348e-003
2.329625e+003,7.403433e-003
2.331553e+003,7.494619e-003
2.333482e+003,7.273026e-003
2.335411e+003,7.128358e-003
2.337339e+003,7.201959e-003
2.339268e+003,7.246096e-003
2.341196e+003,7.125773e-003
2.343125e+003,7.202372e-003
2.345053e+003,7.240123e-003
2.346981e+003,7.169953e-003
2.348910e+003,7.194417e-003
2.350839e+003,7.091038e-003
2.352767e+003,7.168324e-003
2.354696e+003,7.205045e-003
2.356624e+003,6.879752e-003
2.358552e+003,6.883561e-003
2.360481e+003,6.950637e-003
2.362409e+003,6.946099e-003
2.364338e+003,6.877334e-003
2.366267e+003,6.723063e-003
2.368195e+003,6.799221e-003
2.370124e+003,6.724173e-003
2.372052e+003,6.697656e-003
2.373980e+003,6.857339e-003
2.375909e+003,6.919017e-003
2.377838e+003,6.890759e-003
2.379766e+003,6.876623e-003
2.381695e+003,6.971536e-003
2.383623e+003,6.901020e-003
2.385552e+003,6.861369e-003
2.387480e+003,6.864917e-003
2.389408e+003,6.884493e-003
2.391337e+003,6.835440e-003
2.393266e+003,6.780678e-003
2.395194e+003,6.646091e-003
2.397123e+003,6.532494e-003
2.399051e+003,6.590862e-003
2.400979e+003,6.641212e-003
2.402908e+003,6.633003e-003
2.404836e+003,6.604542e-003
2.406765e+003,6.598957e-003
2.408694e+003,6.660357e-003
2.410622e+003,6.780591e-003
2.412551e+003,6.825388e-003
2.414479e+003,6.735730e-003
2.416407e+003,6.712310e-003
2.418336e+003,6.767465e-003
2.420264e+003,6.745187e-003
2.422193e+003,6.702417e-003
2.424122e+003,6.699859e-003
2.426050e+003,6.802939e-003
2.427979e+003,6.896246e-003
2.429907e+003,6.808492e-003
2.431835e+003,6.903316e-003
2.433764e+003,6.902407e-003
2.435692e+003,6.909746e-003
2.437621e+003,7.095046e-003
2.439550e+003,7.044092e-003
2.441478e+003,6.990988e-003
2.443406e+003,6.934760e-003
2.445335e+003,6.792202e-003
2.447263e+003,6.787120e-003
2.449192e+003,6.947116e-003
2.451121e+003,7.062109e-003
2.453049e+003,6.941527e-003
2.454978e+003,6.895405e-003
2.456906e+003,6.902440e-003
2.458834e+003,6.985803e-003
2.460763e+003,6.981796e-003
2.462691e+003,7.034730e-003
2.464620e+003,7.154529e-003
2.466549e+003,6.962671e-003
2.468477e+003,6.891567e-003
2.470406e+003,6.957924e-003
2.472334e+003,6.926377e-003
2.474262e+003,6.889514e-003
2.476191e+003,7.021597e-003
2.478119e+003,7.101816e-003
2.480048e+003,7.096764e-003
2.481977e+003,7.113402e-003
2.483905e+003,7.099560e-003
2.485833e+003,6.905268e-003
2.487762e+003,6.821619e-003
2.489690e+003,6.926714e-003
2.491619e+003,7.035100e-003
2.493547e+003,7.023954e-003
2.495476e+003,7.035841e-003
2.497405e+003,7.070090e-003
2.499333e+003,7.101176e-003
2.501261e+003,7.042273e-003
2.503190e+003,7.014761e-003
2.505118e+003,7.043789e-003
2.507047e+003,7.134150e-003
2.508975e+003,7.084067e-003
2.510904e+003,7.073290e-003
2.512833e+003,7.096932e-003
2.514761e+003,7.059280e-003
2.516689e+003,7.066588e-003
2.518618e+003,7.081642e-003
2.520546e+003,6.996410e-003
2.522475e+003,7.005804e-003
2.524403e+003,6.915065e-003
2.526332e+003,6.900454e-003
2.528260e+003,6.995130e-003
2.530189e+003,7.036515e-003
2.532117e+003,7.036077e-003
2.534046e+003,7.042644e-003
2.535974e+003,6.993076e-003
2.537903e+003,7.069013e-003
2.539831e+003,7.186732e-003
2.541760e+003,7.060290e-003
2.543688e+003,6.935130e-003
2.545617e+003,6.850129e-003
2.547545e+003,6.906009e-003
2.549474e+003,6.925468e-003
2.551402e+003,6.882983e-003
2.553331e+003,6.915301e-003
2.555259e+003,6.892072e-003
2.557188e+003,6.843666e-003
2.559116e+003,6.816469e-003
2.561045e+003,6.915469e-003
2.562973e+003,7.008431e-003
2.564902e+003,6.982200e-003
2.566830e+003,6.853024e-003
2.568759e+003,6.880761e-003
2.570687e+003,6.850364e-003
2.572616e+003,6.761913e-003
2.574544e+003,6.673109e-003
2.576473e+003,6.721631e-003
2.578401e+003,6.787154e-003
2.580330e+003,6.788500e-003
2.582258e+003,6.906682e-003
2.584187e+003,6.981089e-003
2.586115e+003,6.879785e-003
2.588044e+003,6.852518e-003
2.589972e+003,6.808997e-003
2.591901e+003,6.794087e-003
2.593829e+003,6.828923e-003
2.595758e+003,6.827341e-003
2.597686e+003,6.771740e-003
2.599615e+003,6.771841e-003
2.601543e+003,6.875207e-003
2.603472e+003,6.930821e-003
2.605400e+003,6.932639e-003
2.607329e+003,6.900320e-003
2.609257e+003,6.899815e-003
2.611186e+003,7.005231e-003
2.613114e+003,7.014188e-003
2.615043e+003,6.991190e-003
2.616971e+003,6.972132e-003
2.618900e+003,6.977553e-003
2.620828e+003,7.027086e-003
2.622757e+003,7.132028e-003
2.624685e+003,7.152272e-003
2.626614e+003,7.113671e-003
2.628542e+003,7.050558e-003
2.630471e+003,7.110169e-003
2.632399e+003,7.214727e-003
2.634328e+003,7.319681e-003
2.636256e+003,7.322512e-003
2.638185e+003,7.385126e-003
2.640113e+003,7.418762e-003
2.642042e+003,7.427256e-003
2.643970e+003,7.416976e-003
2.645899e+003,7.414077e-003
2.647827e+003,7.420481e-003
2.649756e+003,7.443570e-003
2.651684e+003,7.526463e-003
2.653613e+003,7.572855e-003
2.655541e+003,7.601077e-003
2.657470e+003,7.623399e-003
2.659398e+003,7.631897e-003
2.661327e+003,7.692971e-003
2.663255e+003,7.690543e-003
2.665184e+003,7.689835e-003
2.667112e+003,7.684742e-003
2.669041e+003,7.687507e-003
2.670969e+003,7.715635e-003
2.672898e+003,7.720054e-003
2.674826e+003,7.732297e-003
2.676755e+003,7.770143e-003
2.678683e+003,7.721336e-003
2.680612e+003,7.717356e-003
2.682540e+003,7.787212e-003
2.684469e+003,7.814605e-003
2.686397e+003,7.836736e-003
2.688326e+003,7.804113e-003
2.690254e+003,7.764510e-003
2.692183e+003,7.842437e-003
2.694111e+003,7.886400e-003
2.696040e+003,7.860454e-003
2.697968e+003,7.845170e-003
2.699897e+003,7.889403e-003
2.701825e+003,7.936643e-003
2.703754e+003,7.970558e-003
2.705682e+003,7.994217e-003
2.707611e+003,7.960097e-003
2.709539e+003,7.960469e-003
2.711468e+003,7.951964e-003
2.713396e+003,7.923247e-003
2.715325e+003,7.962392e-003
2.717253e+003,8.013252e-003
2.719182e+003,8.023918e-003
2.721110e+003,8.023748e-003
2.723039e+003,8.022634e-003
2.724967e+003,7.999920e-003
2.726896e+003,8.059932e-003
2.728824e+003,8.035224e-003
2.730753e+003,8.020373e-003
2.732681e+003,8.060439e-003
2.734610e+003,8.036608e-003
2.736538e+003,8.005016e-003
2.738467e+003,8.001101e-003
2.740395e+003,8.049772e-003
2.742324e+003,8.082953e-003
2.744252e+003,8.086835e-003
2.746181e+003,8.059021e-003
2.748109e+003,8.052033e-003
2.750038e+003,8.075899e-003
2.751966e+003,8.096557e-003
2.753895e+003,8.109622e-003
2.755823e+003,8.090785e-003
2.757752e+003,8.098144e-003
2.759680e+003,8.133253e-003
2.761609e+003,8.129438e-003
2.763537e+003,8.118196e-003
2.765466e+003,8.131937e-003
2.767394e+003,8.211652e-003
2.769323e+003,8.242887e-003
2.771251e+003,8.195107e-003
2.773180e+003,8.147433e-003
2.775108e+003,8.205304e-003
2.777037e+003,8.226476e-003
2.778965e+003,8.216684e-003
2.780894e+003,8.220769e-003
2.782822e+003,8.240422e-003
2.784750e+003,8.279731e-003
2.786679e+003,8.325730e-003
2.788608e+003,8.307188e-003
2.790536e+003,8.267911e-003
2.792465e+003,8.270613e-003
2.794393e+003,8.291889e-003
2.796322e+003,8.329615e-003
2.798250e+003,8.378727e-003
2.800178e+003,8.338802e-003
2.802107e+003,8.316341e-003
2.804036e+003,8.353867e-003
2.805964e+003,8.420177e-003
2.807893e+003,8.402677e-003
2.809821e+003,8.369134e-003
2.811750e+003,8.356974e-003
2.813678e+003,8.383693e-003
2.815606e+003,8.442879e-003
2.817535e+003,8.499066e-003
2.819464e+003,8.518191e-003
2.821392e+003,8.530356e-003
2.823321e+003,8.525051e-003
2.825249e+003,8.564284e-003
2.827177e+003,8.625422e-003
2.829106e+003,8.616296e-003
2.831034e+003,8.627078e-003
2.832963e+003,8.700833e-003
2.834892e+003,8.796983e-003
2.836820e+003,8.803712e-003
2.838749e+003,8.838709e-003
2.840677e+003,8.925658e-003
2.842605e+003,8.948860e-003
2.844534e+003,9.018847e-003
2.846462e+003,9.123832e-003
2.848391e+003,9.239301e-003
2.850320e+003,9.299925e-003
2.852248e+003,9.285301e-003
2.854177e+003,9.252535e-003
2.856105e+003,9.218757e-003
2.858033e+003,9.200684e-003
2.859962e+003,9.159769e-003
2.861890e+003,9.145861e-003
2.863819e+003,9.154727e-003
2.865748e+003,9.181055e-003
2.867676e+003,9.131006e-003
2.869604e+003,9.041378e-003
2.871533e+003,9.066075e-003
2.873461e+003,9.201462e-003
2.875390e+003,9.247797e-003
2.877319e+003,9.173068e-003
2.879247e+003,9.160141e-003
2.881176e+003,9.158720e-003
2.883104e+003,9.194762e-003
2.885032e+003,9.214458e-003
2.886961e+003,9.232870e-003
2.888889e+003,9.228200e-003
2.890818e+003,9.229045e-003
2.892747e+003,9.269087e-003
2.894675e+003,9.329512e-003
2.896604e+003,9.292308e-003
2.898532e+003,9.292004e-003
2.900460e+003,9.324535e-003
2.902389e+003,9.347319e-003
2.904317e+003,9.324095e-003
2.906246e+003,9.304799e-003
2.908175e+003,9.310148e-003
2.910103e+003,9.389436e-003
2.912031e+003,9.515543e-003
2.913960e+003,9.579727e-003
2.915888e+003,9.588975e-003
2.917817e+003,9.597240e-003
2.919745e+003,9.546635e-003
2.921674e+003,9.507279e-003
2.923603e+003,9.485503e-003
2.925531e+003,9.368207e-003
2.927459e+003,9.281307e-003
2.929388e+003,9.265296e-003
2.931316e+003,9.224138e-003
2.933245e+003,9.161360e-003
2.935173e+003,9.071060e-003
2.937102e+003,8.971218e-003
2.939031e+003,8.947589e-003
2.940959e+003,8.869883e-003
2.942887e+003,8.770638e-003
2.944816e+003,8.734934e-003
2.946744e+003,8.700341e-003
2.948673e+003,8.641944e-003
2.950601e+003,8.590415e-003
2.952530e+003,8.563626e-003
2.954458e+003,8.556387e-003
2.956387e+003,8.514511e-003
2.958315e+003,8.456765e-003
2.960244e+003,8.415236e-003
2.962172e+003,8.442932e-003
2.964101e+003,8.374026e-003
2.966029e+003,8.310434e-003
2.967958e+003,8.293636e-003
2.969886e+003,8.302175e-003
2.971815e+003,8.314762e-003
2.973743e+003,8.292604e-003
2.975672e+003,8.255176e-003
2.977600e+003,8.191904e-003
2.979529e+003,8.119565e-003
2.981457e+003,8.183251e-003
2.983386e+003,8.200268e-003
2.985314e+003,8.176172e-003
2.987243e+003,8.147023e-003
2.989171e+003,8.158172e-003
2.991100e+003,8.152585e-003
2.993028e+003,8.141063e-003
2.994957e+003,8.100853e-003
2.996885e+003,8.045704e-003
2.998814e+003,8.067650e-003
3.000742e+003,8.124762e-003
3.002671e+003,8.091726e-003
3.004599e+003,8.061123e-003
3.006528e+003,8.038830e-003
3.008456e+003,8.027215e-003
3.010385e+003,8.099020e-003
3.012313e+003,8.128443e-003
3.014242e+003,8.159350e-003
3.016170e+003,8.163325e-003
3.018099e+003,8.134728e-003
3.020027e+003,8.144708e-003
3.021956e+003,8.160403e-003
3.023884e+003,8.134653e-003
3.025813e+003,8.123199e-003
3.027741e+003,8.186207e-003
3.029670e+003,8.219788e-003
3.031598e+003,8.177997e-003
3.033527e+003,8.087383e-003
3.035455e+003,8.108404e-003
3.037384e+003,8.096625e-003
3.039312e+003,8.092831e-003
3.041241e+003,8.139479e-003
3.043169e+003,8.138631e-003
3.045098e+003,8.111329e-003
3.047026e+003,8.150775e-003
3.048955e+003,8.211013e-003
3.050883e+003,8.244121e-003
3.052812e+003,8.190218e-003
3.054740e+003,8.241250e-003
3.056669e+003,8.252444e-003
3.058597e+003,8.236045e-003
3.060526e+003,8.248381e-003
3.062454e+003,8.264605e-003
3.064383e+003,8.284579e-003
3.066311e+003,8.315997e-003
3.068240e+003,8.356030e-003
3.070168e+003,8.331386e-003
3.072097e+003,8.315098e-003
3.074025e+003,8.335731e-003
3.075954e+003,8.403646e-003
3.077882e+003,8.440695e-003
3.079811e+003,8.357479e-003
3.081739e+003,8.333866e-003
3.083668e+003,8.405223e-003
3.085596e+003,8.472429e-003
3.087525e+003,8.379347e-003
3.089453e+003,8.424029e-003
3.091382e+003,8.460438e-003
3.093310e+003,8.423069e-003
3.095239e+003,8.396002e-003
3.097167e+003,8.447336e-003
3.099096e+003,8.518871e-003
3.101024e+003,8.469857e-003
3.102953e+003,8.446173e-003
3.104881e+003,8.424586e-003
3.106810e+003,8.525555e-003
3.108738e+003,8.621317e-003
3.110667e+003,8.525629e-003
3.112595e+003,8.499254e-003
3.114524e+003,8.549030e-003
3.116452e+003,8.540125e-003
3.118381e+003,8.481721e-003
3.120309e+003,8.532939e-003
3.122238e+003,8.612075e-003
3.124166e+003,8.678371e-003
3.126095e+003,8.669485e-003
3.128023e+003,8.665067e-003
3.129952e+003,8.719380e-003
3.131880e+003,8.645876e-003
3.133809e+003,8.660594e-003
3.135737e+003,8.716937e-003
3.137666e+003,8.679330e-003
3.139594e+003,8.689566e-003
3.141523e+003,8.746045e-003
3.143451e+003,8.715893e-003
3.145380e+003,8.778234e-003
3.147308e+003,8.801820e-003
3.149237e+003,8.806147e-003
3.151165e+003,8.910561e-003
3.153094e+003,8.906061e-003
3.155022e+003,8.922252e-003
3.156951e+003,9.007998e-003
3.158879e+003,8.930866e-003
3.160808e+003,8.925877e-003
3.162736e+003,8.954711e-003
3.164665e+003,8.978289e-003
3.166593e+003,8.952327e-003
3.168522e+003,8.957485e-003
3.170450e+003,9.039393e-003
3.172379e+003,9.062270e-003
3.174307e+003,9.010364e-003
3.176236e+003,9.030417e-003
3.178164e+003,9.015867e-003
3.180093e+003,9.003103e-003
3.182021e+003,9.065186e-003
3.183950e+003,9.169220e-003
3.185878e+003,9.257975e-003
3.187807e+003,9.202818e-003
3.189735e+003,9.061427e-003
3.191664e+003,9.106960e-003
3.193592e+003,9.166552e-003
3.195521e+003,9.170823e-003
3.197449e+003,9.267421e-003
3.199378e+003,9.311189e-003
3.201306e+003,9.291420e-003
3.203235e+003,9.327660e-003
3.205163e+003,9.297678e-003
3.207092e+003,9.322505e-003
3.209020e+003,9.369520e-003
3.210948e+003,9.349535e-003
3.212877e+003,9.396938e-003
3.214806e+003,9.447736e-003
3.216734e+003,9.415643e-003
3.218663e+003,9.351183e-003
3.220591e+003,9.364312e-003
3.222520e+003,9.419043e-003
3.224448e+003,9.420379e-003
3.226376e+003,9.479705e-003
3.228305e+003,9.516533e-003
3.230234e+003,9.487074e-003
3.232162e+003,9.470735e-003
3.234091e+003,9.502867e-003
3.236019e+003,9.534660e-003
3.237948e+003,9.621965e-003
3.239876e+003,9.664649e-003
3.241804e+003,9.605163e-003
3.243733e+003,9.594481e-003
3.245662e+003,9.607240e-003
3.247590e+003,9.714744e-003
3.249519e+003,9.746275e-003
3.251447e+003,9.713814e-003
3.253375e+003,9.766637e-003
3.255304e+003,9.794065e-003
3.257232e+003,9.786863e-003
3.259161e+003,9.777199e-003
3.261090e+003,9.758597e-003
3.263018e+003,9.849893e-003
3.264947e+003,9.887941e-003
3.266875e+003,9.839295e-003
3.268803e+003,9.905105e-003
3.270732e+003,9.931270e-003
3.272660e+003,9.916522e-003
3.274589e+003,9.918466e-003
3.276518e+003,1.002294e-002
3.278446e+003,9.994847e-003
3.280375e+003,9.951717e-003
3.282303e+003,9.944806e-003
3.284231e+003,9.879777e-003
3.286160e+003,9.863021e-003
3.288088e+003,9.883205e-003
3.290017e+003,9.898369e-003
3.291946e+003,9.850623e-003
3.293874e+003,9.914712e-003
3.295802e+003,9.930748e-003
3.297731e+003,9.900245e-003
3.299659e+003,9.944024e-003
3.301588e+003,9.976161e-003
3.303516e+003,9.940268e-003
3.305445e+003,9.931532e-003
3.307374e+003,9.956849e-003
3.309302e+003,9.928272e-003
3.311230e+003,9.898839e-003
3.313159e+003,9.880118e-003
3.315087e+003,9.934825e-003
3.317016e+003,9.974562e-003
3.318944e+003,9.923927e-003
3.320873e+003,9.936289e-003
3.322802e+003,1.001100e-002
3.324730e+003,1.002097e-002
3.326658e+003,9.968635e-003
3.328587e+003,1.004025e-002
3.330515e+003,1.002269e-002
3.332444e+003,9.971797e-003
3.334372e+003,9.979452e-003
3.336301e+003,1.000468e-002
3.338229e+003,1.003944e-002
3.340158e+003,9.948080e-003
3.342086e+003,9.952200e-003
3.344015e+003,1.000086e-002
3.345943e+003,9.970743e-003
3.347872e+003,9.946048e-003
3.349800e+003,9.873671e-003
3.351729e+003,9.800235e-003
3.353657e+003,9.812249e-003
3.355586e+003,9.755378e-003
3.357514e+003,9.709306e-003
3.359443e+003,9.761700e-003
3.361371e+003,9.747566e-003
3.363300e+003,9.687052e-003
3.365229e+003,9.602242e-003
3.367157e+003,9.631413e-003
3.369085e+003,9.694480e-003
3.371014e+003,9.636710e-003
3.372942e+003,9.636499e-003
3.374871e+003,9.641185e-003
3.376799e+003,9.572589e-003
3.378728e+003,9.547130e-003
3.380656e+003,9.552549e-003
3.382585e+003,9.560063e-003
3.384513e+003,9.506665e-003
3.386442e+003,9.472777e-003
3.388370e+003,9.439836e-003
3.390299e+003,9.445215e-003
3.392227e+003,9.422180e-003
3.394156e+003,9.370806e-003
3.396084e+003,9.447359e-003
3.398013e+003,9.473366e-003
3.399941e+003,9.374556e-003
3.401870e+003,9.346553e-003
3.403798e+003,9.375549e-003
3.405727e+003,9.373388e-003
3.407655e+003,9.303545e-003
3.409584e+003,9.277515e-003
3.411512e+003,9.187211e-003
3.413441e+003,9.141361e-003
3.415369e+003,9.094120e-003
3.417298e+003,9.020119e-003
3.419226e+003,9.021834e-003
3.421155e+003,9.060842e-003
3.423083e+003,9.036981e-003
3.425012e+003,8.963178e-003
3.426940e+003,8.955971e-003
3.428869e+003,8.996061e-003
3.430797e+003,8.967194e-003
3.432726e+003,8.922422e-003
3.434654e+003,8.875297e-003
3.436583e+003,8.807695e-003
3.438511e+003,8.754241e-003
3.440440e+003,8.787469e-003
3.442368e+003,8.792856e-003
3.444297e+003,8.744174e-003
3.446225e+003,8.615874e-003
3.448154e+003,8.553284e-003
3.450082e+003,8.611058e-003
3.452011e+003,8.559965e-003
3.453939e+003,8.472309e-003
3.455868e+003,8.453432e-003
3.457796e+003,8.424897e-003
3.459725e+003,8.341413e-003
3.461653e+003,8.230724e-003
3.463582e+003,8.166945e-003
3.465510e+003,8.199986e-003
3.467439e+003,8.271374e-003
3.469367e+003,8.206314e-003
3.471296e+003,8.125706e-003
3.473224e+003,8.071006e-003
3.475153e+003,8.073259e-003
3.477081e+003,8.123066e-003
3.479010e+003,8.036708e-003
3.480938e+003,7.969785e-003
3.482867e+003,8.060129e-003
3.484795e+003,8.038817e-003
3.486724e+003,7.943957e-003
3.488652e+003,7.876018e-003
3.490581e+003,7.808505e-003
3.492509e+003,7.769357e-003
3.494438e+003,7.755182e-003
3.496366e+003,7.727143e-003
3.498295e+003,7.802395e-003
3.500223e+003,7.814164e-003
3.502152e+003,7.732945e-003
3.504080e+003,7.639087e-003
3.506009e+003,7.613370e-003
3.507937e+003,7.600091e-003
3.509866e+003,7.526323e-003
3.511794e+003,7.499564e-003
3.513723e+003,7.529448e-003
3.515651e+003,7.474817e-003
3.517580e+003,7.385265e-003
3.519508e+003,7.313590e-003
3.521437e+003,7.411147e-003
3.523365e+003,7.452175e-003
3.525294e+003,7.295599e-003
3.527222e+003,7.224368e-003
3.529151e+003,7.253183e-003
3.531079e+003,7.197634e-003
3.533008e+003,7.180229e-003
3.534936e+003,7.174691e-003
3.536865e+003,7.194655e-003
3.538793e+003,7.172868e-003
3.540722e+003,7.205491e-003
3.542650e+003,7.200649e-003
3.544579e+003,7.112955e-003
3.546507e+003,7.054537e-003
3.548436e+003,7.011107e-003
3.550364e+003,7.047968e-003
3.552293e+003,7.000082e-003
3.554221e+003,6.911778e-003
3.556150e+003,6.952069e-003
3.558078e+003,6.938464e-003
3.560007e+003,6.961806e-003
3.561935e+003,6.979451e-003
3.563864e+003,6.927688e-003
3.565792e+003,6.894349e-003
3.567721e+003,6.928496e-003
3.569649e+003,6.927865e-003
3.571578e+003,6.925764e-003
3.573506e+003,6.842820e-003
3.575435e+003,6.852282e-003
3.577363e+003,6.883284e-003
3.579292e+003,6.867020e-003
3.581220e+003,6.819759e-003
3.583149e+003,6.780037e-003
3.585077e+003,6.715374e-003
3.587006e+003,6.767837e-003
3.588934e+003,6.804616e-003
3.590863e+003,6.748762e-003
3.592791e+003,6.797540e-003
3.594720e+003,6.731370e-003
3.596648e+003,6.672245e-003
3.598577e+003,6.760208e-003
3.600505e+003,6.768475e-003
3.602434e+003,6.684839e-003
3.604362e+003,6.608019e-003
3.606291e+003,6.536551e-003
3.608219e+003,6.506458e-003
3.610148e+003,6.525413e-003
3.612076e+003,6.518119e-003
3.614005e+003,6.465477e-003
3.615933e+003,6.483206e-003
3.617862e+003,6.437802e-003
3.619790e+003,6.495182e-003
3.621719e+003,6.592176e-003
3.623647e+003,6.610103e-003
3.625576e+003,6.615805e-003
3.627504e+003,6.526241e-003
3.629433e+003,6.458050e-003
3.631361e+003,6.483680e-003
3.633290e+003,6.536094e-003
3.635218e+003,6.475309e-003
3.637146e+003,6.332715e-003
3.639075e+003,6.223786e-003
3.641004e+003,6.268430e-003
3.642932e+003,6.309893e-003
3.644861e+003,6.319282e-003
3.646789e+003,6.329557e-003
3.648718e+003,6.318399e-003
3.650646e+003,6.264410e-003
3.652574e+003,6.218127e-003
3.654503e+003,6.204964e-003
3.656432e+003,6.327147e-003
3.658360e+003,6.307232e-003
3.660289e+003,6.166834e-003
3.662217e+003,6.225446e-003
3.664146e+003,6.243795e-003
3.666074e+003,6.267704e-003
3.668002e+003,6.203793e-003
3.669931e+003,6.137935e-003
3.671860e+003,6.237116e-003
3.673788e+003,6.229514e-003
3.675717e+003,6.116048e-003
3.677645e+003,6.101624e-003
3.679573e+003,6.092577e-003
3.681502e+003,6.051121e-003
3.683430e+003,6.156133e-003
3.685359e+003,6.062069e-003
3.687288e+003,6.056023e-003
3.689216e+003,6.116358e-003
3.691145e+003,6.225394e-003
3.693073e+003,6.200930e-003
3.695001e+003,6.171292e-003
3.696930e+003,6.276037e-003
3.698858e+003,6.246330e-003
3.700787e+003,6.143602e-003
3.702716e+003,6.140448e-003
3.704644e+003,6.226839e-003
3.706573e+003,6.195811e-003
3.708501e+003,6.163595e-003
3.710429e+003,6.168343e-003
3.712358e+003,6.146214e-003
3.714286e+003,6.116963e-003
3.716215e+003,6.092365e-003
3.718144e+003,6.007079e-003
3.720072e+003,5.933085e-003
3.722000e+003,5.993225e-003
3.723929e+003,6.095920e-003
3.725857e+003,6.148115e-003
3.727786e+003,6.267791e-003
3.729714e+003,6.227992e-003
3.731643e+003,6.260710e-003
3.733572e+003,6.165659e-003
3.735500e+003,6.095498e-003
3.737428e+003,6.168654e-003
3.739357e+003,6.146097e-003
3.741285e+003,6.136003e-003
3.743214e+003,6.199024e-003
3.745142e+003,6.240515e-003
3.747071e+003,6.084302e-003
3.749000e+003,6.036201e-003
3.750928e+003,6.075502e-003
3.752856e+003,6.081527e-003
3.754785e+003,6.056690e-003
3.756713e+003,6.091618e-003
3.758642e+003,6.068586e-003
3.760570e+003,6.106504e-003
3.762499e+003,6.072136e-003
3.764427e+003,6.035414e-003
3.766356e+003,6.018443e-003
3.768284e+003,6.061580e-003
3.770213e+003,6.137355e-003
3.772141e+003,6.087397e-003
3.774070e+003,6.046582e-003
3.775998e+003,6.055865e-003
3.777927e+003,6.064068e-003
3.779855e+003,6.026605e-003
3.781784e+003,5.994810e-003
3.783712e+003,6.047419e-003
3.785641e+003,6.086721e-003
3.787569e+003,6.129172e-003
3.789498e+003,6.135966e-003
3.791426e+003,6.033373e-003
3.793355e+003,6.022559e-003
3.795283e+003,6.138227e-003
3.797212e+003,6.151653e-003
3.799140e+003,6.059302e-003
3.801069e+003,6.004291e-003
3.802997e+003,6.069640e-003
3.804926e+003,6.115690e-003
3.806854e+003,6.207877e-003
3.808783e+003,6.269866e-003
3.810711e+003,6.245844e-003
3.812640e+003,6.204681e-003
3.814568e+003,6.218826e-003
3.816497e+003,6.161375e-003
3.818425e+003,6.154823e-003
3.820354e+003,6.140094e-003
3.822282e+003,6.144063e-003
3.824211e+003,6.107544e-003
3.826139e+003,6.162450e-003
3.828068e+003,6.175163e-003
3.829996e+003,6.148946e-003
3.831925e+003,6.164080e-003
3.833853e+003,6.162426e-003
3.835782e+003,6.278945e-003
3.837710e+003,6.318877e-003
3.839639e+003,6.217812e-003
3.841567e+003,6.212227e-003
3.843496e+003,6.183728e-003
3.845424e+003,6.136515e-003
3.847353e+003,6.239242e-003
3.849281e+003,6.323978e-003
3.851210e+003,6.310606e-003
3.853138e+003,6.288449e-003
3.855067e+003,6.179608e-003
3.856995e+003,6.187373e-003
3.858924e+003,6.256093e-003
3.860852e+003,6.326644e-003
3.862781e+003,6.282859e-003
3.864709e+003,6.355450e-003
3.866638e+003,6.369134e-003
3.868566e+003,6.303373e-003
3.870495e+003,6.287373e-003
3.872423e+003,6.315655e-003
3.874352e+003,6.345500e-003
3.876280e+003,6.262094e-003
3.878209e+003,6.245838e-003
3.880137e+003,6.215300e-003
3.882066e+003,6.249726e-003
3.883994e+003,6.362134e-003
3.885923e+003,6.395440e-003
3.887851e+003,6.353000e-003
3.889780e+003,6.299525e-003
3.891708e+003,6.240400e-003
3.893637e+003,6.230666e-003
3.895565e+003,6.274481e-003
3.897494e+003,6.341480e-003
3.899422e+003,6.330594e-003
3.901351e+003,6.307274e-003
3.903279e+003,6.388729e-003
3.905208e+003,6.336055e-003
3.907136e+003,6.318443e-003
3.909065e+003,6.292395e-003
3.910993e+003,6.298953e-003
3.912922e+003,6.392282e-003
3.914850e+003,6.442780e-003
3.916779e+003,6.372402e-003
3.918707e+003,6.422957e-003
3.920636e+003,6.413498e-003
3.922564e+003,6.368170e-003
3.924493e+003,6.416116e-003
3.926421e+003,6.386594e-003
3.928350e+003,6.388438e-003
3.930278e+003,6.383984e-003
3.932207e+003,6.339784e-003
3.934135e+003,6.295473e-003
3.936064e+003,6.321486e-003
3.937992e+003,6.408608e-003
3.939921e+003,6.403588e-003
3.941849e+003,6.377374e-003
3.943778e+003,6.442053e-003
3.945706e+003,6.427341e-003
3.947635e+003,6.408830e-003
3.949563e+003,6.414087e-003
3.951492e+003,6.410172e-003
3.953420e+003,6.374388e-003
3.955349e+003,6.377888e-003
3.957277e+003,6.351849e-003
3.959206e+003,6.351785e-003
3.961134e+003,6.388935e-003
3.963063e+003,6.377880e-003
3.964991e+003,6.394881e-003
3.966920e+003,6.499676e-003
3.968848e+003,6.488414e-003
3.970777e+003,6.391242e-003
3.972705e+003,6.326561e-003
3.974634e+003,6.250004e-003
3.976562e+003,6.255294e-003
3.978491e+003,6.315649e-003
3.980419e+003,6.371608e-003
3.982348e+003,6.478487e-003
3.984276e+003,6.463416e-003
3.986205e+003,6.373403e-003
3.988133e+003,6.362427e-003
3.990062e+003,6.402615e-003
3.991990e+003,6.417707e-003
3.993919e+003,6.457070e-003
3.995847e+003,6.462705e-003
3.997776e+003,6.465766e-003
3.999704e+003,6.465858e-003
4.001633e+003,0.000000e+000
