3.991989e+002,4.114638e-002
4.011274e+002,4.062226e-002
4.030559e+002,4.062226e-002
4.049844e+002,3.899297e-002
4.069129e+002,4.021686e-002
4.088414e+002,4.186440e-002
4.107699e+002,4.287120e-002
4.126984e+002,4.294520e-002
4.146269e+002,4.262273e-002
4.165554e+002,4.306488e-002
4.184839e+002,4.334830e-002
4.204124e+002,4.427522e-002
4.223409e+002,4.469745e-002
4.242694e+002,4.275676e-002
4.261979e+002,4.315691e-002
4.281264e+002,4.422140e-002
4.300549e+002,4.449166e-002
4.319834e+002,4.372779e-002
4.339119e+002,4.265125e-002
4.358404e+002,4.330087e-002
4.377689e+002,4.376763e-002
4.396974e+002,4.370378e-002
4.416259e+002,4.380706e-002
4.435544e+002,4.348562e-002
4.454829e+002,4.313509e-002
4.474114e+002,4.272199e-002
4.493399e+002,4.212458e-002
4.512684e+002,4.254690e-002
4.531969e+002,4.298918e-002
4.551254e+002,4.302228e-002
4.570539e+002,4.249394e-002
4.589824e+002,4.226111e-002
4.609109e+002,4.187761e-002
4.628394e+002,4.240933e-002
4.647679e+002,4.194315e-002
4.666964e+002,4.118883e-002
4.686249e+002,4.135531e-002
4.705533e+002,4.138016e-002
4.724819e+002,4.104349e-002
4.744103e+002,4.093912e-002
4.763389e+002,4.085971e-002
4.782673e+002,4.005158e-002
4.801959e+002,3.976459e-002
4.821243e+002,3.994057e-002
4.840529e+002,3.947721e-002
4.859813e+002,3.893567e-002
4.879099e+002,3.885407e-002
4.898383e+002,3.851884e-002
4.917668e+002,3.812407e-002
4.936953e+002,3.817023e-002
4.956238e+002,3.791391e-002
4.975523e+002,3.785428e-002
4.994808e+002,3.768035e-002
5.014093e+002,3.722934e-002
5.033378e+002,3.712358e-002
5.052663e+002,3.680750e-002
5.071948e+002,3.720502e-002
5.091233e+002,3.697369e-002
5.110518e+002,3.775349e-002
5.129803e+002,3.800636e-002
5.149088e+002,3.804586e-002
5.168373e+002,3.791875e-002
5.187658e+002,3.804761e-002
5.206943e+002,3.778801e-002
5.226228e+002,3.784453e-002
5.245513e+002,3.816380e-002
5.264798e+002,3.793226e-002
5.284083e+002,3.758563e-002
5.303368e+002,3.698165e-002
5.322653e+002,3.692229e-002
5.341938e+002,3.703708e-002
5.361223e+002,3.652284e-002
5.380508e+002,3.623397e-002
5.399792e+002,3.613542e-002
5.419078e+002,3.648712e-002
5.438363e+002,3.678706e-002
5.457648e+002,3.646550e-002
5.476932e+002,3.647865e-002
5.496218e+002,3.634701e-002
5.515503e+002,3.658792e-002
5.534788e+002,3.648846e-002
5.554072e+002,3.662186e-002
5.573358e+002,3.690606e-002
5.592643e+002,3.692413e-002
5.611927e+002,3.657473e-002
5.631212e+002,3.627194e-002
5.650497e+002,3.595139e-002
5.669783e+002,3.579253e-002
5.689067e+002,3.534900e-002
5.708352e+002,3.523387e-002
5.727637e+002,3.514054e-002
5.746923e+002,3.507769e-002
5.766207e+002,3.481529e-002
5.785492e+002,3.480550e-002
5.804777e+002,3.465823e-002
5.824063e+002,3.444548e-002
5.843347e+002,3.429455e-002
5.862632e+002,3.410596e-002
5.881917e+002,3.390054e-002
5.901202e+002,3.397252e-002
5.920487e+002,3.393120e-002
5.939772e+002,3.372114e-002
5.959057e+002,3.359733e-002
5.978342e+002,3.368915e-002
5.997627e+002,3.340044e-002
6.016912e+002,3.313287e-002
6.036197e+002,3.311086e-002
6.055482e+002,3.295793e-002
6.074767e+002,3.276518e-002
6.094052e+002,3.248731e-002
6.113337e+002,3.219737e-002
6.132622e+002,3.197376e-002
6.151907e+002,3.178447e-002
6.171192e+002,3.161355e-002
6.190477e+002,3.101084e-002
6.209762e+002,3.070214e-002
6.229047e+002,3.043403e-002
6.248332e+002,3.005930e-002
6.267617e+002,2.966895e-002
6.286902e+002,2.939460e-002
6.306187e+002,2.927446e-002
6.325472e+002,2.921836e-002
6.344756e+002,2.915647e-002
6.364042e+002,2.928426e-002
6.383326e+002,2.913133e-002
6.402612e+002,2.892339e-002
6.421896e+002,2.867779e-002
6.441182e+002,2.843995e-002
6.460466e+002,2.841624e-002
6.479752e+002,2.845498e-002
6.499036e+002,2.832023e-002
6.518322e+002,2.821697e-002
6.537606e+002,2.799165e-002
6.556891e+002,2.794075e-002
6.576177e+002,2.780507e-002
6.595461e+002,2.767861e-002
6.614746e+002,2.769853e-002
6.634031e+002,2.763416e-002
6.653317e+002,2.760834e-002
6.672601e+002,2.735085e-002
6.691886e+002,2.705872e-002
6.711171e+002,2.685763e-002
6.730457e+002,2.630749e-002
6.749741e+002,2.546757e-002
6.769026e+002,2.484872e-002
6.788311e+002,2.448719e-002
6.807596e+002,2.398481e-002
6.826881e+002,2.380728e-002
6.846166e+002,2.351296e-002
6.865451e+002,2.337888e-002
6.884736e+002,2.329631e-002
6.904021e+002,2.323049e-002
6.923306e+002,2.330934e-002
6.942591e+002,2.329790e-002
6.961876e+002,2.313212e-002
6.981161e+002,2.295034e-002
7.000446e+002,2.291350e-002
7.019731e+002,2.295252e-002
7.039016e+002,2.273096e-002
7.058301e+002,2.248391e-002
7.077585e+002,2.225233e-002
7.096871e+002,2.202602e-002
7.116156e+002,2.193130e-002
7.135441e+002,2.180509e-002
7.154725e+002,2.166171e-002
7.174011e+002,2.166710e-002
7.193296e+002,2.174526e-002
7.212581e+002,2.151106e-002
7.231865e+002,2.117801e-002
7.251151e+002,2.115117e-002
7.270436e+002,2.107145e-002
7.289720e+002,2.092195e-002
7.309005e+002,2.066983e-002
7.328290e+002,2.050636e-002
7.347576e+002,2.037324e-002
7.366860e+002,2.023379e-002
7.386145e+002,2.002782e-002
7.405430e+002,1.991932e-002
7.424716e+002,1.987090e-002
7.444000e+002,1.981822e-002
7.463285e+002,1.960540e-002
7.482570e+002,1.941751e-002
7.501855e+002,1.933260e-002
7.521140e+002,1.923907e-002
7.540425e+002,1.911301e-002
7.559710e+002,1.912668e-002
7.578995e+002,1.905574e-002
7.598280e+002,1.885879e-002
7.617565e+002,1.875991e-002
7.636850e+002,1.876911e-002
7.656135e+002,1.878063e-002
7.675420e+002,1.878859e-002
7.694705e+002,1.878665e-002
7.713990e+002,1.887201e-002
7.733275e+002,1.888783e-002
7.752560e+002,1.885921e-002
7.771844e+002,1.881554e-002
7.791130e+002,1.875562e-002
7.810415e+002,1.874870e-002
7.829700e+002,1.881101e-002
7.848984e+002,1.874790e-002
7.868270e+002,1.869888e-002
7.887555e+002,1.879066e-002
7.906840e+002,1.885783e-002
7.926124e+002,1.874029e-002
7.945410e+002,1.867249e-002
7.964695e+002,1.872611e-002
7.983979e+002,1.880194e-002
8.003264e+002,1.883347e-002
8.022549e+002,1.881018e-002
8.041835e+002,1.887288e-002
8.061119e+002,1.893881e-002
8.080404e+002,1.905532e-002
8.099689e+002,1.910397e-002
8.118975e+002,1.909199e-002
8.138259e+002,1.918011e-002
8.157545e+002,1.926067e-002
8.176830e+002,1.922995e-002
8.196115e+002,1.921464e-002
8.215399e+002,1.920460e-002
8.234684e+002,1.913825e-002
8.253970e+002,1.932129e-002
8.273254e+002,1.940000e-002
8.292539e+002,1.942346e-002
8.311824e+002,1.943628e-002
8.331110e+002,1.952836e-002
8.350394e+002,1.956617e-002
8.369679e+002,1.970913e-002
8.388964e+002,1.966229e-002
8.408250e+002,1.947114e-002
8.427534e+002,1.932936e-002
8.446819e+002,1.929815e-002
8.466104e+002,1.923992e-002
8.485389e+002,1.918759e-002
8.504674e+002,1.904210e-002
8.523959e+002,1.896131e-002
8.543244e+002,1.896487e-002
8.562529e+002,1.896899e-002
8.581814e+002,1.896961e-002
8.601099e+002,1.904286e-002
8.620384e+002,1.912371e-002
8.639669e+002,1.910092e-002
8.658954e+002,1.922867e-002
8.678239e+002,1.936924e-002
8.697524e+002,1.941310e-002
8.716809e+002,1.953740e-002
8.736094e+002,1.971302e-002
8.755378e+002,1.991163e-002
8.774664e+002,2.011065e-002
8.793949e+002,2.021283e-002
8.813234e+002,2.031886e-002
8.832518e+002,2.076108e-002
8.851804e+002,2.124384e-002
8.871089e+002,2.182939e-002
8.890374e+002,2.247751e-002
8.909658e+002,2.311005e-002
8.928943e+002,2.361921e-002
8.948229e+002,2.393980e-002
8.967513e+002,2.394834e-002
8.986798e+002,2.371939e-002
9.006083e+002,2.330669e-002
9.025369e+002,2.282356e-002
9.044653e+002,2.237616e-002
9.063938e+002,2.211651e-002
9.083223e+002,2.182409e-002
9.102509e+002,2.165402e-002
9.121793e+002,2.168032e-002
9.141078e+002,2.166521e-002
9.160364e+002,2.177054e-002
9.179648e+002,2.197634e-002
9.198933e+002,2.219074e-002
9.218218e+002,2.245037e-002
9.237504e+002,2.263547e-002
9.256788e+002,2.277292e-002
9.276073e+002,2.305337e-002
9.295358e+002,2.334144e-002
9.314644e+002,2.366200e-002
9.333928e+002,2.404254e-002
9.353213e+002,2.444041e-002
9.372498e+002,2.477988e-002
9.391783e+002,2.534889e-002
9.411068e+002,2.597370e-002
9.430353e+002,2.653565e-002
9.449637e+002,2.722594e-002
9.468923e+002,2.787776e-002
9.488208e+002,2.854801e-002
9.507493e+002,2.934172e-002
9.526777e+002,3.014082e-002
9.546063e+002,3.088643e-002
9.565348e+002,3.154263e-002
9.584633e+002,3.223416e-002
9.603917e+002,3.303020e-002
9.623203e+002,3.373893e-002
9.642488e+002,3.430203e-002
9.661772e+002,3.483716e-002
9.681057e+002,3.540625e-002
9.700343e+002,3.600654e-002
9.719628e+002,3.654991e-002
9.738912e+002,3.703230e-002
9.758197e+002,3.755863e-002
9.777483e+002,3.811973e-002
9.796768e+002,3.862711e-002
9.816052e+002,3.899467e-002
9.835337e+002,3.936600e-002
9.854623e+002,3.961283e-002
9.873907e+002,3.970602e-002
9.893192e+002,3.970707e-002
9.912477e+002,3.961512e-002
9.931763e+002,3.947038e-002
9.951047e+002,3.932410e-002
9.970332e+002,3.942706e-002
9.989617e+002,3.969114e-002
1.000890e+003,3.994356e-002
1.002819e+003,4.015667e-002
1.004747e+003,4.035515e-002
1.006676e+003,4.059159e-002
1.008604e+003,4.087422e-002
1.010533e+003,4.118970e-002
1.012461e+003,4.154887e-002
1.014390e+003,4.205677e-002
1.016318e+003,4.261556e-002
1.018247e+003,4.322103e-002
1.020175e+003,4.382020e-002
1.022104e+003,4.430262e-002
1.024032e+003,4.479976e-002
1.025961e+003,4.530184e-002
1.027889e+003,4.578047e-002
1.029818e+003,4.608708e-002
1.031746e+003,4.628516e-002
1.033675e+003,4.631358e-002
1.035603e+003,4.607971e-002
1.037532e+003,4.571269e-002
1.039460e+003,4.519973e-002
1.041389e+003,4.461179e-002
1.043317e+003,4.399811e-002
1.045246e+003,4.346285e-002
1.047174e+003,4.290644e-002
1.049103e+003,4.229250e-002
1.051031e+003,4.163569e-002
1.052960e+003,4.100263e-002
1.054888e+003,4.029414e-002
1.056817e+003,3.944197e-002
1.058745e+003,3.870389e-002
1.060674e+003,3.797083e-002
1.062602e+003,3.728777e-002
1.064531e+003,3.662767e-002
1.066459e+003,3.598361e-002
1.068388e+003,3.539791e-002
1.070316e+003,3.495002e-002
1.072245e+003,3.459113e-002
1.074173e+003,3.429324e-002
1.076102e+003,3.401469e-002
1.078030e+003,3.358909e-002
1.079959e+003,3.314838e-002
1.081887e+003,3.277086e-002
1.083816e+003,3.239803e-002
1.085744e+003,3.201592e-002
1.087673e+003,3.164604e-002
1.089601e+003,3.130191e-002
1.091530e+003,3.091550e-002
1.093458e+003,3.048315e-002
1.095387e+003,3.010439e-002
1.097315e+003,2.980430e-002
1.099244e+003,2.955858e-002
1.101172e+003,2.939688e-002
1.103101e+003,2.925672e-002
1.105029e+003,2.905431e-002
1.106958e+003,2.883079e-002
1.108886e+003,2.841714e-002
1.110815e+003,2.790126e-002
1.112743e+003,2.731118e-002
1.114672e+003,2.668614e-002
1.116600e+003,2.609324e-002
1.118529e+003,2.560697e-002
1.120457e+003,2.509210e-002
1.122386e+003,2.462321e-002
1.124314e+003,2.416155e-002
1.126243e+003,2.360046e-002
1.128171e+003,2.299212e-002
1.130100e+003,2.234117e-002
1.132028e+003,2.172156e-002
1.133957e+003,2.110684e-002
1.135885e+003,2.059845e-002
1.137814e+003,2.019111e-002
1.139742e+003,1.989727e-002
1.141671e+003,1.971863e-002
1.143599e+003,1.969384e-002
1.145528e+003,1.982815e-002
1.147456e+003,2.002841e-002
1.149385e+003,2.031914e-002
1.151313e+003,2.067371e-002
1.153242e+003,2.102024e-002
1.155170e+003,2.137988e-002
1.157099e+003,2.169704e-002
1.159027e+003,2.189928e-002
1.160956e+003,2.196836e-002
1.162884e+003,2.194323e-002
1.164813e+003,2.177002e-002
1.166741e+003,2.140772e-002
1.168670e+003,2.087138e-002
1.170598e+003,2.023901e-002
1.172526e+003,1.953276e-002
1.174455e+003,1.881502e-002
1.176384e+003,1.815430e-002
1.178312e+003,1.757724e-002
1.180240e+003,1.708510e-002
1.182169e+003,1.660067e-002
1.184098e+003,1.614612e-002
1.186026e+003,1.578251e-002
1.187954e+003,1.559090e-002
1.189883e+003,1.554155e-002
1.191812e+003,1.552483e-002
1.193740e+003,1.556172e-002
1.195668e+003,1.570050e-002
1.197597e+003,1.590999e-002
1.199526e+003,1.609617e-002
1.201454e+003,1.628363e-002
1.203382e+003,1.647642e-002
1.205311e+003,1.652705e-002
1.207240e+003,1.655411e-002
1.209168e+003,1.665219e-002
1.211096e+003,1.676275e-002
1.213025e+003,1.689753e-002
1.214953e+003,1.711053e-002
1.216882e+003,1.729545e-002
1.218810e+003,1.752351e-002
1.220739e+003,1.783497e-002
1.222667e+003,1.814547e-002
1.224596e+003,1.842407e-002
1.226524e+003,1.877019e-002
1.228453e+003,1.909733e-002
1.230381e+003,1.937675e-002
1.232310e+003,1.959698e-002
1.234238e+003,1.977425e-002
1.236167e+003,1.986700e-002
1.238095e+003,1.991528e-002
1.240024e+003,1.987809e-002
1.241952e+003,1.981093e-002
1.243881e+003,1.972412e-002
1.245809e+003,1.957270e-002
1.247738e+003,1.940465e-002
1.249666e+003,1.920712e-002
1.251595e+003,1.893275e-002
1.253523e+003,1.863437e-002
1.255452e+003,1.831178e-002
1.257380e+003,1.795964e-002
1.259309e+003,1.762416e-002
1.261237e+003,1.729248e-002
1.263166e+003,1.694037e-002
1.265094e+003,1.655995e-002
1.267023e+003,1.622344e-002
1.268951e+003,1.589609e-002
1.270880e+003,1.558636e-002
1.272808e+003,1.530091e-002
1.274737e+003,1.498648e-002
1.276665e+003,1.470070e-002
1.278594e+003,1.448525e-002
1.280522e+003,1.431334e-002
1.282451e+003,1.414906e-002
1.284379e+003,1.402630e-002
1.286308e+003,1.390898e-002
1.288236e+003,1.381483e-002
1.290165e+003,1.373744e-002
1.292093e+003,1.375519e-002
1.294022e+003,1.376545e-002
1.295950e+003,1.383323e-002
1.297879e+003,1.398909e-002
1.299807e+003,1.411177e-002
1.301736e+003,1.421558e-002
1.303664e+003,1.435850e-002
1.305593e+003,1.449849e-002
1.307521e+003,1.468620e-002
1.309450e+003,1.483834e-002
1.311378e+003,1.492987e-002
1.313307e+003,1.504448e-002
1.315235e+003,1.508990e-002
1.317164e+003,1.508689e-002
1.319092e+003,1.504592e-002
1.321021e+003,1.498180e-002
1.322949e+003,1.489961e-002
1.324878e+003,1.480888e-002
1.326806e+003,1.475200e-002
1.328735e+003,1.469593e-002
1.330663e+003,1.465745e-002
1.332592e+003,1.468867e-002
1.334520e+003,1.470989e-002
1.336449e+003,1.469513e-002
1.338377e+003,1.468769e-002
1.340306e+003,1.464467e-002
1.342234e+003,1.462385e-002
1.344163e+003,1.466487e-002
1.346091e+003,1.468336e-002
1.348020e+003,1.476554e-002
1.349948e+003,1.489647e-002
1.351877e+003,1.501427e-002
1.353805e+003,1.516393e-002
1.355734e+003,1.533958e-002
1.357662e+003,1.547486e-002
1.359591e+003,1.561765e-002
1.361519e+003,1.573444e-002
1.363448e+003,1.578859e-002
1.365376e+003,1.582416e-002
1.367305e+003,1.579926e-002
1.369233e+003,1.575631e-002
1.371162e+003,1.566714e-002
1.373090e+003,1.553189e-002
1.375019e+003,1.531762e-002
1.376947e+003,1.512710e-002
1.378876e+003,1.490132e-002
1.380804e+003,1.463334e-002
1.382733e+003,1.430650e-002
1.384661e+003,1.399923e-002
1.386590e+003,1.375167e-002
1.388518e+003,1.355595e-002
1.390447e+003,1.338565e-002
1.392375e+003,1.325283e-002
1.394304e+003,1.312948e-002
1.396232e+003,1.307263e-002
1.398161e+003,1.305054e-002
1.400089e+003,1.303843e-002
1.402018e+003,1.307926e-002
1.403946e+003,1.314378e-002
1.405875e+003,1.320219e-002
1.407803e+003,1.331158e-002
1.409732e+003,1.342359e-002
1.411660e+003,1.353754e-002
1.413589e+003,1.369813e-002
1.415517e+003,1.387202e-002
1.417446e+003,1.403537e-002
1.419374e+003,1.418845e-002
1.421303e+003,1.427334e-002
1.423231e+003,1.427182e-002
1.425160e+003,1.423096e-002
1.427088e+003,1.414483e-002
1.429017e+003,1.401415e-002
1.430945e+003,1.382902e-002
1.432874e+003,1.369676e-002
1.434802e+003,1.355607e-002
1.436731e+003,1.338864e-002
1.438659e+003,1.331505e-002
1.440588e+003,1.324047e-002
1.442516e+003,1.316552e-002
1.444445e+003,1.316189e-002
1.446373e+003,1.321194e-002
1.448302e+003,1.325813e-002
1.450230e+003,1.328345e-002
1.452159e+003,1.330564e-002
1.454087e+003,1.336206e-002
1.456016e+003,1.337657e-002
1.457944e+003,1.331396e-002
1.459873e+003,1.324176e-002
1.461801e+003,1.319978e-002
1.463730e+003,1.308198e-002
1.465658e+003,1.287733e-002
1.467587e+003,1.256495e-002
1.469515e+003,1.214963e-002
1.471444e+003,1.175659e-002
1.473372e+003,1.145039e-002
1.475301e+003,1.119534e-002
1.477229e+003,1.100415e-002
1.479158e+003,1.089773e-002
1.481086e+003,1.087916e-002
1.483015e+003,1.086915e-002
1.484943e+003,1.087767e-002
1.486872e+003,1.097428e-002
1.488800e+003,1.114167e-002
1.490729e+003,1.130731e-002
1.492657e+003,1.150302e-002
1.494586e+003,1.171742e-002
1.496514e+003,1.187132e-002
1.498443e+003,1.194900e-002
1.500371e+003,1.197644e-002
1.502300e+003,1.200463e-002
1.504228e+003,1.204153e-002
1.506157e+003,1.206524e-002
1.508085e+003,1.210456e-002
1.510014e+003,1.213796e-002
1.511942e+003,1.219353e-002
1.513871e+003,1.221914e-002
1.515799e+003,1.208981e-002
1.517728e+003,1.182816e-002
1.519656e+003,1.152609e-002
1.521585e+003,1.123713e-002
1.523513e+003,1.105070e-002
1.525442e+003,1.090067e-002
1.527370e+003,1.079340e-002
1.529299e+003,1.075572e-002
1.531227e+003,1.071149e-002
1.533156e+003,1.068135e-002
1.535084e+003,1.067028e-002
1.537013e+003,1.068289e-002
1.538941e+003,1.065733e-002
1.540870e+003,1.060177e-002
1.542798e+003,1.062549e-002
1.544727e+003,1.068881e-002
1.546655e+003,1.069821e-002
1.548584e+003,1.068607e-002
1.550512e+003,1.067256e-002
1.552441e+003,1.065527e-002
1.554369e+003,1.065620e-002
1.556298e+003,1.069663e-002
1.558226e+003,1.072902e-002
1.560155e+003,1.079126e-002
1.562083e+003,1.087516e-002
1.564012e+003,1.091839e-002
1.565940e+003,1.097466e-002
1.567869e+003,1.105827e-002
1.569797e+003,1.114824e-002
1.571726e+003,1.125356e-002
1.573654e+003,1.136010e-002
1.575583e+003,1.154366e-002
1.577511e+003,1.172676e-002
1.579440e+003,1.190114e-002
1.581368e+003,1.209345e-002
1.583297e+003,1.226938e-002
1.585225e+003,1.239643e-002
1.587154e+003,1.257274e-002
1.589082e+003,1.275428e-002
1.591010e+003,1.288426e-002
1.592939e+003,1.293985e-002
1.594868e+003,1.299090e-002
1.596796e+003,1.302462e-002
1.598724e+003,1.302094e-002
1.600653e+003,1.302330e-002
1.602582e+003,1.303083e-002
1.604510e+003,1.304167e-002
1.606438e+003,1.300035e-002
1.608367e+003,1.290593e-002
1.610296e+003,1.285084e-002
1.612224e+003,1.286181e-002
1.614152e+003,1.290229e-002
1.616081e+003,1.291578e-002
1.618010e+003,1.297161e-002
1.619938e+003,1.305514e-002
1.621866e+003,1.310039e-002
1.623795e+003,1.308991e-002
1.625724e+003,1.308751e-002
1.627652e+003,1.308074e-002
1.629580e+003,1.306318e-002
1.631509e+003,1.300202e-002
1.633438e+003,1.300074e-002
1.635366e+003,1.299424e-002
1.637294e+003,1.299252e-002
1.639223e+003,1.297664e-002
1.641151e+003,1.292444e-002
1.643080e+003,1.290844e-002
1.645008e+003,1.293870e-002
1.646937e+003,1.297732e-002
1.648865e+003,1.307262e-002
1.650794e+003,1.310003e-002
1.652722e+003,1.306225e-002
1.654651e+003,1.304385e-002
1.656579e+003,1.290767e-002
1.658508e+003,1.265646e-002
1.660436e+003,1.235009e-002
1.662365e+003,1.208522e-002
1.664293e+003,1.188044e-002
1.666222e+003,1.171007e-002
1.668150e+003,1.151831e-002
1.670079e+003,1.135942e-002
1.672007e+003,1.124934e-002
1.673936e+003,1.107790e-002
1.675864e+003,1.097953e-002
1.677793e+003,1.092418e-002
1.679721e+003,1.082699e-002
1.681650e+003,1.079852e-002
1.683578e+003,1.076957e-002
1.685507e+003,1.069693e-002
1.687435e+003,1.068518e-002
1.689364e+003,1.067036e-002
1.691292e+003,1.066198e-002
1.693221e+003,1.068060e-002
1.695149e+003,1.070970e-002
1.697078e+003,1.075333e-002
1.699006e+003,1.076925e-002
1.700935e+003,1.081997e-002
1.702863e+003,1.084608e-002
1.704792e+003,1.092638e-002
1.706720e+003,1.108194e-002
1.708649e+003,1.123670e-002
1.710577e+003,1.134847e-002
1.712506e+003,1.147027e-002
1.714434e+003,1.163047e-002
1.716363e+003,1.183686e-002
1.718291e+003,1.198600e-002
1.720220e+003,1.206193e-002
1.722148e+003,1.213103e-002
1.724077e+003,1.223688e-002
1.726005e+003,1.227399e-002
1.727934e+003,1.231299e-002
1.729862e+003,1.232054e-002
1.731791e+003,1.230326e-002
1.733719e+003,1.221360e-002
1.735648e+003,1.200337e-002
1.737576e+003,1.177264e-002
1.739505e+003,1.150140e-002
1.741433e+003,1.122208e-002
1.743362e+003,1.090282e-002
1.745290e+003,1.051901e-002
1.747219e+003,1.024996e-002
1.749147e+003,1.000551e-002
1.751076e+003,9.721866e-003
1.753004e+003,9.501257e-003
1.754933e+003,9.233770e-003
1.756861e+003,9.035405e-003
1.758790e+003,8.903299e-003
1.760718e+003,8.771027e-003
1.762647e+003,8.645674e-003
1.764575e+003,8.557953e-003
1.766504e+003,8.504334e-003
1.768432e+003,8.400453e-003
1.770361e+003,8.348502e-003
1.772289e+003,8.301307e-003
1.774218e+003,8.286891e-003
1.776146e+003,8.300093e-003
1.778075e+003,8.300397e-003
1.780003e+003,8.284205e-003
1.781932e+003,8.299071e-003
1.783860e+003,8.274740e-003
1.785789e+003,8.320664e-003
1.787717e+003,8.335898e-003
1.789646e+003,8.277906e-003
1.791574e+003,8.270863e-003
1.793503e+003,8.315483e-003
1.795431e+003,8.299625e-003
1.797360e+003,8.288682e-003
1.799288e+003,8.311698e-003
1.801217e+003,8.265901e-003
1.803145e+003,8.237447e-003
1.805074e+003,8.221844e-003
1.807002e+003,8.249606e-003
1.808931e+003,8.196828e-003
1.810859e+003,8.179462e-003
1.812788e+003,8.200164e-003
1.814716e+003,8.203576e-003
1.816645e+003,8.188431e-003
1.818573e+003,8.169776e-003
1.820502e+003,8.142457e-003
1.822430e+003,8.144207e-003
1.824359e+003,8.127439e-003
1.826287e+003,8.156450e-003
1.828216e+003,8.232268e-003
1.830144e+003,8.178200e-003
1.832073e+003,8.179368e-003
1.834001e+003,8.214755e-003
1.835930e+003,8.161772e-003
1.837858e+003,8.225524e-003
1.839787e+003,8.348567e-003
1.841715e+003,8.363566e-003
1.843644e+003,8.453093e-003
1.845572e+003,8.415637e-003
1.847501e+003,8.242523e-003
1.849429e+003,8.334621e-003
1.851358e+003,8.306160e-003
1.853286e+003,8.246686e-003
1.855215e+003,8.291278e-003
1.857143e+003,8.295336e-003
1.859072e+003,8.322889e-003
1.861000e+003,8.393107e-003
1.862929e+003,8.304394e-003
1.864857e+003,8.244165e-003
1.866786e+003,8.279403e-003
1.868714e+003,8.252958e-003
1.870643e+003,8.233894e-003
1.872571e+003,8.214662e-003
1.874500e+003,8.349245e-003
1.876428e+003,8.303610e-003
1.878357e+003,8.281151e-003
1.880285e+003,8.356621e-003
1.882214e+003,8.370616e-003
1.884142e+003,8.307175e-003
1.886071e+003,8.285490e-003
1.887999e+003,8.475283e-003
1.889928e+003,8.541511e-003
1.891856e+003,8.356039e-003
1.893785e+003,8.317525e-003
1.895713e+003,8.405760e-003
1.897642e+003,8.215887e-003
1.899570e+003,8.148636e-003
1.901499e+003,8.257162e-003
1.903427e+003,8.253918e-003
1.905356e+003,8.186105e-003
1.907284e+003,8.310838e-003
1.909213e+003,8.328235e-003
1.911141e+003,8.285161e-003
1.913070e+003,8.389595e-003
1.914998e+003,8.340077e-003
1.916927e+003,8.180907e-003
1.918855e+003,8.045991e-003
1.920784e+003,8.099580e-003
1.922712e+003,7.982085e-003
1.924641e+003,8.089888e-003
1.926569e+003,8.074350e-003
1.928498e+003,7.824049e-003
1.930426e+003,8.071663e-003
1.932355e+003,8.035060e-003
1.934283e+003,7.881748e-003
1.936212e+003,8.148589e-003
1.938140e+003,8.213584e-003
1.940069e+003,7.931334e-003
1.941997e+003,7.574931e-003
1.943926e+003,7.325003e-003
1.945854e+003,7.319425e-003
1.947783e+003,7.722261e-003
1.949711e+003,7.594536e-003
1.951640e+003,6.671176e-003
1.953568e+003,6.401142e-003
1.955497e+003,6.906286e-003
1.957425e+003,6.916806e-003
1.959354e+003,6.556904e-003
1.961282e+003,6.500617e-003
1.963211e+003,6.796916e-003
1.965139e+003,6.524598e-003
1.967068e+003,6.758819e-003
1.968996e+003,6.067507e-003
1.970925e+003,5.952045e-003
1.972853e+003,6.200745e-003
1.974782e+003,5.726799e-003
1.976710e+003,6.206738e-003
1.978639e+003,5.518846e-003
1.980567e+003,5.413717e-003
1.982496e+003,5.692390e-003
1.984424e+003,5.794382e-003
1.986353e+003,6.117886e-003
1.988281e+003,6.348775e-003
1.990210e+003,5.998586e-003
1.992138e+003,5.994807e-003
1.994067e+003,6.228286e-003
1.995995e+003,5.911778e-003
1.997924e+003,5.517829e-003
1.999852e+003,5.276042e-003
2.001781e+003,5.044070e-003
2.003709e+003,4.635184e-003
2.005638e+003,4.018698e-003
2.007566e+003,3.741030e-003
2.009495e+003,3.075649e-003
2.011423e+003,3.145410e-003
2.013352e+003,2.881406e-003
2.015280e+003,3.161708e-003
2.017208e+003,4.274178e-003
2.019137e+003,3.674821e-003
2.021066e+003,2.720978e-003
2.022994e+003,2.929215e-003
2.024922e+003,2.800531e-003
2.026851e+003,2.639922e-003
2.028780e+003,3.246505e-003
2.030708e+003,3.371253e-003
2.032636e+003,4.546684e-003
2.034565e+003,4.586603e-003
2.036494e+003,3.994346e-003
2.038422e+003,3.431547e-003
2.040350e+003,3.954016e-003
2.042279e+003,4.242005e-003
2.044208e+003,4.122901e-003
2.046136e+003,4.011108e-003
2.048064e+003,4.250730e-003
2.049993e+003,5.329341e-003
2.051921e+003,5.497265e-003
2.053850e+003,5.725781e-003
2.055778e+003,6.075642e-003
2.057707e+003,6.239335e-003
2.059635e+003,5.804969e-003
2.061564e+003,5.587032e-003
2.063492e+003,5.691889e-003
2.065421e+003,5.878202e-003
2.067349e+003,5.789430e-003
2.069278e+003,5.572926e-003
2.071206e+003,5.829421e-003
2.073135e+003,6.015601e-003
2.075063e+003,6.028885e-003
2.076992e+003,5.893514e-003
2.078920e+003,6.233587e-003
2.080849e+003,6.659378e-003
2.082777e+003,7.123400e-003
2.084706e+003,7.194865e-003
2.086634e+003,6.905422e-003
2.088563e+003,6.584304e-003
2.090491e+003,6.610824e-003
2.092420e+003,6.596781e-003
2.094348e+003,6.697748e-003
2.096277e+003,6.659191e-003
2.098205e+003,6.842521e-003
2.100134e+003,7.076119e-003
2.102062e+003,6.935198e-003
2.103991e+003,6.582675e-003
2.105919e+003,6.940921e-003
2.107848e+003,7.094474e-003
2.109776e+003,7.384756e-003
2.111705e+003,7.579261e-003
2.113633e+003,7.282481e-003
2.115562e+003,7.485132e-003
2.117490e+003,7.297610e-003
2.119419e+003,7.093396e-003
2.121347e+003,7.240837e-003
2.123276e+003,7.626636e-003
2.125204e+003,7.590725e-003
2.127133e+003,7.314863e-003
2.129061e+003,7.122024e-003
2.130990e+003,6.746836e-003
2.132918e+003,6.458560e-003
2.134847e+003,6.378662e-003
2.136775e+003,6.270405e-003
2.138704e+003,6.271985e-003
2.140632e+003,5.846951e-003
2.142561e+003,5.367715e-003
2.144489e+003,5.528900e-003
2.146418e+003,5.202834e-003
2.148346e+003,5.127055e-003
2.150275e+003,4.893196e-003
2.152203e+003,4.764137e-003
2.154132e+003,4.743569e-003
2.156060e+003,4.168087e-003
2.157989e+003,2.545580e-003
2.159917e+003,2.119247e-003
2.161846e+003,2.135995e-003
2.163774e+003,3.574024e-003
2.165703e+003,4.403731e-003
2.167631e+003,4.110016e-003
2.169560e+003,5.128899e-003
2.171488e+003,5.345508e-003
2.173417e+003,4.292686e-003
2.175345e+003,4.385590e-003
2.177274e+003,4.718011e-003
2.179202e+003,4.563186e-003
2.181131e+003,5.205617e-003
2.183059e+003,4.928718e-003
2.184988e+003,3.635298e-003
2.186916e+003,3.813925e-003
2.188845e+003,4.259090e-003
2.190773e+003,4.662578e-003
2.192702e+003,5.449911e-003
2.194630e+003,5.788822e-003
2.196559e+003,5.384320e-003
2.198487e+003,5.377410e-003
2.200416e+003,6.102123e-003
2.202344e+003,6.740374e-003
2.204273e+003,6.462630e-003
2.206201e+003,6.432767e-003
2.208130e+003,6.582069e-003
2.210058e+003,6.502854e-003
2.211987e+003,6.118522e-003
2.213915e+003,6.284491e-003
2.215844e+003,6.228387e-003
2.217772e+003,6.391776e-003
2.219701e+003,6.673815e-003
2.221629e+003,6.691144e-003
2.223558e+003,6.516375e-003
2.225486e+003,6.638218e-003
2.227415e+003,6.561247e-003
2.229343e+003,7.069585e-003
2.231272e+003,7.657005e-003
2.233200e+003,7.543358e-003
2.235129e+003,7.113013e-003
2.237057e+003,7.359855e-003
2.238986e+003,7.715434e-003
2.240914e+003,7.715982e-003
2.242843e+003,7.653118e-003
2.244771e+003,7.443797e-003
2.246700e+003,7.561469e-003
2.248628e+003,7.760314e-003
2.250557e+003,7.746226e-003
2.252485e+003,7.802472e-003
2.254414e+003,7.808813e-003
2.256342e+003,7.730608e-003
2.258271e+003,7.465339e-003
2.260199e+003,7.621395e-003
2.262128e+003,7.756164e-003
2.264056e+003,7.726601e-003
2.265985e+003,7.828852e-003
2.267913e+003,8.136689e-003
2.269842e+003,8.393779e-003
2.271770e+003,8.194092e-003
2.273699e+003,8.108454e-003
2.275627e+003,8.322326e-003
2.277556e+003,8.543134e-003
2.279484e+003,8.563766e-003
2.281413e+003,8.619719e-003
2.283341e+003,8.604672e-003
2.285270e+003,8.619419e-003
2.287198e+003,8.880482e-003
2.289127e+003,9.092188e-003
2.291055e+003,9.019979e-003
2.292984e+003,9.074550e-003
2.294912e+003,9.149955e-003
2.296841e+003,9.147701e-003
2.298769e+003,9.294354e-003
2.300698e+003,9.142744e-003
2.302626e+003,8.994661e-003
2.304555e+003,9.046527e-003
2.306483e+003,9.200719e-003
2.308412e+003,9.053092e-003
2.310340e+003,8.950165e-003
2.312269e+003,9.190012e-003
2.314197e+003,9.377467e-003
2.316125e+003,9.454230e-003
2.318054e+003,9.433443e-003
2.319983e+003,9.470565e-003
2.321911e+003,9.655215e-003
2.323840e+003,1.007550e-002
2.325768e+003,1.064507e-002
2.327697e+003,1.093459e-002
2.329625e+003,1.114085e-002
2.331553e+003,1.101096e-002
2.333482e+003,1.065253e-002
2.335411e+003,1.040923e-002
2.337339e+003,1.006305e-002
2.339268e+003,9.870921e-003
2.341196e+003,9.797361e-003
2.343125e+003,9.728788e-003
2.345053e+003,9.553332e-003
2.346981e+003,9.459537e-003
2.348910e+003,9.377459e-003
2.350839e+003,9.390200e-003
2.352767e+003,9.164175e-003
2.354696e+003,8.941320e-003
2.356624e+003,9.143953e-003
2.358552e+003,9.049346e-003
2.360481e+003,9.020145e-003
2.362409e+003,9.207197e-003
2.364338e+003,9.161798e-003
2.366267e+003,8.751013e-003
2.368195e+003,8.978748e-003
2.370124e+003,9.466982e-003
2.372052e+003,9.718047e-003
2.373980e+003,9.825295e-003
2.375909e+003,9.796398e-003
2.377838e+003,9.663170e-003
2.379766e+003,9.583537e-003
2.381695e+003,9.491758e-003
2.383623e+003,9.257919e-003
2.385552e+003,9.005024e-003
2.387480e+003,8.944375e-003
2.389408e+003,8.876190e-003
2.391337e+003,8.842278e-003
2.393266e+003,8.647258e-003
2.395194e+003,8.503138e-003
2.397123e+003,8.451066e-003
2.399051e+003,8.408904e-003
2.400979e+003,8.335559e-003
2.402908e+003,8.226611e-003
2.404836e+003,8.234817e-003
2.406765e+003,8.271153e-003
2.408694e+003,8.275948e-003
2.410622e+003,8.324143e-003
2.412551e+003,8.404603e-003
2.414479e+003,8.470684e-003
2.416407e+003,8.496499e-003
2.418336e+003,8.564892e-003
2.420264e+003,8.587433e-003
2.422193e+003,8.595307e-003
2.424122e+003,8.640361e-003
2.426050e+003,8.671559e-003
2.427979e+003,8.750190e-003
2.429907e+003,8.819841e-003
2.431835e+003,8.881826e-003
2.433764e+003,8.945985e-003
2.435692e+003,8.913414e-003
2.437621e+003,8.939626e-003
2.439550e+003,8.997907e-003
2.441478e+003,8.885918e-003
2.443406e+003,8.731190e-003
2.445335e+003,8.773519e-003
2.447263e+003,8.828430e-003
2.449192e+003,8.882300e-003
2.451121e+003,8.761652e-003
2.453049e+003,8.683153e-003
2.454978e+003,8.690590e-003
2.456906e+003,8.777272e-003
2.458834e+003,8.788632e-003
2.460763e+003,8.818354e-003
2.462691e+003,8.986541e-003
2.464620e+003,9.064181e-003
2.466549e+003,8.892175e-003
2.468477e+003,8.865018e-003
2.470406e+003,8.930832e-003
2.472334e+003,8.872425e-003
2.474262e+003,8.844458e-003
2.476191e+003,8.903707e-003
2.478119e+003,8.923933e-003
2.480048e+003,8.853926e-003
2.481977e+003,8.866101e-003
2.483905e+003,8.862414e-003
2.485833e+003,8.699615e-003
2.487762e+003,8.679063e-003
2.489690e+003,8.766756e-003
2.491619e+003,8.819503e-003
2.493547e+003,8.710332e-003
2.495476e+003,8.797998e-003
2.497405e+003,8.929953e-003
2.499333e+003,8.877497e-003
2.501261e+003,8.867048e-003
2.503190e+003,8.890315e-003
2.505118e+003,9.026628e-003
2.507047e+003,9.050681e-003
2.508975e+003,8.919806e-003
2.510904e+003,8.955287e-003
2.512833e+003,9.058091e-003
2.514761e+003,9.002982e-003
2.516689e+003,8.952986e-003
2.518618e+003,8.929615e-003
2.520546e+003,8.880474e-003
2.522475e+003,8.971083e-003
2.524403e+003,9.010863e-003
2.526332e+003,8.991649e-003
2.528260e+003,9.020031e-003
2.530189e+003,8.936008e-003
2.532117e+003,8.926164e-003
2.534046e+003,9.052137e-003
2.535974e+003,9.168635e-003
2.537903e+003,9.116253e-003
2.539831e+003,9.176182e-003
2.541760e+003,9.142241e-003
2.543688e+003,9.039788e-003
2.545617e+003,8.996893e-003
2.547545e+003,8.991886e-003
2.549474e+003,9.175641e-003
2.551402e+003,9.185658e-003
2.553331e+003,9.135473e-003
2.555259e+003,9.220449e-003
2.557188e+003,9.248372e-003
2.559116e+003,9.224070e-003
2.561045e+003,9.221667e-003
2.562973e+003,9.200820e-003
2.564902e+003,9.190362e-003
2.566830e+003,9.160954e-003
2.568759e+003,9.299789e-003
2.570687e+003,9.197908e-003
2.572616e+003,9.051054e-003
2.574544e+003,9.010592e-003
2.576473e+003,9.055926e-003
2.578401e+003,9.146064e-003
2.580330e+003,9.184372e-003
2.582258e+003,9.209145e-003
2.584187e+003,9.333235e-003
2.586115e+003,9.339430e-003
2.588044e+003,9.227726e-003
2.589972e+003,9.238353e-003
2.591901e+003,9.192189e-003
2.593829e+003,9.161529e-003
2.595758e+003,9.257511e-003
2.597686e+003,9.262554e-003
2.599615e+003,9.224206e-003
2.601543e+003,9.267733e-003
2.603472e+003,9.342173e-003
2.605400e+003,9.346574e-003
2.607329e+003,9.351551e-003
2.609257e+003,9.355173e-003
2.611186e+003,9.334014e-003
2.613114e+003,9.305984e-003
2.615043e+003,9.366007e-003
2.616971e+003,9.431321e-003
2.618900e+003,9.365567e-003
2.620828e+003,9.337163e-003
2.622757e+003,9.468604e-003
2.624685e+003,9.559506e-003
2.626614e+003,9.566585e-003
2.628542e+003,9.526076e-003
2.630471e+003,9.578745e-003
2.632399e+003,9.577661e-003
2.634328e+003,9.629828e-003
2.636256e+003,9.657608e-003
2.638185e+003,9.706804e-003
2.640113e+003,9.740653e-003
2.642042e+003,9.775862e-003
2.643970e+003,9.773863e-003
2.645899e+003,9.778947e-003
2.647827e+003,9.782504e-003
2.649756e+003,9.776032e-003
2.651684e+003,9.814158e-003
2.653613e+003,9.819276e-003
2.655541e+003,9.858016e-003
2.657470e+003,9.898657e-003
2.659398e+003,9.835815e-003
2.661327e+003,9.795790e-003
2.663255e+003,9.878251e-003
2.665184e+003,9.871302e-003
2.667112e+003,9.827613e-003
2.669041e+003,9.837137e-003
2.670969e+003,9.846898e-003
2.672898e+003,9.857235e-003
2.674826e+003,9.900996e-003
2.676755e+003,9.939540e-003
2.678683e+003,9.923166e-003
2.680612e+003,9.892895e-003
2.682540e+003,9.905233e-003
2.684469e+003,9.925472e-003
2.686397e+003,9.932862e-003
2.688326e+003,9.962831e-003
2.690254e+003,9.970391e-003
2.692183e+003,9.979240e-003
2.694111e+003,1.004597e-002
2.696040e+003,1.003098e-002
2.697968e+003,9.996498e-003
2.699897e+003,1.004946e-002
2.701825e+003,1.010603e-002
2.703754e+003,1.010270e-002
2.705682e+003,1.012108e-002
2.707611e+003,1.010518e-002
2.709539e+003,1.011444e-002
2.711468e+003,1.020161e-002
2.713396e+003,1.019197e-002
2.715325e+003,1.013502e-002
2.717253e+003,1.013160e-002
2.719182e+003,1.015714e-002
2.721110e+003,1.017291e-002
2.723039e+003,1.018007e-002
2.724967e+003,1.014788e-002
2.726896e+003,1.015107e-002
2.728824e+003,1.018709e-002
2.730753e+003,1.017233e-002
2.732681e+003,1.018967e-002
2.734610e+003,1.019991e-002
2.736538e+003,1.017515e-002
2.738467e+003,1.018926e-002
2.740395e+003,1.019296e-002
2.742324e+003,1.020256e-002
2.744252e+003,1.022101e-002
2.746181e+003,1.021894e-002
2.748109e+003,1.022138e-002
2.750038e+003,1.023709e-002
2.751966e+003,1.021202e-002
2.753895e+003,1.022450e-002
2.755823e+003,1.023346e-002
2.757752e+003,1.027003e-002
2.759680e+003,1.027902e-002
2.761609e+003,1.022559e-002
2.763537e+003,1.025548e-002
2.765466e+003,1.031529e-002
2.767394e+003,1.033843e-002
2.769323e+003,1.032601e-002
2.771251e+003,1.033776e-002
2.773180e+003,1.034084e-002
2.775108e+003,1.038828e-002
2.777037e+003,1.043322e-002
2.778965e+003,1.048576e-002
2.780894e+003,1.050002e-002
2.782822e+003,1.047222e-002
2.784750e+003,1.048403e-002
2.786679e+003,1.054160e-002
2.788608e+003,1.057216e-002
2.790536e+003,1.053888e-002
2.792465e+003,1.048847e-002
2.794393e+003,1.053301e-002
2.796322e+003,1.059721e-002
2.798250e+003,1.061935e-002
2.800178e+003,1.061476e-002
2.802107e+003,1.058037e-002
2.804036e+003,1.060319e-002
2.805964e+003,1.066726e-002
2.807893e+003,1.068326e-002
2.809821e+003,1.072869e-002
2.811750e+003,1.078287e-002
2.813678e+003,1.081385e-002
2.815606e+003,1.080913e-002
2.817535e+003,1.081521e-002
2.819464e+003,1.088906e-002
2.821392e+003,1.089997e-002
2.823321e+003,1.083783e-002
2.825249e+003,1.088930e-002
2.827177e+003,1.096327e-002
2.829106e+003,1.100697e-002
2.831034e+003,1.103957e-002
2.832963e+003,1.110843e-002
2.834892e+003,1.116112e-002
2.836820e+003,1.120607e-002
2.838749e+003,1.131525e-002
2.840677e+003,1.141716e-002
2.842605e+003,1.147890e-002
2.844534e+003,1.151003e-002
2.846462e+003,1.158316e-002
2.848391e+003,1.171269e-002
2.850320e+003,1.183249e-002
2.852248e+003,1.190543e-002
2.854177e+003,1.192706e-002
2.856105e+003,1.191957e-002
2.858033e+003,1.195386e-002
2.859962e+003,1.194739e-002
2.861890e+003,1.196592e-002
2.863819e+003,1.201739e-002
2.865748e+003,1.201687e-002
2.867676e+003,1.200918e-002
2.869604e+003,1.200591e-002
2.871533e+003,1.201820e-002
2.873461e+003,1.202386e-002
2.875390e+003,1.201575e-002
2.877319e+003,1.196902e-002
2.879247e+003,1.193533e-002
2.881176e+003,1.196422e-002
2.883104e+003,1.198019e-002
2.885032e+003,1.196800e-002
2.886961e+003,1.196643e-002
2.888889e+003,1.200219e-002
2.890818e+003,1.201044e-002
2.892747e+003,1.202556e-002
2.894675e+003,1.205711e-002
2.896604e+003,1.200322e-002
2.898532e+003,1.205428e-002
2.900460e+003,1.208426e-002
2.902389e+003,1.201507e-002
2.904317e+003,1.196275e-002
2.906246e+003,1.195148e-002
2.908175e+003,1.199201e-002
2.910103e+003,1.201980e-002
2.912031e+003,1.205895e-002
2.913960e+003,1.210848e-002
2.915888e+003,1.214555e-002
2.917817e+003,1.217060e-002
2.919745e+003,1.212143e-002
2.921674e+003,1.209891e-002
2.923603e+003,1.211662e-002
2.925531e+003,1.209840e-002
2.927459e+003,1.202784e-002
2.929388e+003,1.196469e-002
2.931316e+003,1.188449e-002
2.933245e+003,1.179913e-002
2.935173e+003,1.176985e-002
2.937102e+003,1.172439e-002
2.939031e+003,1.163045e-002
2.940959e+003,1.154428e-002
2.942887e+003,1.146243e-002
2.944816e+003,1.133681e-002
2.946744e+003,1.122219e-002
2.948673e+003,1.115371e-002
2.950601e+003,1.110940e-002
2.952530e+003,1.102631e-002
2.954458e+003,1.098291e-002
2.956387e+003,1.093094e-002
2.958315e+003,1.082671e-002
2.960244e+003,1.077641e-002
2.962172e+003,1.076634e-002
2.964101e+003,1.071989e-002
2.966029e+003,1.077035e-002
2.967958e+003,1.076213e-002
2.969886e+003,1.067457e-002
2.971815e+003,1.061496e-002
2.973743e+003,1.063875e-002
2.975672e+003,1.060486e-002
2.977600e+003,1.054173e-002
2.979529e+003,1.047099e-002
2.981457e+003,1.049635e-002
2.983386e+003,1.052063e-002
2.985314e+003,1.051466e-002
2.987243e+003,1.049429e-002
2.989171e+003,1.051971e-002
2.991100e+003,1.048367e-002
2.993028e+003,1.040934e-002
2.994957e+003,1.040839e-002
2.996885e+003,1.035573e-002
2.998814e+003,1.034933e-002
3.000742e+003,1.039210e-002
3.002671e+003,1.040754e-002
3.004599e+003,1.035237e-002
3.006528e+003,1.035275e-002
3.008456e+003,1.039920e-002
3.010385e+003,1.040179e-002
3.012313e+003,1.038080e-002
3.014242e+003,1.046848e-002
3.016170e+003,1.048254e-002
3.018099e+003,1.038653e-002
3.020027e+003,1.037537e-002
3.021956e+003,1.043466e-002
3.023884e+003,1.042412e-002
3.025813e+003,1.046496e-002
3.027741e+003,1.049978e-002
3.029670e+003,1.055806e-002
3.031598e+003,1.053993e-002
3.033527e+003,1.048400e-002
3.035455e+003,1.045584e-002
3.037384e+003,1.048523e-002
3.039312e+003,1.058141e-002
3.041241e+003,1.060218e-002
3.043169e+003,1.055730e-002
3.045098e+003,1.049982e-002
3.047026e+003,1.057440e-002
3.048955e+003,1.062814e-002
3.050883e+003,1.061057e-002
3.052812e+003,1.058310e-002
3.054740e+003,1.065649e-002
3.056669e+003,1.073300e-002
3.058597e+003,1.069546e-002
3.060526e+003,1.074463e-002
3.062454e+003,1.084157e-002
3.064383e+003,1.078537e-002
3.066311e+003,1.077900e-002
3.068240e+003,1.084932e-002
3.070168e+003,1.084616e-002
3.072097e+003,1.085115e-002
3.074025e+003,1.088030e-002
3.075954e+003,1.095838e-002
3.077882e+003,1.098728e-002
3.079811e+003,1.097267e-002
3.081739e+003,1.103532e-002
3.083668e+003,1.104242e-002
3.085596e+003,1.101598e-002
3.087525e+003,1.098931e-002
3.089453e+003,1.105276e-002
3.091382e+003,1.111203e-002
3.093310e+003,1.113717e-002
3.095239e+003,1.109815e-002
3.097167e+003,1.103939e-002
3.099096e+003,1.111515e-002
3.101024e+003,1.116121e-002
3.102953e+003,1.112254e-002
3.104881e+003,1.107954e-002
3.106810e+003,1.114013e-002
3.108738e+003,1.116469e-002
3.110667e+003,1.114950e-002
3.112595e+003,1.121876e-002
3.114524e+003,1.127844e-002
3.116452e+003,1.129434e-002
3.118381e+003,1.131253e-002
3.120309e+003,1.134384e-002
3.122238e+003,1.136025e-002
3.124166e+003,1.145115e-002
3.126095e+003,1.149086e-002
3.128023e+003,1.148993e-002
3.129952e+003,1.150319e-002
3.131880e+003,1.154575e-002
3.133809e+003,1.155321e-002
3.135737e+003,1.161343e-002
3.137666e+003,1.164131e-002
3.139594e+003,1.169903e-002
3.141523e+003,1.178617e-002
3.143451e+003,1.182034e-002
3.145380e+003,1.180116e-002
3.147308e+003,1.174385e-002
3.149237e+003,1.179001e-002
3.151165e+003,1.185770e-002
3.153094e+003,1.184443e-002
3.155022e+003,1.187682e-002
3.156951e+003,1.192615e-002
3.158879e+003,1.189475e-002
3.160808e+003,1.192552e-002
3.162736e+003,1.202535e-002
3.164665e+003,1.203558e-002
3.166593e+003,1.197974e-002
3.168522e+003,1.197341e-002
3.170450e+003,1.207706e-002
3.172379e+003,1.214239e-002
3.174307e+003,1.216611e-002
3.176236e+003,1.215567e-002
3.178164e+003,1.213872e-002
3.180093e+003,1.218770e-002
3.182021e+003,1.230693e-002
3.183950e+003,1.237958e-002
3.185878e+003,1.243212e-002
3.187807e+003,1.241749e-002
3.189735e+003,1.238690e-002
3.191664e+003,1.239382e-002
3.193592e+003,1.247195e-002
3.195521e+003,1.249439e-002
3.197449e+003,1.253183e-002
3.199378e+003,1.260621e-002
3.201306e+003,1.265119e-002
3.203235e+003,1.263263e-002
3.205163e+003,1.267661e-002
3.207092e+003,1.274062e-002
3.209020e+003,1.268476e-002
3.210948e+003,1.272844e-002
3.212877e+003,1.288830e-002
3.214806e+003,1.290226e-002
3.216734e+003,1.286076e-002
3.218663e+003,1.288326e-002
3.220591e+003,1.287521e-002
3.222520e+003,1.287726e-002
3.224448e+003,1.298081e-002
3.226376e+003,1.298319e-002
3.228305e+003,1.302340e-002
3.230234e+003,1.304588e-002
3.232162e+003,1.303240e-002
3.234091e+003,1.314934e-002
3.236019e+003,1.325213e-002
3.237948e+003,1.330552e-002
3.239876e+003,1.323254e-002
3.241804e+003,1.321281e-002
3.243733e+003,1.327885e-002
3.245662e+003,1.328963e-002
3.247590e+003,1.334702e-002
3.249519e+003,1.337847e-002
3.251447e+003,1.345302e-002
3.253375e+003,1.357387e-002
3.255304e+003,1.360798e-002
3.257232e+003,1.350179e-002
3.259161e+003,1.347347e-002
3.261090e+003,1.351678e-002
3.263018e+003,1.355028e-002
3.264947e+003,1.354604e-002
3.266875e+003,1.351316e-002
3.268803e+003,1.368913e-002
3.270732e+003,1.378169e-002
3.272660e+003,1.378383e-002
3.274589e+003,1.372601e-002
3.276518e+003,1.371452e-002
3.278446e+003,1.375012e-002
3.280375e+003,1.381102e-002
3.282303e+003,1.387446e-002
3.284231e+003,1.384689e-002
3.286160e+003,1.379640e-002
3.288088e+003,1.374073e-002
3.290017e+003,1.377251e-002
3.291946e+003,1.382617e-002
3.293874e+003,1.391524e-002
3.295802e+003,1.390304e-002
3.297731e+003,1.383963e-002
3.299659e+003,1.379691e-002
3.301588e+003,1.379309e-002
3.303516e+003,1.383488e-002
3.305445e+003,1.390954e-002
3.307374e+003,1.387625e-002
3.309302e+003,1.392868e-002
3.311230e+003,1.391485e-002
3.313159e+003,1.382948e-002
3.315087e+003,1.382823e-002
3.317016e+003,1.386079e-002
3.318944e+003,1.391655e-002
3.320873e+003,1.395298e-002
3.322802e+003,1.395857e-002
3.324730e+003,1.393351e-002
3.326658e+003,1.387305e-002
3.328587e+003,1.389646e-002
3.330515e+003,1.390847e-002
3.332444e+003,1.394389e-002
3.334372e+003,1.397183e-002
3.336301e+003,1.398145e-002
3.338229e+003,1.398059e-002
3.340158e+003,1.396477e-002
3.342086e+003,1.396286e-002
3.344015e+003,1.400075e-002
3.345943e+003,1.399062e-002
3.347872e+003,1.394535e-002
3.349800e+003,1.386102e-002
3.351729e+003,1.378604e-002
3.353657e+003,1.378577e-002
3.355586e+003,1.376592e-002
3.357514e+003,1.373816e-002
3.359443e+003,1.377500e-002
3.361371e+003,1.377749e-002
3.363300e+003,1.373977e-002
3.365229e+003,1.361456e-002
3.367157e+003,1.356073e-002
3.369085e+003,1.358667e-002
3.371014e+003,1.357531e-002
3.372942e+003,1.357048e-002
3.374871e+003,1.360064e-002
3.376799e+003,1.352367e-002
3.378728e+003,1.347246e-002
3.380656e+003,1.348448e-002
3.382585e+003,1.349513e-002
3.384513e+003,1.344198e-002
3.386442e+003,1.344851e-002
3.388370e+003,1.340034e-002
3.390299e+003,1.335450e-002
3.392227e+003,1.333444e-002
3.394156e+003,1.329909e-002
3.396084e+003,1.326116e-002
3.398013e+003,1.325709e-002
3.399941e+003,1.326185e-002
3.401870e+003,1.315491e-002
3.403798e+003,1.304055e-002
3.405727e+003,1.312416e-002
3.407655e+003,1.311055e-002
3.409584e+003,1.301547e-002
3.411512e+003,1.292193e-002
3.413441e+003,1.297055e-002
3.415369e+003,1.298686e-002
3.417298e+003,1.288797e-002
3.419226e+003,1.277382e-002
3.421155e+003,1.272424e-002
3.423083e+003,1.262674e-002
3.425012e+003,1.262462e-002
3.426940e+003,1.265505e-002
3.428869e+003,1.269166e-002
3.430797e+003,1.264690e-002
3.432726e+003,1.251405e-002
3.434654e+003,1.242307e-002
3.436583e+003,1.246569e-002
3.438511e+003,1.246388e-002
3.440440e+003,1.236944e-002
3.442368e+003,1.232734e-002
3.444297e+003,1.233068e-002
3.446225e+003,1.227096e-002
3.448154e+003,1.216573e-002
3.450082e+003,1.211574e-002
3.452011e+003,1.206055e-002
3.453939e+003,1.198516e-002
3.455868e+003,1.194351e-002
3.457796e+003,1.190526e-002
3.459725e+003,1.184605e-002
3.461653e+003,1.176896e-002
3.463582e+003,1.171279e-002
3.465510e+003,1.166776e-002
3.467439e+003,1.164697e-002
3.469367e+003,1.160895e-002
3.471296e+003,1.155185e-002
3.473224e+003,1.147478e-002
3.475153e+003,1.142794e-002
3.477081e+003,1.149513e-002
3.479010e+003,1.142097e-002
3.480938e+003,1.127618e-002
3.482867e+003,1.116020e-002
3.484795e+003,1.120613e-002
3.486724e+003,1.122956e-002
3.488652e+003,1.113698e-002
3.490581e+003,1.105204e-002
3.492509e+003,1.100490e-002
3.494438e+003,1.088128e-002
3.496366e+003,1.079985e-002
3.498295e+003,1.082662e-002
3.500223e+003,1.084789e-002
3.502152e+003,1.080016e-002
3.504080e+003,1.072200e-002
3.506009e+003,1.058954e-002
3.507937e+003,1.055046e-002
3.509866e+003,1.051495e-002
3.511794e+003,1.043050e-002
3.513723e+003,1.042297e-002
3.515651e+003,1.040966e-002
3.517580e+003,1.027689e-002
3.519508e+003,1.020469e-002
3.521437e+003,1.020558e-002
3.523365e+003,1.022518e-002
3.525294e+003,1.017484e-002
3.527222e+003,1.011491e-002
3.529151e+003,1.012173e-002
3.531079e+003,1.005618e-002
3.533008e+003,9.959339e-003
3.534936e+003,9.928556e-003
3.536865e+003,9.869371e-003
3.538793e+003,9.780505e-003
3.540722e+003,9.795857e-003
3.542650e+003,9.753157e-003
3.544579e+003,9.676276e-003
3.546507e+003,9.574578e-003
3.548436e+003,9.490176e-003
3.550364e+003,9.515102e-003
3.552293e+003,9.473954e-003
3.554221e+003,9.363366e-003
3.556150e+003,9.317528e-003
3.558078e+003,9.260016e-003
3.560007e+003,9.247830e-003
3.561935e+003,9.238150e-003
3.563864e+003,9.136285e-003
3.565792e+003,8.986000e-003
3.567721e+003,8.990093e-003
3.569649e+003,8.966922e-003
3.571578e+003,8.936041e-003
3.573506e+003,8.783189e-003
3.575435e+003,8.685384e-003
3.577363e+003,8.595105e-003
3.579292e+003,8.519239e-003
3.581220e+003,8.430717e-003
3.583149e+003,8.234918e-003
3.585077e+003,7.979570e-003
3.587006e+003,7.777767e-003
3.588934e+003,7.481526e-003
3.590863e+003,7.233189e-003
3.592791e+003,7.181040e-003
3.594720e+003,6.948799e-003
3.596648e+003,6.775543e-003
3.598577e+003,6.730043e-003
3.600505e+003,6.583347e-003
3.602434e+003,6.661635e-003
3.604362e+003,6.952873e-003
3.606291e+003,7.098044e-003
3.608219e+003,7.334946e-003
3.610148e+003,7.835555e-003
3.612076e+003,8.177178e-003
3.614005e+003,7.908062e-003
3.615933e+003,7.415493e-003
3.617862e+003,6.873995e-003
3.619790e+003,6.479984e-003
3.621719e+003,6.193365e-003
3.623647e+003,5.828111e-003
3.625576e+003,5.674569e-003
3.627504e+003,5.746146e-003
3.629433e+003,5.969647e-003
3.631361e+003,6.174577e-003
3.633290e+003,6.414238e-003
3.635218e+003,6.744144e-003
3.637146e+003,7.132904e-003
3.639075e+003,7.426885e-003
3.641004e+003,7.582936e-003
3.642932e+003,7.787516e-003
3.644861e+003,8.049198e-003
3.646789e+003,8.170965e-003
3.648718e+003,8.174747e-003
3.650646e+003,8.074515e-003
3.652574e+003,7.975958e-003
3.654503e+003,7.992731e-003
3.656432e+003,8.116137e-003
3.658360e+003,8.063240e-003
3.660289e+003,7.883904e-003
3.662217e+003,8.002823e-003
3.664146e+003,8.100642e-003
3.666074e+003,8.084202e-003
3.668002e+003,8.013961e-003
3.669931e+003,7.943528e-003
3.671860e+003,7.927195e-003
3.673788e+003,7.763836e-003
3.675717e+003,7.596390e-003
3.677645e+003,7.514225e-003
3.679573e+003,7.447042e-003
3.681502e+003,7.334272e-003
3.683430e+003,7.142234e-003
3.685359e+003,6.909679e-003
3.687288e+003,6.648076e-003
3.689216e+003,6.398837e-003
3.691145e+003,6.232555e-003
3.693073e+003,6.036434e-003
3.695001e+003,5.658322e-003
3.696930e+003,5.480243e-003
3.698858e+003,5.229795e-003
3.700787e+003,5.024439e-003
3.702716e+003,5.057457e-003
3.704644e+003,5.200251e-003
3.706573e+003,5.313441e-003
3.708501e+003,5.610086e-003
3.710429e+003,6.187046e-003
3.712358e+003,6.863795e-003
3.714286e+003,7.227462e-003
3.716215e+003,6.879010e-003
3.718144e+003,6.168528e-003
3.720072e+003,5.391835e-003
3.722000e+003,4.853892e-003
3.723929e+003,4.473124e-003
3.725857e+003,4.186822e-003
3.727786e+003,4.148718e-003
3.729714e+003,4.169425e-003
3.731643e+003,4.380636e-003
3.733572e+003,4.737874e-003
3.735500e+003,5.201459e-003
3.737428e+003,5.780394e-003
3.739357e+003,6.360539e-003
3.741285e+003,6.849489e-003
3.743214e+003,7.326589e-003
3.745142e+003,7.599458e-003
3.747071e+003,7.715568e-003
3.749000e+003,7.772538e-003
3.750928e+003,7.907016e-003
3.752856e+003,8.133288e-003
3.754785e+003,8.113605e-003
3.756713e+003,7.911099e-003
3.758642e+003,7.973158e-003
3.760570e+003,8.023748e-003
3.762499e+003,8.018348e-003
3.764427e+003,8.017031e-003
3.766356e+003,8.033436e-003
3.768284e+003,8.057873e-003
3.770213e+003,8.036979e-003
3.772141e+003,8.036844e-003
3.774070e+003,8.070936e-003
3.775998e+003,8.055004e-003
3.777927e+003,8.026786e-003
3.779855e+003,7.955305e-003
3.781784e+003,7.906578e-003
3.783712e+003,8.061349e-003
3.785641e+003,8.113774e-003
3.787569e+003,8.057772e-003
3.789498e+003,8.145880e-003
3.791426e+003,8.127176e-003
3.793355e+003,8.049536e-003
3.795283e+003,8.078261e-003
3.797212e+003,8.099663e-003
3.799140e+003,8.027798e-003
3.801069e+003,7.955541e-003
3.802997e+003,8.060540e-003
3.804926e+003,8.137507e-003
3.806854e+003,8.202940e-003
3.808783e+003,8.218912e-003
3.810711e+003,8.201758e-003
3.812640e+003,8.226307e-003
3.814568e+003,8.240321e-003
3.816497e+003,8.131025e-003
3.818425e+003,8.013556e-003
3.820354e+003,8.071645e-003
3.822282e+003,8.135009e-003
3.824211e+003,8.117116e-003
3.826139e+003,8.185822e-003
3.828068e+003,8.145610e-003
3.829996e+003,8.165090e-003
3.831925e+003,8.155637e-003
3.833853e+003,8.094093e-003
3.835782e+003,8.111579e-003
3.837710e+003,8.163403e-003
3.839639e+003,8.256800e-003
3.841567e+003,8.264871e-003
3.843496e+003,8.177482e-003
3.845424e+003,8.104930e-003
3.847353e+003,8.171100e-003
3.849281e+003,8.221377e-003
3.851210e+003,8.166340e-003
3.853138e+003,8.182648e-003
3.855067e+003,8.179677e-003
3.856995e+003,8.204392e-003
3.858924e+003,8.167927e-003
3.860852e+003,8.131498e-003
3.862781e+003,8.129270e-003
3.864709e+003,8.126771e-003
3.866638e+003,8.252714e-003
3.868566e+003,8.302831e-003
3.870495e+003,8.276792e-003
3.872423e+003,8.239139e-003
3.874352e+003,8.318299e-003
3.876280e+003,8.287026e-003
3.878209e+003,8.228907e-003
3.880137e+003,8.207026e-003
3.882066e+003,8.215941e-003
3.883994e+003,8.252647e-003
3.885923e+003,8.360858e-003
3.887851e+003,8.316679e-003
3.889780e+003,8.231643e-003
3.891708e+003,8.221782e-003
3.893637e+003,8.232284e-003
3.895565e+003,8.267472e-003
3.897494e+003,8.284526e-003
3.899422e+003,8.285742e-003
3.901351e+003,8.336133e-003
3.903279e+003,8.305634e-003
3.905208e+003,8.162491e-003
3.907136e+003,8.223370e-003
3.909065e+003,8.334140e-003
3.910993e+003,8.276151e-003
3.912922e+003,8.300602e-003
3.914850e+003,8.314483e-003
3.916779e+003,8.280777e-003
3.918707e+003,8.358528e-003
3.920636e+003,8.442000e-003
3.922564e+003,8.406428e-003
3.924493e+003,8.400211e-003
3.926421e+003,8.363864e-003
3.928350e+003,8.333499e-003
3.930278e+003,8.356974e-003
3.932207e+003,8.408319e-003
3.934135e+003,8.321947e-003
3.936064e+003,8.284155e-003
3.937992e+003,8.376666e-003
3.939921e+003,8.388286e-003
3.941849e+003,8.381599e-003
3.943778e+003,8.371498e-003
3.945706e+003,8.352110e-003
3.947635e+003,8.334985e-003
3.949563e+003,8.386293e-003
3.951492e+003,8.396428e-003
3.953420e+003,8.328365e-003
3.955349e+003,8.337890e-003
3.957277e+003,8.394097e-003
3.959206e+003,8.410211e-003
3.961134e+003,8.364033e-003
3.963063e+003,8.333567e-003
3.964991e+003,8.394942e-003
3.966920e+003,8.488828e-003
3.968848e+003,8.425852e-003
3.970777e+003,8.319246e-003
3.972705e+003,8.268451e-003
3.974634e+003,8.269667e-003
3.976562e+003,8.311106e-003
3.978491e+003,8.366432e-003
3.980419e+003,8.347279e-003
3.982348e+003,8.380349e-003
3.984276e+003,8.428352e-003
3.986205e+003,8.435650e-003
3.988133e+003,8.375113e-003
3.990062e+003,8.431460e-003
3.991990e+003,8.469773e-003
3.993919e+003,8.341976e-003
3.995847e+003,8.309654e-003
3.997776e+003,8.360690e-003
3.999704e+003,8.360690e-003
4.001633e+003,0.000000e+000
