3.991989e+002,2.927944e-002
4.011274e+002,3.110258e-002
4.030559e+002,3.110258e-002
4.049844e+002,3.114412e-002
4.069129e+002,3.163129e-002
4.088414e+002,3.349803e-002
4.107699e+002,3.470401e-002
4.126984e+002,3.598106e-002
4.146269e+002,3.633906e-002
4.165554e+002,3.557175e-002
4.184839e+002,3.463854e-002
4.204124e+002,3.610953e-002
4.223409e+002,3.722182e-002
4.242694e+002,3.724309e-002
4.261979e+002,3.860572e-002
4.281264e+002,4.023882e-002
4.300549e+002,3.977216e-002
4.319834e+002,4.018594e-002
4.339119e+002,4.017346e-002
4.358404e+002,4.014473e-002
4.377689e+002,4.028677e-002
4.396974e+002,4.079039e-002
4.416259e+002,4.007668e-002
4.435544e+002,3.968179e-002
4.454829e+002,4.026397e-002
4.474114e+002,4.131535e-002
4.493399e+002,4.087134e-002
4.512684e+002,4.003253e-002
4.531969e+002,3.991688e-002
4.551254e+002,4.057920e-002
4.570539e+002,4.131226e-002
4.589824e+002,4.126464e-002
4.609109e+002,4.015542e-002
4.628394e+002,3.938463e-002
4.647679e+002,3.975032e-002
4.666964e+002,3.956531e-002
4.686249e+002,3.908342e-002
4.705533e+002,3.916130e-002
4.724819e+002,3.899489e-002
4.744103e+002,3.860976e-002
4.763389e+002,3.856976e-002
4.782673e+002,3.834753e-002
4.801959e+002,3.773857e-002
4.821243e+002,3.754530e-002
4.840529e+002,3.731165e-002
4.859813e+002,3.709058e-002
4.879099e+002,3.663294e-002
4.898383e+002,3.597084e-002
4.917668e+002,3.613837e-002
4.936953e+002,3.590750e-002
4.956238e+002,3.583032e-002
4.975523e+002,3.577965e-002
4.994808e+002,3.590148e-002
5.014093e+002,3.625264e-002
5.033378e+002,3.611697e-002
5.052663e+002,3.549534e-002
5.071948e+002,3.576087e-002
5.091233e+002,3.606924e-002
5.110518e+002,3.606473e-002
5.129803e+002,3.660272e-002
5.149088e+002,3.631122e-002
5.168373e+002,3.655156e-002
5.187658e+002,3.636967e-002
5.206943e+002,3.645895e-002
5.226228e+002,3.669043e-002
5.245513e+002,3.675857e-002
5.264798e+002,3.678437e-002
5.284083e+002,3.684707e-002
5.303368e+002,3.639155e-002
5.322653e+002,3.632738e-002
5.341938e+002,3.628708e-002
5.361223e+002,3.628159e-002
5.380508e+002,3.605817e-002
5.399792e+002,3.622648e-002
5.419078e+002,3.603702e-002
5.438363e+002,3.627547e-002
5.457648e+002,3.604655e-002
5.476932e+002,3.570544e-002
5.496218e+002,3.566869e-002
5.515503e+002,3.587683e-002
5.534788e+002,3.623500e-002
5.554072e+002,3.651803e-002
5.573358e+002,3.660685e-002
5.592643e+002,3.669522e-002
5.611927e+002,3.656722e-002
5.631212e+002,3.647861e-002
5.650497e+002,3.598868e-002
5.669783e+002,3.547975e-002
5.689067e+002,3.488719e-002
5.708352e+002,3.485070e-002
5.727637e+002,3.491827e-002
5.746923e+002,3.516078e-002
5.766207e+002,3.496322e-002
5.785492e+002,3.482820e-002
5.804777e+002,3.478028e-002
5.824063e+002,3.459276e-002
5.843347e+002,3.431605e-002
5.862632e+002,3.450592e-002
5.881917e+002,3.464593e-002
5.901202e+002,3.460940e-002
5.920487e+002,3.444965e-002
5.939772e+002,3.453359e-002
5.959057e+002,3.418445e-002
5.978342e+002,3.391992e-002
5.997627e+002,3.376751e-002
6.016912e+002,3.374908e-002
6.036197e+002,3.362317e-002
6.055482e+002,3.339437e-002
6.074767e+002,3.322061e-002
6.094052e+002,3.313680e-002
6.113337e+002,3.281156e-002
6.132622e+002,3.254772e-002
6.151907e+002,3.211767e-002
6.171192e+002,3.190921e-002
6.190477e+002,3.176320e-002
6.209762e+002,3.160188e-002
6.229047e+002,3.113516e-002
6.248332e+002,3.066991e-002
6.267617e+002,3.021628e-002
6.286902e+002,3.013710e-002
6.306187e+002,3.003184e-002
6.325472e+002,2.973147e-002
6.344756e+002,2.938382e-002
6.364042e+002,2.927604e-002
6.383326e+002,2.895992e-002
6.402612e+002,2.882235e-002
6.421896e+002,2.867719e-002
6.441182e+002,2.880191e-002
6.460466e+002,2.867763e-002
6.479752e+002,2.848569e-002
6.499036e+002,2.846032e-002
6.518322e+002,2.847457e-002
6.537606e+002,2.854962e-002
6.556891e+002,2.867257e-002
6.576177e+002,2.841529e-002
6.595461e+002,2.825281e-002
6.614746e+002,2.846560e-002
6.634031e+002,2.850159e-002
6.653317e+002,2.809001e-002
6.672601e+002,2.796305e-002
6.691886e+002,2.781474e-002
6.711171e+002,2.760596e-002
6.730457e+002,2.701692e-002
6.749741e+002,2.647892e-002
6.769026e+002,2.574177e-002
6.788311e+002,2.532730e-002
6.807596e+002,2.499631e-002
6.826881e+002,2.459571e-002
6.846166e+002,2.442211e-002
6.865451e+002,2.434723e-002
6.884736e+002,2.414266e-002
6.904021e+002,2.412909e-002
6.923306e+002,2.410852e-002
6.942591e+002,2.396633e-002
6.961876e+002,2.374716e-002
6.981161e+002,2.364642e-002
7.000446e+002,2.353795e-002
7.019731e+002,2.340808e-002
7.039016e+002,2.326470e-002
7.058301e+002,2.337817e-002
7.077585e+002,2.330535e-002
7.096871e+002,2.307017e-002
7.116156e+002,2.284680e-002
7.135441e+002,2.287218e-002
7.154725e+002,2.278659e-002
7.174011e+002,2.260184e-002
7.193296e+002,2.226044e-002
7.212581e+002,2.235285e-002
7.231865e+002,2.230768e-002
7.251151e+002,2.207800e-002
7.270436e+002,2.190604e-002
7.289720e+002,2.172962e-002
7.309005e+002,2.154757e-002
7.328290e+002,2.147756e-002
7.347576e+002,2.132465e-002
7.366860e+002,2.124541e-002
7.386145e+002,2.104838e-002
7.405430e+002,2.081470e-002
7.424716e+002,2.056803e-002
7.444000e+002,2.049751e-002
7.463285e+002,2.046412e-002
7.482570e+002,2.047837e-002
7.501855e+002,2.026298e-002
7.521140e+002,2.005702e-002
7.540425e+002,1.990050e-002
7.559710e+002,1.999080e-002
7.578995e+002,1.996206e-002
7.598280e+002,1.984753e-002
7.617565e+002,1.969561e-002
7.636850e+002,1.981292e-002
7.656135e+002,1.977654e-002
7.675420e+002,1.974797e-002
7.694705e+002,1.972134e-002
7.713990e+002,1.972380e-002
7.733275e+002,1.971444e-002
7.752560e+002,1.974936e-002
7.771844e+002,1.977308e-002
7.791130e+002,1.973146e-002
7.810415e+002,1.963023e-002
7.829700e+002,1.970778e-002
7.848984e+002,1.981254e-002
7.868270e+002,1.984101e-002
7.887555e+002,1.977297e-002
7.906840e+002,1.966046e-002
7.926124e+002,1.960964e-002
7.945410e+002,1.970518e-002
7.964695e+002,1.970650e-002
7.983979e+002,1.969950e-002
8.003264e+002,1.963941e-002
8.022549e+002,1.971004e-002
8.041835e+002,1.975709e-002
8.061119e+002,1.968583e-002
8.080404e+002,1.964527e-002
8.099689e+002,1.970997e-002
8.118975e+002,1.966964e-002
8.138259e+002,1.957397e-002
8.157545e+002,1.955133e-002
8.176830e+002,1.946719e-002
8.196115e+002,1.926400e-002
8.215399e+002,1.924391e-002
8.234684e+002,1.928641e-002
8.253970e+002,1.943132e-002
8.273254e+002,1.939726e-002
8.292539e+002,1.939345e-002
8.311824e+002,1.932122e-002
8.331110e+002,1.924869e-002
8.350394e+002,1.922112e-002
8.369679e+002,1.931921e-002
8.388964e+002,1.931419e-002
8.408250e+002,1.926057e-002
8.427534e+002,1.914355e-002
8.446819e+002,1.914728e-002
8.466104e+002,1.914375e-002
8.485389e+002,1.917211e-002
8.504674e+002,1.918697e-002
8.523959e+002,1.923944e-002
8.543244e+002,1.920938e-002
8.562529e+002,1.934318e-002
8.581814e+002,1.943621e-002
8.601099e+002,1.945256e-002
8.620384e+002,1.952745e-002
8.639669e+002,1.964669e-002
8.658954e+002,1.967942e-002
8.678239e+002,1.977207e-002
8.697524e+002,1.992884e-002
8.716809e+002,2.014852e-002
8.736094e+002,2.020634e-002
8.755378e+002,2.034580e-002
8.774664e+002,2.061881e-002
8.793949e+002,2.083995e-002
8.813234e+002,2.099923e-002
8.832518e+002,2.132443e-002
8.851804e+002,2.167841e-002
8.871089e+002,2.210755e-002
8.890374e+002,2.258392e-002
8.909658e+002,2.294789e-002
8.928943e+002,2.327051e-002
8.948229e+002,2.358188e-002
8.967513e+002,2.359399e-002
8.986798e+002,2.352175e-002
9.006083e+002,2.324034e-002
9.025369e+002,2.287077e-002
9.044653e+002,2.258545e-002
9.063938e+002,2.241342e-002
9.083223e+002,2.230960e-002
9.102509e+002,2.233109e-002
9.121793e+002,2.224898e-002
9.141078e+002,2.224783e-002
9.160364e+002,2.237989e-002
9.179648e+002,2.251810e-002
9.198933e+002,2.268249e-002
9.218218e+002,2.287912e-002
9.237504e+002,2.309708e-002
9.256788e+002,2.330396e-002
9.276073e+002,2.355190e-002
9.295358e+002,2.392215e-002
9.314644e+002,2.417374e-002
9.333928e+002,2.445001e-002
9.353213e+002,2.481893e-002
9.372498e+002,2.521877e-002
9.391783e+002,2.558261e-002
9.411068e+002,2.610274e-002
9.430353e+002,2.666063e-002
9.449637e+002,2.723575e-002
9.468923e+002,2.781608e-002
9.488208e+002,2.836100e-002
9.507493e+002,2.895917e-002
9.526777e+002,2.960697e-002
9.546063e+002,3.017336e-002
9.565348e+002,3.078313e-002
9.584633e+002,3.129799e-002
9.603917e+002,3.189195e-002
9.623203e+002,3.251728e-002
9.642488e+002,3.314641e-002
9.661772e+002,3.361350e-002
9.681057e+002,3.403515e-002
9.700343e+002,3.456131e-002
9.719628e+002,3.519661e-002
9.738912e+002,3.581518e-002
9.758197e+002,3.646223e-002
9.777483e+002,3.713193e-002
9.796768e+002,3.791601e-002
9.816052e+002,3.876124e-002
9.835337e+002,3.943098e-002
9.854623e+002,4.002687e-002
9.873907e+002,4.058283e-002
9.893192e+002,4.090286e-002
9.912477e+002,4.109441e-002
9.931763e+002,4.118963e-002
9.951047e+002,4.128166e-002
9.970332e+002,4.143658e-002
9.989617e+002,4.175594e-002
1.000890e+003,4.214037e-002
1.002819e+003,4.256702e-002
1.004747e+003,4.299533e-002
1.006676e+003,4.339814e-002
1.008604e+003,4.384014e-002
1.010533e+003,4.426362e-002
1.012461e+003,4.466842e-002
1.014390e+003,4.518774e-002
1.016318e+003,4.579917e-002
1.018247e+003,4.640058e-002
1.020175e+003,4.693357e-002
1.022104e+003,4.751446e-002
1.024032e+003,4.806062e-002
1.025961e+003,4.855293e-002
1.027889e+003,4.894472e-002
1.029818e+003,4.931341e-002
1.031746e+003,4.950825e-002
1.033675e+003,4.955025e-002
1.035603e+003,4.940198e-002
1.037532e+003,4.894906e-002
1.039460e+003,4.829093e-002
1.041389e+003,4.762969e-002
1.043317e+003,4.704810e-002
1.045246e+003,4.661895e-002
1.047174e+003,4.623820e-002
1.049103e+003,4.581014e-002
1.051031e+003,4.542146e-002
1.052960e+003,4.501883e-002
1.054888e+003,4.448873e-002
1.056817e+003,4.392262e-002
1.058745e+003,4.327985e-002
1.060674e+003,4.259300e-002
1.062602e+003,4.184459e-002
1.064531e+003,4.100944e-002
1.066459e+003,4.017041e-002
1.068388e+003,3.943007e-002
1.070316e+003,3.876877e-002
1.072245e+003,3.817612e-002
1.074173e+003,3.753905e-002
1.076102e+003,3.690584e-002
1.078030e+003,3.623331e-002
1.079959e+003,3.555705e-002
1.081887e+003,3.486481e-002
1.083816e+003,3.428241e-002
1.085744e+003,3.383337e-002
1.087673e+003,3.346603e-002
1.089601e+003,3.311216e-002
1.091530e+003,3.279230e-002
1.093458e+003,3.251964e-002
1.095387e+003,3.228459e-002
1.097315e+003,3.208112e-002
1.099244e+003,3.196923e-002
1.101172e+003,3.181650e-002
1.103101e+003,3.160103e-002
1.105029e+003,3.132395e-002
1.106958e+003,3.096841e-002
1.108886e+003,3.047121e-002
1.110815e+003,2.989615e-002
1.112743e+003,2.918215e-002
1.114672e+003,2.837352e-002
1.116600e+003,2.762212e-002
1.118529e+003,2.701144e-002
1.120457e+003,2.651043e-002
1.122386e+003,2.598450e-002
1.124314e+003,2.535009e-002
1.126243e+003,2.471878e-002
1.128171e+003,2.396354e-002
1.130100e+003,2.329001e-002
1.132028e+003,2.271116e-002
1.133957e+003,2.214531e-002
1.135885e+003,2.161676e-002
1.137814e+003,2.127331e-002
1.139742e+003,2.107386e-002
1.141671e+003,2.103578e-002
1.143599e+003,2.108903e-002
1.145528e+003,2.121875e-002
1.147456e+003,2.140327e-002
1.149385e+003,2.164859e-002
1.151313e+003,2.191594e-002
1.153242e+003,2.218171e-002
1.155170e+003,2.238477e-002
1.157099e+003,2.259114e-002
1.159027e+003,2.266675e-002
1.160956e+003,2.258580e-002
1.162884e+003,2.233391e-002
1.164813e+003,2.195731e-002
1.166741e+003,2.138402e-002
1.168670e+003,2.069856e-002
1.170598e+003,1.994872e-002
1.172526e+003,1.913686e-002
1.174455e+003,1.838238e-002
1.176384e+003,1.774944e-002
1.178312e+003,1.717878e-002
1.180240e+003,1.671367e-002
1.182169e+003,1.625886e-002
1.184098e+003,1.596115e-002
1.186026e+003,1.579657e-002
1.187954e+003,1.564881e-002
1.189883e+003,1.558545e-002
1.191812e+003,1.563852e-002
1.193740e+003,1.570831e-002
1.195668e+003,1.588203e-002
1.197597e+003,1.606965e-002
1.199526e+003,1.622731e-002
1.201454e+003,1.634203e-002
1.203382e+003,1.637779e-002
1.205311e+003,1.636390e-002
1.207240e+003,1.631783e-002
1.209168e+003,1.622409e-002
1.211096e+003,1.619999e-002
1.213025e+003,1.625067e-002
1.214953e+003,1.635083e-002
1.216882e+003,1.648389e-002
1.218810e+003,1.664503e-002
1.220739e+003,1.680505e-002
1.222667e+003,1.703706e-002
1.224596e+003,1.726335e-002
1.226524e+003,1.745321e-002
1.228453e+003,1.765540e-002
1.230381e+003,1.787190e-002
1.232310e+003,1.801464e-002
1.234238e+003,1.806791e-002
1.236167e+003,1.812373e-002
1.238095e+003,1.820992e-002
1.240024e+003,1.819947e-002
1.241952e+003,1.817361e-002
1.243881e+003,1.812011e-002
1.245809e+003,1.800251e-002
1.247738e+003,1.789912e-002
1.249666e+003,1.775869e-002
1.251595e+003,1.755480e-002
1.253523e+003,1.739565e-002
1.255452e+003,1.722846e-002
1.257380e+003,1.703826e-002
1.259309e+003,1.683070e-002
1.261237e+003,1.661840e-002
1.263166e+003,1.640512e-002
1.265094e+003,1.614063e-002
1.267023e+003,1.586143e-002
1.268951e+003,1.565519e-002
1.270880e+003,1.545396e-002
1.272808e+003,1.519787e-002
1.274737e+003,1.501346e-002
1.276665e+003,1.488516e-002
1.278594e+003,1.476015e-002
1.280522e+003,1.463581e-002
1.282451e+003,1.452615e-002
1.284379e+003,1.444858e-002
1.286308e+003,1.433783e-002
1.288236e+003,1.427101e-002
1.290165e+003,1.423703e-002
1.292093e+003,1.424001e-002
1.294022e+003,1.428856e-002
1.295950e+003,1.437683e-002
1.297879e+003,1.447623e-002
1.299807e+003,1.458889e-002
1.301736e+003,1.473650e-002
1.303664e+003,1.492930e-002
1.305593e+003,1.511590e-002
1.307521e+003,1.529354e-002
1.309450e+003,1.550959e-002
1.311378e+003,1.568662e-002
1.313307e+003,1.579038e-002
1.315235e+003,1.584052e-002
1.317164e+003,1.584209e-002
1.319092e+003,1.580363e-002
1.321021e+003,1.573098e-002
1.322949e+003,1.562026e-002
1.324878e+003,1.549593e-002
1.326806e+003,1.539018e-002
1.328735e+003,1.537264e-002
1.330663e+003,1.534978e-002
1.332592e+003,1.532548e-002
1.334520e+003,1.535557e-002
1.336449e+003,1.530710e-002
1.338377e+003,1.523544e-002
1.340306e+003,1.512721e-002
1.342234e+003,1.504293e-002
1.344163e+003,1.502030e-002
1.346091e+003,1.502867e-002
1.348020e+003,1.506094e-002
1.349948e+003,1.516194e-002
1.351877e+003,1.526049e-002
1.353805e+003,1.534581e-002
1.355734e+003,1.545586e-002
1.357662e+003,1.561077e-002
1.359591e+003,1.576006e-002
1.361519e+003,1.589431e-002
1.363448e+003,1.599045e-002
1.365376e+003,1.607510e-002
1.367305e+003,1.612084e-002
1.369233e+003,1.611423e-002
1.371162e+003,1.607190e-002
1.373090e+003,1.595310e-002
1.375019e+003,1.577855e-002
1.376947e+003,1.562231e-002
1.378876e+003,1.544697e-002
1.380804e+003,1.517232e-002
1.382733e+003,1.490430e-002
1.384661e+003,1.472339e-002
1.386590e+003,1.452008e-002
1.388518e+003,1.431534e-002
1.390447e+003,1.419484e-002
1.392375e+003,1.412265e-002
1.394304e+003,1.406147e-002
1.396232e+003,1.407082e-002
1.398161e+003,1.408475e-002
1.400089e+003,1.408904e-002
1.402018e+003,1.409065e-002
1.403946e+003,1.413984e-002
1.405875e+003,1.422643e-002
1.407803e+003,1.426452e-002
1.409732e+003,1.430640e-002
1.411660e+003,1.438996e-002
1.413589e+003,1.448058e-002
1.415517e+003,1.456015e-002
1.417446e+003,1.463494e-002
1.419374e+003,1.470205e-002
1.421303e+003,1.474651e-002
1.423231e+003,1.476546e-002
1.425160e+003,1.474500e-002
1.427088e+003,1.468615e-002
1.429017e+003,1.460538e-002
1.430945e+003,1.451196e-002
1.432874e+003,1.440260e-002
1.434802e+003,1.423363e-002
1.436731e+003,1.405339e-002
1.438659e+003,1.395093e-002
1.440588e+003,1.387655e-002
1.442516e+003,1.382218e-002
1.444445e+003,1.376267e-002
1.446373e+003,1.372133e-002
1.448302e+003,1.370234e-002
1.450230e+003,1.369995e-002
1.452159e+003,1.368448e-002
1.454087e+003,1.368366e-002
1.456016e+003,1.360269e-002
1.457944e+003,1.351674e-002
1.459873e+003,1.345685e-002
1.461801e+003,1.336077e-002
1.463730e+003,1.321340e-002
1.465658e+003,1.308582e-002
1.467587e+003,1.284847e-002
1.469515e+003,1.256930e-002
1.471444e+003,1.227633e-002
1.473372e+003,1.199011e-002
1.475301e+003,1.175090e-002
1.477229e+003,1.154212e-002
1.479158e+003,1.138823e-002
1.481086e+003,1.132187e-002
1.483015e+003,1.126923e-002
1.484943e+003,1.126482e-002
1.486872e+003,1.127742e-002
1.488800e+003,1.133349e-002
1.490729e+003,1.142521e-002
1.492657e+003,1.155985e-002
1.494586e+003,1.174476e-002
1.496514e+003,1.190547e-002
1.498443e+003,1.201430e-002
1.500371e+003,1.215459e-002
1.502300e+003,1.224979e-002
1.504228e+003,1.235602e-002
1.506157e+003,1.243636e-002
1.508085e+003,1.249077e-002
1.510014e+003,1.253554e-002
1.511942e+003,1.266615e-002
1.513871e+003,1.273417e-002
1.515799e+003,1.267603e-002
1.517728e+003,1.253938e-002
1.519656e+003,1.240102e-002
1.521585e+003,1.222988e-002
1.523513e+003,1.208973e-002
1.525442e+003,1.200464e-002
1.527370e+003,1.192757e-002
1.529299e+003,1.187983e-002
1.531227e+003,1.183134e-002
1.533156e+003,1.186488e-002
1.535084e+003,1.188300e-002
1.537013e+003,1.185620e-002
1.538941e+003,1.183126e-002
1.540870e+003,1.178290e-002
1.542798e+003,1.180675e-002
1.544727e+003,1.182000e-002
1.546655e+003,1.178497e-002
1.548584e+003,1.175125e-002
1.550512e+003,1.177338e-002
1.552441e+003,1.178721e-002
1.554369e+003,1.178123e-002
1.556298e+003,1.175003e-002
1.558226e+003,1.174004e-002
1.560155e+003,1.175527e-002
1.562083e+003,1.180054e-002
1.564012e+003,1.180540e-002
1.565940e+003,1.180426e-002
1.567869e+003,1.182059e-002
1.569797e+003,1.191349e-002
1.571726e+003,1.196914e-002
1.573654e+003,1.199423e-002
1.575583e+003,1.212842e-002
1.577511e+003,1.226500e-002
1.579440e+003,1.239923e-002
1.581368e+003,1.254623e-002
1.583297e+003,1.265979e-002
1.585225e+003,1.278630e-002
1.587154e+003,1.291131e-002
1.589082e+003,1.297647e-002
1.591010e+003,1.308199e-002
1.592939e+003,1.316902e-002
1.594868e+003,1.320090e-002
1.596796e+003,1.323464e-002
1.598724e+003,1.327378e-002
1.600653e+003,1.329726e-002
1.602582e+003,1.331075e-002
1.604510e+003,1.331740e-002
1.606438e+003,1.326633e-002
1.608367e+003,1.324636e-002
1.610296e+003,1.323131e-002
1.612224e+003,1.327406e-002
1.614152e+003,1.336975e-002
1.616081e+003,1.347290e-002
1.618010e+003,1.351776e-002
1.619938e+003,1.357504e-002
1.621866e+003,1.366672e-002
1.623795e+003,1.371471e-002
1.625724e+003,1.374547e-002
1.627652e+003,1.377482e-002
1.629580e+003,1.375851e-002
1.631509e+003,1.373515e-002
1.633438e+003,1.367867e-002
1.635366e+003,1.363759e-002
1.637294e+003,1.360268e-002
1.639223e+003,1.355899e-002
1.641151e+003,1.352052e-002
1.643080e+003,1.345551e-002
1.645008e+003,1.346835e-002
1.646937e+003,1.339128e-002
1.648865e+003,1.330788e-002
1.650794e+003,1.327597e-002
1.652722e+003,1.322706e-002
1.654651e+003,1.315992e-002
1.656579e+003,1.303156e-002
1.658508e+003,1.288701e-002
1.660436e+003,1.271166e-002
1.662365e+003,1.255175e-002
1.664293e+003,1.242017e-002
1.666222e+003,1.229466e-002
1.668150e+003,1.209021e-002
1.670079e+003,1.194984e-002
1.672007e+003,1.184921e-002
1.673936e+003,1.171698e-002
1.675864e+003,1.163287e-002
1.677793e+003,1.157075e-002
1.679721e+003,1.146161e-002
1.681650e+003,1.138756e-002
1.683578e+003,1.135920e-002
1.685507e+003,1.130826e-002
1.687435e+003,1.118272e-002
1.689364e+003,1.108402e-002
1.691292e+003,1.105298e-002
1.693221e+003,1.102652e-002
1.695149e+003,1.101825e-002
1.697078e+003,1.097863e-002
1.699006e+003,1.091302e-002
1.700935e+003,1.089666e-002
1.702863e+003,1.093489e-002
1.704792e+003,1.098430e-002
1.706720e+003,1.101290e-002
1.708649e+003,1.108834e-002
1.710577e+003,1.115671e-002
1.712506e+003,1.127348e-002
1.714434e+003,1.136825e-002
1.716363e+003,1.141537e-002
1.718291e+003,1.150455e-002
1.720220e+003,1.164450e-002
1.722148e+003,1.175028e-002
1.724077e+003,1.176920e-002
1.726005e+003,1.174043e-002
1.727934e+003,1.174581e-002
1.729862e+003,1.168062e-002
1.731791e+003,1.158058e-002
1.733719e+003,1.145736e-002
1.735648e+003,1.133194e-002
1.737576e+003,1.117638e-002
1.739505e+003,1.091338e-002
1.741433e+003,1.069110e-002
1.743362e+003,1.047267e-002
1.745290e+003,1.021120e-002
1.747219e+003,9.985155e-003
1.749147e+003,9.826365e-003
1.751076e+003,9.681038e-003
1.753004e+003,9.550509e-003
1.754933e+003,9.461557e-003
1.756861e+003,9.387626e-003
1.758790e+003,9.199319e-003
1.760718e+003,9.076085e-003
1.762647e+003,9.042165e-003
1.764575e+003,8.931481e-003
1.766504e+003,8.911919e-003
1.768432e+003,8.893326e-003
1.770361e+003,8.850321e-003
1.772289e+003,8.913211e-003
1.774218e+003,8.882710e-003
1.776146e+003,8.780170e-003
1.778075e+003,8.793664e-003
1.780003e+003,8.736359e-003
1.781932e+003,8.697984e-003
1.783860e+003,8.703122e-003
1.785789e+003,8.775059e-003
1.787717e+003,8.800760e-003
1.789646e+003,8.780774e-003
1.791574e+003,8.769344e-003
1.793503e+003,8.777910e-003
1.795431e+003,8.728853e-003
1.797360e+003,8.705157e-003
1.799288e+003,8.760891e-003
1.801217e+003,8.845608e-003
1.803145e+003,8.888535e-003
1.805074e+003,8.868231e-003
1.807002e+003,8.845023e-003
1.808931e+003,8.859775e-003
1.810859e+003,8.835958e-003
1.812788e+003,8.845093e-003
1.814716e+003,8.831161e-003
1.816645e+003,8.768999e-003
1.818573e+003,8.737430e-003
1.820502e+003,8.828549e-003
1.822430e+003,8.906089e-003
1.824359e+003,8.896163e-003
1.826287e+003,8.880287e-003
1.828216e+003,8.868746e-003
1.830144e+003,8.890536e-003
1.832073e+003,8.948728e-003
1.834001e+003,8.968634e-003
1.835930e+003,8.920505e-003
1.837858e+003,8.817165e-003
1.839787e+003,8.740703e-003
1.841715e+003,8.744101e-003
1.843644e+003,8.739821e-003
1.845572e+003,8.728334e-003
1.847501e+003,8.634844e-003
1.849429e+003,8.573427e-003
1.851358e+003,8.667096e-003
1.853286e+003,8.575131e-003
1.855215e+003,8.668696e-003
1.857143e+003,8.804930e-003
1.859072e+003,8.688348e-003
1.861000e+003,8.633666e-003
1.862929e+003,8.650593e-003
1.864857e+003,8.659797e-003
1.866786e+003,8.718695e-003
1.868714e+003,8.757052e-003
1.870643e+003,8.724147e-003
1.872571e+003,8.581387e-003
1.874500e+003,8.513596e-003
1.876428e+003,8.493336e-003
1.878357e+003,8.521372e-003
1.880285e+003,8.422881e-003
1.882214e+003,8.304462e-003
1.884142e+003,8.311191e-003
1.886071e+003,8.310352e-003
1.887999e+003,8.174591e-003
1.889928e+003,8.132428e-003
1.891856e+003,8.171962e-003
1.893785e+003,8.286159e-003
1.895713e+003,8.318669e-003
1.897642e+003,8.403022e-003
1.899570e+003,8.340349e-003
1.901499e+003,8.227733e-003
1.903427e+003,8.232160e-003
1.905356e+003,8.130854e-003
1.907284e+003,7.931788e-003
1.909213e+003,7.895675e-003
1.911141e+003,8.020997e-003
1.913070e+003,8.015832e-003
1.914998e+003,8.021347e-003
1.916927e+003,7.959370e-003
1.918855e+003,7.720362e-003
1.920784e+003,7.513021e-003
1.922712e+003,7.510460e-003
1.924641e+003,7.436230e-003
1.926569e+003,7.417209e-003
1.928498e+003,7.362883e-003
1.930426e+003,7.044794e-003
1.932355e+003,7.057352e-003
1.934283e+003,7.263242e-003
1.936212e+003,7.277190e-003
1.938140e+003,7.121255e-003
1.940069e+003,6.716822e-003
1.941997e+003,6.695099e-003
1.943926e+003,7.073605e-003
1.945854e+003,6.617256e-003
1.947783e+003,5.793485e-003
1.949711e+003,5.538112e-003
1.951640e+003,5.376916e-003
1.953568e+003,5.548342e-003
1.955497e+003,5.469197e-003
1.957425e+003,4.802853e-003
1.959354e+003,4.333721e-003
1.961282e+003,4.167521e-003
1.963211e+003,3.780443e-003
1.965139e+003,3.560240e-003
1.967068e+003,3.285539e-003
1.968996e+003,2.987084e-003
1.970925e+003,2.513120e-003
1.972853e+003,2.594340e-003
1.974782e+003,1.925699e-003
1.976710e+003,1.584731e-003
1.978639e+003,1.220543e-003
1.980567e+003,1.300543e-003
1.982496e+003,2.326395e-003
1.984424e+003,2.466627e-003
1.986353e+003,2.818881e-003
1.988281e+003,3.652504e-003
1.990210e+003,3.049002e-003
1.992138e+003,2.274710e-003
1.994067e+003,1.996672e-003
1.995995e+003,2.096635e-003
1.997924e+003,1.738815e-003
1.999852e+003,1.945392e-003
2.001781e+003,1.769408e-003
2.003709e+003,8.728763e-004
2.005638e+003,2.625854e-004
2.007566e+003,-6.789047e-005
2.009495e+003,-6.080897e-004
2.011423e+003,-1.026931e-003
2.013352e+003,-6.791564e-004
2.015280e+003,-2.338690e-004
2.017208e+003,-5.597280e-004
2.019137e+003,-9.066847e-004
2.021066e+003,-1.626304e-003
2.022994e+003,-2.783062e-003
2.024922e+003,-2.505956e-003
2.026851e+003,-1.811847e-003
2.028780e+003,-2.032927e-003
2.030708e+003,-2.232322e-003
2.032636e+003,-1.972376e-003
2.034565e+003,-1.764709e-003
2.036494e+003,-1.330965e-003
2.038422e+003,-1.269347e-003
2.040350e+003,-1.495987e-003
2.042279e+003,-1.146073e-003
2.044208e+003,-1.386350e-004
2.046136e+003,8.906470e-004
2.048064e+003,7.755912e-004
2.049993e+003,1.606449e-003
2.051921e+003,2.487462e-003
2.053850e+003,2.656705e-003
2.055778e+003,3.081121e-003
2.057707e+003,3.137786e-003
2.059635e+003,3.321083e-003
2.061564e+003,3.601698e-003
2.063492e+003,3.841885e-003
2.065421e+003,3.835781e-003
2.067349e+003,3.608083e-003
2.069278e+003,3.731060e-003
2.071206e+003,3.860982e-003
2.073135e+003,4.105613e-003
2.075063e+003,4.214393e-003
2.076992e+003,4.139345e-003
2.078920e+003,4.171135e-003
2.080849e+003,4.476110e-003
2.082777e+003,4.787466e-003
2.084706e+003,4.783504e-003
2.086634e+003,5.035921e-003
2.088563e+003,5.196816e-003
2.090491e+003,4.853291e-003
2.092420e+003,5.257577e-003
2.094348e+003,5.150407e-003
2.096277e+003,5.084677e-003
2.098205e+003,5.324007e-003
2.100134e+003,5.175371e-003
2.102062e+003,5.079348e-003
2.103991e+003,5.514336e-003
2.105919e+003,5.848697e-003
2.107848e+003,5.667049e-003
2.109776e+003,5.567830e-003
2.111705e+003,5.819850e-003
2.113633e+003,5.881173e-003
2.115562e+003,5.958091e-003
2.117490e+003,6.054074e-003
2.119419e+003,6.168696e-003
2.121347e+003,6.133073e-003
2.123276e+003,5.879998e-003
2.125204e+003,5.748227e-003
2.127133e+003,5.571891e-003
2.129061e+003,5.054541e-003
2.130990e+003,4.625404e-003
2.132918e+003,4.354732e-003
2.134847e+003,4.200070e-003
2.136775e+003,3.593234e-003
2.138704e+003,2.923559e-003
2.140632e+003,3.007896e-003
2.142561e+003,2.770474e-003
2.144489e+003,1.726397e-003
2.146418e+003,1.252581e-003
2.148346e+003,1.377576e-003
2.150275e+003,1.226763e-003
2.152203e+003,4.519846e-004
2.154132e+003,-5.334947e-004
2.156060e+003,-2.517536e-003
2.157989e+003,-4.148419e-003
2.159917e+003,-4.925633e-003
2.161846e+003,-3.923288e-003
2.163774e+003,-2.380572e-003
2.165703e+003,-2.381726e-003
2.167631e+003,-7.330680e-004
2.169560e+003,-4.096417e-004
2.171488e+003,-3.859725e-004
2.173417e+003,8.403296e-004
2.175345e+003,1.085867e-003
2.177274e+003,7.737059e-004
2.179202e+003,8.051078e-004
2.181131e+003,5.415489e-004
2.183059e+003,2.161871e-004
2.184988e+003,6.455330e-004
2.186916e+003,1.414873e-003
2.188845e+003,1.363782e-003
2.190773e+003,1.785049e-003
2.192702e+003,1.896719e-003
2.194630e+003,2.114918e-003
2.196559e+003,2.233134e-003
2.198487e+003,2.002326e-003
2.200416e+003,2.618009e-003
2.202344e+003,2.629976e-003
2.204273e+003,2.117349e-003
2.206201e+003,2.542447e-003
2.208130e+003,3.392290e-003
2.210058e+003,3.074697e-003
2.211987e+003,3.022143e-003
2.213915e+003,3.255864e-003
2.215844e+003,3.583746e-003
2.217772e+003,3.389518e-003
2.219701e+003,3.768300e-003
2.221629e+003,4.520362e-003
2.223558e+003,4.656215e-003
2.225486e+003,4.475333e-003
2.227415e+003,4.640776e-003
2.229343e+003,4.926506e-003
2.231272e+003,4.905656e-003
2.233200e+003,4.774603e-003
2.235129e+003,5.150241e-003
2.237057e+003,5.242960e-003
2.238986e+003,5.269964e-003
2.240914e+003,5.502986e-003
2.242843e+003,5.398716e-003
2.244771e+003,5.328822e-003
2.246700e+003,5.477536e-003
2.248628e+003,5.973248e-003
2.250557e+003,6.344641e-003
2.252485e+003,6.287436e-003
2.254414e+003,6.090661e-003
2.256342e+003,6.175058e-003
2.258271e+003,6.484629e-003
2.260199e+003,6.691981e-003
2.262128e+003,6.761949e-003
2.264056e+003,6.533598e-003
2.265985e+003,6.359256e-003
2.267913e+003,6.528939e-003
2.269842e+003,6.664617e-003
2.271770e+003,6.785971e-003
2.273699e+003,6.826093e-003
2.275627e+003,6.850734e-003
2.277556e+003,6.823746e-003
2.279484e+003,6.842095e-003
2.281413e+003,7.024839e-003
2.283341e+003,7.263191e-003
2.285270e+003,7.377846e-003
2.287198e+003,7.366456e-003
2.289127e+003,7.515945e-003
2.291055e+003,7.740695e-003
2.292984e+003,7.664501e-003
2.294912e+003,7.762234e-003
2.296841e+003,8.020920e-003
2.298769e+003,8.081828e-003
2.300698e+003,8.067138e-003
2.302626e+003,8.225149e-003
2.304555e+003,8.322970e-003
2.306483e+003,8.312119e-003
2.308412e+003,8.363476e-003
2.310340e+003,8.401286e-003
2.312269e+003,8.334874e-003
2.314197e+003,8.271108e-003
2.316125e+003,8.260557e-003
2.318054e+003,8.374384e-003
2.319983e+003,8.360183e-003
2.321911e+003,8.296376e-003
2.323840e+003,8.560607e-003
2.325768e+003,8.728045e-003
2.327697e+003,8.622102e-003
2.329625e+003,8.544696e-003
2.331553e+003,8.617244e-003
2.333482e+003,8.591386e-003
2.335411e+003,8.452931e-003
2.337339e+003,8.331461e-003
2.339268e+003,8.456289e-003
2.341196e+003,8.232119e-003
2.343125e+003,8.423042e-003
2.345053e+003,8.340654e-003
2.346981e+003,8.345326e-003
2.348910e+003,8.279063e-003
2.350839e+003,8.305826e-003
2.352767e+003,8.355085e-003
2.354696e+003,8.299976e-003
2.356624e+003,8.243436e-003
2.358552e+003,8.251294e-003
2.360481e+003,8.405267e-003
2.362409e+003,8.387789e-003
2.364338e+003,8.138338e-003
2.366267e+003,8.281213e-003
2.368195e+003,8.290995e-003
2.370124e+003,8.246616e-003
2.372052e+003,8.246160e-003
2.373980e+003,8.355843e-003
2.375909e+003,8.415923e-003
2.377838e+003,8.482289e-003
2.379766e+003,8.569841e-003
2.381695e+003,8.457777e-003
2.383623e+003,8.508261e-003
2.385552e+003,8.614322e-003
2.387480e+003,8.633615e-003
2.389408e+003,8.619430e-003
2.391337e+003,8.657934e-003
2.393266e+003,8.637308e-003
2.395194e+003,8.633481e-003
2.397123e+003,8.556647e-003
2.399051e+003,8.504393e-003
2.400979e+003,8.538094e-003
2.402908e+003,8.530694e-003
2.404836e+003,8.467880e-003
2.406765e+003,8.629916e-003
2.408694e+003,8.742008e-003
2.410622e+003,8.794109e-003
2.412551e+003,8.807094e-003
2.414479e+003,8.901949e-003
2.416407e+003,8.928938e-003
2.418336e+003,8.840806e-003
2.420264e+003,8.770814e-003
2.422193e+003,8.804220e-003
2.424122e+003,8.942535e-003
2.426050e+003,8.993510e-003
2.427979e+003,8.966144e-003
2.429907e+003,9.057854e-003
2.431835e+003,9.160717e-003
2.433764e+003,9.234427e-003
2.435692e+003,9.384324e-003
2.437621e+003,9.486891e-003
2.439550e+003,9.473819e-003
2.441478e+003,9.379922e-003
2.443406e+003,9.408228e-003
2.445335e+003,9.477036e-003
2.447263e+003,9.466335e-003
2.449192e+003,9.376062e-003
2.451121e+003,9.289498e-003
2.453049e+003,9.268072e-003
2.454978e+003,9.221092e-003
2.456906e+003,9.154219e-003
2.458834e+003,9.129415e-003
2.460763e+003,9.135845e-003
2.462691e+003,9.031398e-003
2.464620e+003,8.918048e-003
2.466549e+003,8.977983e-003
2.468477e+003,8.992630e-003
2.470406e+003,9.023109e-003
2.472334e+003,8.967531e-003
2.474262e+003,8.944971e-003
2.476191e+003,8.999700e-003
2.478119e+003,9.012555e-003
2.480048e+003,9.006499e-003
2.481977e+003,8.966550e-003
2.483905e+003,8.855686e-003
2.485833e+003,8.992698e-003
2.487762e+003,9.105594e-003
2.489690e+003,9.016749e-003
2.491619e+003,9.106237e-003
2.493547e+003,9.154761e-003
2.495476e+003,8.979471e-003
2.497405e+003,8.966043e-003
2.499333e+003,9.128062e-003
2.501261e+003,9.126709e-003
2.503190e+003,9.231855e-003
2.505118e+003,9.084041e-003
2.507047e+003,8.958432e-003
2.508975e+003,9.021791e-003
2.510904e+003,9.086207e-003
2.512833e+003,8.999599e-003
2.514761e+003,8.973315e-003
2.516689e+003,9.078627e-003
2.518618e+003,9.151377e-003
2.520546e+003,9.250911e-003
2.522475e+003,9.388692e-003
2.524403e+003,9.337264e-003
2.526332e+003,9.279411e-003
2.528260e+003,9.300737e-003
2.530189e+003,9.316478e-003
2.532117e+003,9.214729e-003
2.534046e+003,9.256292e-003
2.535974e+003,9.310012e-003
2.537903e+003,9.308421e-003
2.539831e+003,9.319830e-003
2.541760e+003,9.311129e-003
2.543688e+003,9.384798e-003
2.545617e+003,9.413714e-003
2.547545e+003,9.427190e-003
2.549474e+003,9.478323e-003
2.551402e+003,9.488347e-003
2.553331e+003,9.460917e-003
2.555259e+003,9.480999e-003
2.557188e+003,9.553408e-003
2.559116e+003,9.603642e-003
2.561045e+003,9.672143e-003
2.562973e+003,9.726388e-003
2.564902e+003,9.699993e-003
2.566830e+003,9.732454e-003
2.568759e+003,9.753496e-003
2.570687e+003,9.784098e-003
2.572616e+003,9.824360e-003
2.574544e+003,9.784538e-003
2.576473e+003,9.835951e-003
2.578401e+003,9.855405e-003
2.580330e+003,9.877471e-003
2.582258e+003,9.896623e-003
2.584187e+003,9.785792e-003
2.586115e+003,9.823411e-003
2.588044e+003,9.930997e-003
2.589972e+003,9.882251e-003
2.591901e+003,9.857574e-003
2.593829e+003,9.908420e-003
2.595758e+003,9.866049e-003
2.597686e+003,9.909301e-003
2.599615e+003,9.924691e-003
2.601543e+003,9.842932e-003
2.603472e+003,9.722932e-003
2.605400e+003,9.798840e-003
2.607329e+003,9.886623e-003
2.609257e+003,9.842593e-003
2.611186e+003,9.810735e-003
2.613114e+003,9.862456e-003
2.615043e+003,9.809684e-003
2.616971e+003,9.776947e-003
2.618900e+003,9.813277e-003
2.620828e+003,9.829341e-003
2.622757e+003,9.887844e-003
2.624685e+003,9.847203e-003
2.626614e+003,9.827036e-003
2.628542e+003,9.913369e-003
2.630471e+003,9.930929e-003
2.632399e+003,9.917776e-003
2.634328e+003,1.003101e-002
2.636256e+003,1.001104e-002
2.638185e+003,1.002817e-002
2.640113e+003,1.006672e-002
2.642042e+003,1.009256e-002
2.643970e+003,1.019828e-002
2.645899e+003,1.024326e-002
2.647827e+003,1.017959e-002
2.649756e+003,1.022362e-002
2.651684e+003,1.033131e-002
2.653613e+003,1.030036e-002
2.655541e+003,1.028326e-002
2.657470e+003,1.031003e-002
2.659398e+003,1.037349e-002
2.661327e+003,1.048023e-002
2.663255e+003,1.050894e-002
2.665184e+003,1.050100e-002
2.667112e+003,1.052517e-002
2.669041e+003,1.053709e-002
2.670969e+003,1.056353e-002
2.672898e+003,1.062169e-002
2.674826e+003,1.063157e-002
2.676755e+003,1.065982e-002
2.678683e+003,1.068410e-002
2.680612e+003,1.074843e-002
2.682540e+003,1.076915e-002
2.684469e+003,1.077543e-002
2.686397e+003,1.081476e-002
2.688326e+003,1.086209e-002
2.690254e+003,1.090880e-002
2.692183e+003,1.094907e-002
2.694111e+003,1.095213e-002
2.696040e+003,1.097014e-002
2.697968e+003,1.094305e-002
2.699897e+003,1.091713e-002
2.701825e+003,1.095736e-002
2.703754e+003,1.099654e-002
2.705682e+003,1.101907e-002
2.707611e+003,1.103678e-002
2.709539e+003,1.107570e-002
2.711468e+003,1.106125e-002
2.713396e+003,1.103287e-002
2.715325e+003,1.102454e-002
2.717253e+003,1.100504e-002
2.719182e+003,1.104167e-002
2.721110e+003,1.106509e-002
2.723039e+003,1.110656e-002
2.724967e+003,1.109599e-002
2.726896e+003,1.106648e-002
2.728824e+003,1.106461e-002
2.730753e+003,1.110251e-002
2.732681e+003,1.111074e-002
2.734610e+003,1.109945e-002
2.736538e+003,1.109204e-002
2.738467e+003,1.107546e-002
2.740395e+003,1.106424e-002
2.742324e+003,1.107223e-002
2.744252e+003,1.110724e-002
2.746181e+003,1.109918e-002
2.748109e+003,1.110122e-002
2.750038e+003,1.111927e-002
2.751966e+003,1.108107e-002
2.753895e+003,1.110506e-002
2.755823e+003,1.113253e-002
2.757752e+003,1.110636e-002
2.759680e+003,1.109293e-002
2.761609e+003,1.115065e-002
2.763537e+003,1.115670e-002
2.765466e+003,1.119012e-002
2.767394e+003,1.118672e-002
2.769323e+003,1.119128e-002
2.771251e+003,1.121154e-002
2.773180e+003,1.130828e-002
2.775108e+003,1.129158e-002
2.777037e+003,1.127516e-002
2.778965e+003,1.126098e-002
2.780894e+003,1.128114e-002
2.782822e+003,1.129441e-002
2.784750e+003,1.135726e-002
2.786679e+003,1.138198e-002
2.788608e+003,1.137107e-002
2.790536e+003,1.140892e-002
2.792465e+003,1.143712e-002
2.794393e+003,1.143161e-002
2.796322e+003,1.141042e-002
2.798250e+003,1.145658e-002
2.800178e+003,1.150687e-002
2.802107e+003,1.149292e-002
2.804036e+003,1.149720e-002
2.805964e+003,1.159146e-002
2.807893e+003,1.164424e-002
2.809821e+003,1.163311e-002
2.811750e+003,1.166163e-002
2.813678e+003,1.168692e-002
2.815606e+003,1.168740e-002
2.817535e+003,1.169795e-002
2.819464e+003,1.173261e-002
2.821392e+003,1.177070e-002
2.823321e+003,1.179681e-002
2.825249e+003,1.186150e-002
2.827177e+003,1.189208e-002
2.829106e+003,1.189035e-002
2.831034e+003,1.193653e-002
2.832963e+003,1.200328e-002
2.834892e+003,1.205656e-002
2.836820e+003,1.215175e-002
2.838749e+003,1.219265e-002
2.840677e+003,1.217973e-002
2.842605e+003,1.221803e-002
2.844534e+003,1.234442e-002
2.846462e+003,1.243054e-002
2.848391e+003,1.245079e-002
2.850320e+003,1.248864e-002
2.852248e+003,1.252325e-002
2.854177e+003,1.257530e-002
2.856105e+003,1.260177e-002
2.858033e+003,1.260726e-002
2.859962e+003,1.266842e-002
2.861890e+003,1.276375e-002
2.863819e+003,1.283169e-002
2.865748e+003,1.282002e-002
2.867676e+003,1.284923e-002
2.869604e+003,1.284510e-002
2.871533e+003,1.286886e-002
2.873461e+003,1.288910e-002
2.875390e+003,1.289531e-002
2.877319e+003,1.291426e-002
2.879247e+003,1.290722e-002
2.881176e+003,1.288063e-002
2.883104e+003,1.290105e-002
2.885032e+003,1.292924e-002
2.886961e+003,1.291327e-002
2.888889e+003,1.293334e-002
2.890818e+003,1.294562e-002
2.892747e+003,1.294071e-002
2.894675e+003,1.296764e-002
2.896604e+003,1.297898e-002
2.898532e+003,1.291521e-002
2.900460e+003,1.286910e-002
2.902389e+003,1.284644e-002
2.904317e+003,1.283906e-002
2.906246e+003,1.287278e-002
2.908175e+003,1.286098e-002
2.910103e+003,1.283183e-002
2.912031e+003,1.278235e-002
2.913960e+003,1.272642e-002
2.915888e+003,1.268084e-002
2.917817e+003,1.268122e-002
2.919745e+003,1.260630e-002
2.921674e+003,1.254569e-002
2.923603e+003,1.256421e-002
2.925531e+003,1.252527e-002
2.927459e+003,1.254924e-002
2.929388e+003,1.253638e-002
2.931316e+003,1.248008e-002
2.933245e+003,1.239740e-002
2.935173e+003,1.236044e-002
2.937102e+003,1.234204e-002
2.939031e+003,1.229423e-002
2.940959e+003,1.223654e-002
2.942887e+003,1.217458e-002
2.944816e+003,1.209127e-002
2.946744e+003,1.205571e-002
2.948673e+003,1.197681e-002
2.950601e+003,1.194039e-002
2.952530e+003,1.194442e-002
2.954458e+003,1.188014e-002
2.956387e+003,1.174862e-002
2.958315e+003,1.169132e-002
2.960244e+003,1.167820e-002
2.962172e+003,1.165990e-002
2.964101e+003,1.164251e-002
2.966029e+003,1.157961e-002
2.967958e+003,1.153250e-002
2.969886e+003,1.149026e-002
2.971815e+003,1.141728e-002
2.973743e+003,1.140328e-002
2.975672e+003,1.137730e-002
2.977600e+003,1.135787e-002
2.979529e+003,1.135005e-002
2.981457e+003,1.132498e-002
2.983386e+003,1.132917e-002
2.985314e+003,1.128378e-002
2.987243e+003,1.124512e-002
2.989171e+003,1.124906e-002
2.991100e+003,1.124887e-002
2.993028e+003,1.122003e-002
2.994957e+003,1.121998e-002
2.996885e+003,1.131139e-002
2.998814e+003,1.133191e-002
3.000742e+003,1.133622e-002
3.002671e+003,1.128670e-002
3.004599e+003,1.122110e-002
3.006528e+003,1.123563e-002
3.008456e+003,1.130124e-002
3.010385e+003,1.128665e-002
3.012313e+003,1.126796e-002
3.014242e+003,1.132149e-002
3.016170e+003,1.132128e-002
3.018099e+003,1.131452e-002
3.020027e+003,1.136251e-002
3.021956e+003,1.139853e-002
3.023884e+003,1.142096e-002
3.025813e+003,1.144726e-002
3.027741e+003,1.142669e-002
3.029670e+003,1.141892e-002
3.031598e+003,1.139869e-002
3.033527e+003,1.136641e-002
3.035455e+003,1.140520e-002
3.037384e+003,1.145728e-002
3.039312e+003,1.151627e-002
3.041241e+003,1.157985e-002
3.043169e+003,1.161465e-002
3.045098e+003,1.164030e-002
3.047026e+003,1.165419e-002
3.048955e+003,1.163542e-002
3.050883e+003,1.163469e-002
3.052812e+003,1.161832e-002
3.054740e+003,1.166899e-002
3.056669e+003,1.176136e-002
3.058597e+003,1.177909e-002
3.060526e+003,1.182030e-002
3.062454e+003,1.185345e-002
3.064383e+003,1.186982e-002
3.066311e+003,1.183296e-002
3.068240e+003,1.183545e-002
3.070168e+003,1.184640e-002
3.072097e+003,1.185785e-002
3.074025e+003,1.192167e-002
3.075954e+003,1.187642e-002
3.077882e+003,1.187929e-002
3.079811e+003,1.189974e-002
3.081739e+003,1.187238e-002
3.083668e+003,1.194853e-002
3.085596e+003,1.199962e-002
3.087525e+003,1.200271e-002
3.089453e+003,1.199784e-002
3.091382e+003,1.204508e-002
3.093310e+003,1.206596e-002
3.095239e+003,1.207807e-002
3.097167e+003,1.212361e-002
3.099096e+003,1.204906e-002
3.101024e+003,1.209418e-002
3.102953e+003,1.224177e-002
3.104881e+003,1.230783e-002
3.106810e+003,1.233713e-002
3.108738e+003,1.234319e-002
3.110667e+003,1.237704e-002
3.112595e+003,1.243720e-002
3.114524e+003,1.240310e-002
3.116452e+003,1.234745e-002
3.118381e+003,1.242113e-002
3.120309e+003,1.248911e-002
3.122238e+003,1.246835e-002
3.124166e+003,1.246875e-002
3.126095e+003,1.248738e-002
3.128023e+003,1.254157e-002
3.129952e+003,1.261565e-002
3.131880e+003,1.261914e-002
3.133809e+003,1.260759e-002
3.135737e+003,1.263699e-002
3.137666e+003,1.271677e-002
3.139594e+003,1.274436e-002
3.141523e+003,1.271688e-002
3.143451e+003,1.272149e-002
3.145380e+003,1.280307e-002
3.147308e+003,1.282272e-002
3.149237e+003,1.286618e-002
3.151165e+003,1.291414e-002
3.153094e+003,1.297984e-002
3.155022e+003,1.298950e-002
3.156951e+003,1.290229e-002
3.158879e+003,1.299175e-002
3.160808e+003,1.306361e-002
3.162736e+003,1.304587e-002
3.164665e+003,1.307245e-002
3.166593e+003,1.310281e-002
3.168522e+003,1.319227e-002
3.170450e+003,1.327285e-002
3.172379e+003,1.330521e-002
3.174307e+003,1.332913e-002
3.176236e+003,1.327956e-002
3.178164e+003,1.328772e-002
3.180093e+003,1.333013e-002
3.182021e+003,1.341355e-002
3.183950e+003,1.349290e-002
3.185878e+003,1.350600e-002
3.187807e+003,1.352063e-002
3.189735e+003,1.360293e-002
3.191664e+003,1.362238e-002
3.193592e+003,1.365067e-002
3.195521e+003,1.369394e-002
3.197449e+003,1.373185e-002
3.199378e+003,1.382320e-002
3.201306e+003,1.384959e-002
3.203235e+003,1.382704e-002
3.205163e+003,1.389814e-002
3.207092e+003,1.400925e-002
3.209020e+003,1.403373e-002
3.210948e+003,1.405537e-002
3.212877e+003,1.411649e-002
3.214806e+003,1.412170e-002
3.216734e+003,1.415081e-002
3.218663e+003,1.417122e-002
3.220591e+003,1.419679e-002
3.222520e+003,1.425414e-002
3.224448e+003,1.430714e-002
3.226376e+003,1.431006e-002
3.228305e+003,1.434705e-002
3.230234e+003,1.439461e-002
3.232162e+003,1.446605e-002
3.234091e+003,1.454326e-002
3.236019e+003,1.456178e-002
3.237948e+003,1.464696e-002
3.239876e+003,1.472363e-002
3.241804e+003,1.474169e-002
3.243733e+003,1.472619e-002
3.245662e+003,1.484231e-002
3.247590e+003,1.481537e-002
3.249519e+003,1.482728e-002
3.251447e+003,1.487621e-002
3.253375e+003,1.495973e-002
3.255304e+003,1.503093e-002
3.257232e+003,1.503950e-002
3.259161e+003,1.509211e-002
3.261090e+003,1.507439e-002
3.263018e+003,1.509112e-002
3.264947e+003,1.508659e-002
3.266875e+003,1.517821e-002
3.268803e+003,1.520167e-002
3.270732e+003,1.517941e-002
3.272660e+003,1.525361e-002
3.274589e+003,1.526123e-002
3.276518e+003,1.528893e-002
3.278446e+003,1.533050e-002
3.280375e+003,1.532217e-002
3.282303e+003,1.528237e-002
3.284231e+003,1.530297e-002
3.286160e+003,1.520694e-002
3.288088e+003,1.522021e-002
3.290017e+003,1.528525e-002
3.291946e+003,1.531340e-002
3.293874e+003,1.532985e-002
3.295802e+003,1.537981e-002
3.297731e+003,1.537412e-002
3.299659e+003,1.534118e-002
3.301588e+003,1.536824e-002
3.303516e+003,1.531872e-002
3.305445e+003,1.527784e-002
3.307374e+003,1.526872e-002
3.309302e+003,1.526002e-002
3.311230e+003,1.526020e-002
3.313159e+003,1.532949e-002
3.315087e+003,1.542248e-002
3.317016e+003,1.541217e-002
3.318944e+003,1.542221e-002
3.320873e+003,1.537553e-002
3.322802e+003,1.532476e-002
3.324730e+003,1.535335e-002
3.326658e+003,1.530388e-002
3.328587e+003,1.527917e-002
3.330515e+003,1.528677e-002
3.332444e+003,1.534596e-002
3.334372e+003,1.535486e-002
3.336301e+003,1.538440e-002
3.338229e+003,1.535305e-002
3.340158e+003,1.530637e-002
3.342086e+003,1.536357e-002
3.344015e+003,1.533596e-002
3.345943e+003,1.528141e-002
3.347872e+003,1.525959e-002
3.349800e+003,1.515417e-002
3.351729e+003,1.514556e-002
3.353657e+003,1.520602e-002
3.355586e+003,1.514759e-002
3.357514e+003,1.503531e-002
3.359443e+003,1.499434e-002
3.361371e+003,1.498323e-002
3.363300e+003,1.491869e-002
3.365229e+003,1.492526e-002
3.367157e+003,1.492921e-002
3.369085e+003,1.488282e-002
3.371014e+003,1.476572e-002
3.372942e+003,1.464809e-002
3.374871e+003,1.467785e-002
3.376799e+003,1.472561e-002
3.378728e+003,1.471529e-002
3.380656e+003,1.463200e-002
3.382585e+003,1.461053e-002
3.384513e+003,1.460642e-002
3.386442e+003,1.451652e-002
3.388370e+003,1.447396e-002
3.390299e+003,1.455989e-002
3.392227e+003,1.457280e-002
3.394156e+003,1.449228e-002
3.396084e+003,1.441670e-002
3.398013e+003,1.427245e-002
3.399941e+003,1.415690e-002
3.401870e+003,1.413881e-002
3.403798e+003,1.408496e-002
3.405727e+003,1.416339e-002
3.407655e+003,1.417669e-002
3.409584e+003,1.399317e-002
3.411512e+003,1.388358e-002
3.413441e+003,1.391807e-002
3.415369e+003,1.387398e-002
3.417298e+003,1.382313e-002
3.419226e+003,1.378918e-002
3.421155e+003,1.364964e-002
3.423083e+003,1.354049e-002
3.425012e+003,1.351714e-002
3.426940e+003,1.356291e-002
3.428869e+003,1.352759e-002
3.430797e+003,1.342924e-002
3.432726e+003,1.330928e-002
3.434654e+003,1.313241e-002
3.436583e+003,1.314389e-002
3.438511e+003,1.314852e-002
3.440440e+003,1.307121e-002
3.442368e+003,1.300391e-002
3.444297e+003,1.294523e-002
3.446225e+003,1.286324e-002
3.448154e+003,1.275691e-002
3.450082e+003,1.266452e-002
3.452011e+003,1.259487e-002
3.453939e+003,1.253205e-002
3.455868e+003,1.248942e-002
3.457796e+003,1.243226e-002
3.459725e+003,1.232102e-002
3.461653e+003,1.220891e-002
3.463582e+003,1.216477e-002
3.465510e+003,1.214187e-002
3.467439e+003,1.202280e-002
3.469367e+003,1.189934e-002
3.471296e+003,1.185783e-002
3.473224e+003,1.183998e-002
3.475153e+003,1.180006e-002
3.477081e+003,1.173395e-002
3.479010e+003,1.175488e-002
3.480938e+003,1.162871e-002
3.482867e+003,1.159081e-002
3.484795e+003,1.147119e-002
3.486724e+003,1.141226e-002
3.488652e+003,1.146513e-002
3.490581e+003,1.144552e-002
3.492509e+003,1.135977e-002
3.494438e+003,1.124130e-002
3.496366e+003,1.120241e-002
3.498295e+003,1.124301e-002
3.500223e+003,1.108100e-002
3.502152e+003,1.095911e-002
3.504080e+003,1.094058e-002
3.506009e+003,1.089658e-002
3.507937e+003,1.080694e-002
3.509866e+003,1.070000e-002
3.511794e+003,1.065946e-002
3.513723e+003,1.065452e-002
3.515651e+003,1.063784e-002
3.517580e+003,1.056603e-002
3.519508e+003,1.047795e-002
3.521437e+003,1.048179e-002
3.523365e+003,1.039634e-002
3.525294e+003,1.027295e-002
3.527222e+003,1.023164e-002
3.529151e+003,1.027119e-002
3.531079e+003,1.018248e-002
3.533008e+003,9.981277e-003
3.534936e+003,1.006898e-002
3.536865e+003,1.012255e-002
3.538793e+003,9.887889e-003
3.540722e+003,9.781141e-003
3.542650e+003,9.768548e-003
3.544579e+003,9.812665e-003
3.546507e+003,9.880764e-003
3.548436e+003,9.769250e-003
3.550364e+003,9.682586e-003
3.552293e+003,9.617552e-003
3.554221e+003,9.608424e-003
3.556150e+003,9.602602e-003
3.558078e+003,9.596132e-003
3.560007e+003,9.529893e-003
3.561935e+003,9.415021e-003
3.563864e+003,9.501005e-003
3.565792e+003,9.530488e-003
3.567721e+003,9.399619e-003
3.569649e+003,9.462773e-003
3.571578e+003,9.477253e-003
3.573506e+003,9.326886e-003
3.575435e+003,9.270736e-003
3.577363e+003,9.309537e-003
3.579292e+003,9.353192e-003
3.581220e+003,9.279419e-003
3.583149e+003,9.139780e-003
3.585077e+003,9.072631e-003
3.587006e+003,9.096540e-003
3.588934e+003,9.223773e-003
3.590863e+003,9.208932e-003
3.592791e+003,9.153810e-003
3.594720e+003,9.178407e-003
3.596648e+003,9.168974e-003
3.598577e+003,9.097237e-003
3.600505e+003,9.055333e-003
3.602434e+003,9.039095e-003
3.604362e+003,9.051701e-003
3.606291e+003,8.979100e-003
3.608219e+003,8.818315e-003
3.610148e+003,8.645185e-003
3.612076e+003,8.529064e-003
3.614005e+003,8.657124e-003
3.615933e+003,8.698811e-003
3.617862e+003,8.605964e-003
3.619790e+003,8.645977e-003
3.621719e+003,8.831494e-003
3.623647e+003,8.955651e-003
3.625576e+003,8.838249e-003
3.627504e+003,8.793256e-003
3.629433e+003,8.858335e-003
3.631361e+003,8.778652e-003
3.633290e+003,8.672514e-003
3.635218e+003,8.482181e-003
3.637146e+003,8.335995e-003
3.639075e+003,8.313905e-003
3.641004e+003,8.333628e-003
3.642932e+003,8.293523e-003
3.644861e+003,8.206252e-003
3.646789e+003,8.100427e-003
3.648718e+003,7.968653e-003
3.650646e+003,7.867911e-003
3.652574e+003,7.953321e-003
3.654503e+003,7.975033e-003
3.656432e+003,8.047618e-003
3.658360e+003,8.065144e-003
3.660289e+003,8.036305e-003
3.662217e+003,7.976013e-003
3.664146e+003,8.039743e-003
3.666074e+003,8.078531e-003
3.668002e+003,8.113210e-003
3.669931e+003,8.025569e-003
3.671860e+003,8.029140e-003
3.673788e+003,8.047845e-003
3.675717e+003,8.111616e-003
3.677645e+003,8.101086e-003
3.679573e+003,8.124353e-003
3.681502e+003,8.049595e-003
3.683430e+003,8.072353e-003
3.685359e+003,8.218497e-003
3.687288e+003,8.255795e-003
3.689216e+003,8.392839e-003
3.691145e+003,8.443508e-003
3.693073e+003,8.534067e-003
3.695001e+003,8.544628e-003
3.696930e+003,8.608194e-003
3.698858e+003,8.717174e-003
3.700787e+003,8.607253e-003
3.702716e+003,8.602058e-003
3.704644e+003,8.623932e-003
3.706573e+003,8.541766e-003
3.708501e+003,8.514434e-003
3.710429e+003,8.422684e-003
3.712358e+003,8.288189e-003
3.714286e+003,8.083394e-003
3.716215e+003,8.139734e-003
3.718144e+003,8.330199e-003
3.720072e+003,8.493029e-003
3.722000e+003,8.712842e-003
3.723929e+003,8.835778e-003
3.725857e+003,8.812544e-003
3.727786e+003,8.786792e-003
3.729714e+003,8.732403e-003
3.731643e+003,8.693752e-003
3.733572e+003,8.682230e-003
3.735500e+003,8.585877e-003
3.737428e+003,8.527881e-003
3.739357e+003,8.385789e-003
3.741285e+003,8.244961e-003
3.743214e+003,8.234290e-003
3.745142e+003,8.167453e-003
3.747071e+003,8.085605e-003
3.749000e+003,8.127270e-003
3.750928e+003,7.990880e-003
3.752856e+003,7.851607e-003
3.754785e+003,7.828912e-003
3.756713e+003,7.954013e-003
3.758642e+003,8.033853e-003
3.760570e+003,7.923230e-003
3.762499e+003,7.895468e-003
3.764427e+003,7.980045e-003
3.766356e+003,8.013239e-003
3.768284e+003,8.044553e-003
3.770213e+003,8.022770e-003
3.772141e+003,7.953880e-003
3.774070e+003,8.030059e-003
3.775998e+003,8.098038e-003
3.777927e+003,7.975147e-003
3.779855e+003,7.910662e-003
3.781784e+003,8.024232e-003
3.783712e+003,8.138245e-003
3.785641e+003,8.136963e-003
3.787569e+003,8.087468e-003
3.789498e+003,8.146583e-003
3.791426e+003,8.169389e-003
3.793355e+003,8.098137e-003
3.795283e+003,8.094552e-003
3.797212e+003,8.081290e-003
3.799140e+003,8.114638e-003
3.801069e+003,8.188111e-003
3.802997e+003,8.233653e-003
3.804926e+003,8.215506e-003
3.806854e+003,8.209565e-003
3.808783e+003,8.250828e-003
3.810711e+003,8.371706e-003
3.812640e+003,8.401510e-003
3.814568e+003,8.294023e-003
3.816497e+003,8.307154e-003
3.818425e+003,8.320709e-003
3.820354e+003,8.248086e-003
3.822282e+003,8.223312e-003
3.824211e+003,8.280260e-003
3.826139e+003,8.288328e-003
3.828068e+003,8.380949e-003
3.829996e+003,8.355680e-003
3.831925e+003,8.285440e-003
3.833853e+003,8.307951e-003
3.835782e+003,8.321388e-003
3.837710e+003,8.324767e-003
3.839639e+003,8.287652e-003
3.841567e+003,8.280807e-003
3.843496e+003,8.372596e-003
3.845424e+003,8.418847e-003
3.847353e+003,8.375766e-003
3.849281e+003,8.369251e-003
3.851210e+003,8.281395e-003
3.853138e+003,8.422578e-003
3.855067e+003,8.566411e-003
3.856995e+003,8.524854e-003
3.858924e+003,8.481265e-003
3.860852e+003,8.416398e-003
3.862781e+003,8.425620e-003
3.864709e+003,8.405556e-003
3.866638e+003,8.380913e-003
3.868566e+003,8.465613e-003
3.870495e+003,8.562338e-003
3.872423e+003,8.560724e-003
3.874352e+003,8.503445e-003
3.876280e+003,8.463006e-003
3.878209e+003,8.428394e-003
3.880137e+003,8.443983e-003
3.882066e+003,8.457460e-003
3.883994e+003,8.496481e-003
3.885923e+003,8.482965e-003
3.887851e+003,8.417405e-003
3.889780e+003,8.399793e-003
3.891708e+003,8.430050e-003
3.893637e+003,8.396831e-003
3.895565e+003,8.463971e-003
3.897494e+003,8.498779e-003
3.899422e+003,8.503209e-003
3.901351e+003,8.551489e-003
3.903279e+003,8.556378e-003
3.905208e+003,8.516140e-003
3.907136e+003,8.470800e-003
3.909065e+003,8.482215e-003
3.910993e+003,8.587573e-003
3.912922e+003,8.546366e-003
3.914850e+003,8.443133e-003
3.916779e+003,8.531297e-003
3.918707e+003,8.584408e-003
3.920636e+003,8.592002e-003
3.922564e+003,8.576010e-003
3.924493e+003,8.521141e-003
3.926421e+003,8.525129e-003
3.928350e+003,8.570459e-003
3.930278e+003,8.513174e-003
3.932207e+003,8.515433e-003
3.934135e+003,8.522571e-003
3.936064e+003,8.567740e-003
3.937992e+003,8.713091e-003
3.939921e+003,8.788469e-003
3.941849e+003,8.606551e-003
3.943778e+003,8.539328e-003
3.945706e+003,8.623320e-003
3.947635e+003,8.586266e-003
3.949563e+003,8.638264e-003
3.951492e+003,8.676605e-003
3.953420e+003,8.674921e-003
3.955349e+003,8.683884e-003
3.957277e+003,8.744549e-003
3.959206e+003,8.708899e-003
3.961134e+003,8.615935e-003
3.963063e+003,8.610658e-003
3.964991e+003,8.631841e-003
3.966920e+003,8.699099e-003
3.968848e+003,8.628125e-003
3.970777e+003,8.625872e-003
3.972705e+003,8.740111e-003
3.974634e+003,8.754180e-003
3.976562e+003,8.668426e-003
3.978491e+003,8.581593e-003
3.980419e+003,8.551447e-003
3.982348e+003,8.611481e-003
3.984276e+003,8.703500e-003
3.986205e+003,8.655951e-003
3.988133e+003,8.634612e-003
3.990062e+003,8.715240e-003
3.991990e+003,8.829080e-003
3.993919e+003,8.815289e-003
3.995847e+003,8.782744e-003
3.997776e+003,8.735083e-003
3.999704e+003,8.735213e-003
4.001633e+003,0.000000e+000
