3.991989e+002,4.674513e-002
4.011274e+002,4.980614e-002
4.030559e+002,4.980614e-002
4.049844e+002,4.884775e-002
4.069129e+002,4.882351e-002
4.088414e+002,4.761298e-002
4.107699e+002,5.022335e-002
4.126984e+002,5.159176e-002
4.146269e+002,5.100567e-002
4.165554e+002,5.237781e-002
4.184839e+002,5.270004e-002
4.204124e+002,5.248218e-002
4.223409e+002,5.304630e-002
4.242694e+002,5.332104e-002
4.261979e+002,5.362845e-002
4.281264e+002,5.442293e-002
4.300549e+002,5.492998e-002
4.319834e+002,5.520323e-002
4.339119e+002,5.479232e-002
4.358404e+002,5.442061e-002
4.377689e+002,5.535671e-002
4.396974e+002,5.577780e-002
4.416259e+002,5.520468e-002
4.435544e+002,5.459844e-002
4.454829e+002,5.481355e-002
4.474114e+002,5.492594e-002
4.493399e+002,5.487047e-002
4.512684e+002,5.431407e-002
4.531969e+002,5.381893e-002
4.551254e+002,5.324732e-002
4.570539e+002,5.310230e-002
4.589824e+002,5.353475e-002
4.609109e+002,5.326629e-002
4.628394e+002,5.281817e-002
4.647679e+002,5.251798e-002
4.666964e+002,5.222858e-002
4.686249e+002,5.181820e-002
4.705533e+002,5.169917e-002
4.724819e+002,5.177798e-002
4.744103e+002,5.196429e-002
4.763389e+002,5.214029e-002
4.782673e+002,5.280558e-002
4.801959e+002,5.289440e-002
4.821243e+002,5.289229e-002
4.840529e+002,5.306275e-002
4.859813e+002,5.364370e-002
4.879099e+002,5.373908e-002
4.898383e+002,5.390479e-002
4.917668e+002,5.409790e-002
4.936953e+002,5.376605e-002
4.956238e+002,5.328796e-002
4.975523e+002,5.335654e-002
4.994808e+002,5.356491e-002
5.014093e+002,5.411505e-002
5.033378e+002,5.451320e-002
5.052663e+002,5.524342e-002
5.071948e+002,5.501208e-002
5.091233e+002,5.481559e-002
5.110518e+002,5.517612e-002
5.129803e+002,5.576381e-002
5.149088e+002,5.618878e-002
5.168373e+002,5.647079e-002
5.187658e+002,5.647013e-002
5.206943e+002,5.683133e-002
5.226228e+002,5.687514e-002
5.245513e+002,5.650776e-002
5.264798e+002,5.647436e-002
5.284083e+002,5.673750e-002
5.303368e+002,5.677700e-002
5.322653e+002,5.667043e-002
5.341938e+002,5.675529e-002
5.361223e+002,5.632543e-002
5.380508e+002,5.598337e-002
5.399792e+002,5.582747e-002
5.419078e+002,5.594072e-002
5.438363e+002,5.578296e-002
5.457648e+002,5.577233e-002
5.476932e+002,5.619049e-002
5.496218e+002,5.688547e-002
5.515503e+002,5.769390e-002
5.534788e+002,5.797798e-002
5.554072e+002,5.842922e-002
5.573358e+002,5.910864e-002
5.592643e+002,5.917446e-002
5.611927e+002,5.896164e-002
5.631212e+002,5.852601e-002
5.650497e+002,5.780552e-002
5.669783e+002,5.719211e-002
5.689067e+002,5.663463e-002
5.708352e+002,5.632423e-002
5.727637e+002,5.608379e-002
5.746923e+002,5.599932e-002
5.766207e+002,5.565367e-002
5.785492e+002,5.561754e-002
5.804777e+002,5.575022e-002
5.824063e+002,5.531877e-002
5.843347e+002,5.507633e-002
5.862632e+002,5.499082e-002
5.881917e+002,5.494100e-002
5.901202e+002,5.526205e-002
5.920487e+002,5.541933e-002
5.939772e+002,5.517949e-002
5.959057e+002,5.516806e-002
5.978342e+002,5.494282e-002
5.997627e+002,5.445437e-002
6.016912e+002,5.427866e-002
6.036197e+002,5.431543e-002
6.055482e+002,5.408764e-002
6.074767e+002,5.407954e-002
6.094052e+002,5.374757e-002
6.113337e+002,5.310825e-002
6.132622e+002,5.273638e-002
6.151907e+002,5.249177e-002
6.171192e+002,5.207061e-002
6.190477e+002,5.128200e-002
6.209762e+002,5.051398e-002
6.229047e+002,4.959360e-002
6.248332e+002,4.828804e-002
6.267617e+002,4.750216e-002
6.286902e+002,4.682009e-002
6.306187e+002,4.623723e-002
6.325472e+002,4.565177e-002
6.344756e+002,4.520889e-002
6.364042e+002,4.483370e-002
6.383326e+002,4.457547e-002
6.402612e+002,4.422542e-002
6.421896e+002,4.395531e-002
6.441182e+002,4.372478e-002
6.460466e+002,4.343317e-002
6.479752e+002,4.324434e-002
6.499036e+002,4.321860e-002
6.518322e+002,4.317250e-002
6.537606e+002,4.323805e-002
6.556891e+002,4.327348e-002
6.576177e+002,4.337829e-002
6.595461e+002,4.347744e-002
6.614746e+002,4.376205e-002
6.634031e+002,4.397429e-002
6.653317e+002,4.400908e-002
6.672601e+002,4.348325e-002
6.691886e+002,4.303958e-002
6.711171e+002,4.253461e-002
6.730457e+002,4.168191e-002
6.749741e+002,4.056117e-002
6.769026e+002,3.953506e-002
6.788311e+002,3.832936e-002
6.807596e+002,3.714216e-002
6.826881e+002,3.629458e-002
6.846166e+002,3.586291e-002
6.865451e+002,3.545164e-002
6.884736e+002,3.500628e-002
6.904021e+002,3.468269e-002
6.923306e+002,3.440463e-002
6.942591e+002,3.442686e-002
6.961876e+002,3.416095e-002
6.981161e+002,3.386783e-002
7.000446e+002,3.388416e-002
7.019731e+002,3.371293e-002
7.039016e+002,3.343455e-002
7.058301e+002,3.326549e-002
7.077585e+002,3.304563e-002
7.096871e+002,3.284465e-002
7.116156e+002,3.270166e-002
7.135441e+002,3.241048e-002
7.154725e+002,3.209710e-002
7.174011e+002,3.184405e-002
7.193296e+002,3.164991e-002
7.212581e+002,3.130859e-002
7.231865e+002,3.072009e-002
7.251151e+002,3.040179e-002
7.270436e+002,3.012223e-002
7.289720e+002,2.988062e-002
7.309005e+002,2.953858e-002
7.328290e+002,2.908504e-002
7.347576e+002,2.888175e-002
7.366860e+002,2.859339e-002
7.386145e+002,2.829937e-002
7.405430e+002,2.806557e-002
7.424716e+002,2.779552e-002
7.444000e+002,2.753839e-002
7.463285e+002,2.720153e-002
7.482570e+002,2.691897e-002
7.501855e+002,2.659646e-002
7.521140e+002,2.643212e-002
7.540425e+002,2.623841e-002
7.559710e+002,2.590323e-002
7.578995e+002,2.568927e-002
7.598280e+002,2.544473e-002
7.617565e+002,2.525926e-002
7.636850e+002,2.517934e-002
7.656135e+002,2.507711e-002
7.675420e+002,2.484317e-002
7.694705e+002,2.456805e-002
7.713990e+002,2.459877e-002
7.733275e+002,2.454568e-002
7.752560e+002,2.441643e-002
7.771844e+002,2.424146e-002
7.791130e+002,2.412800e-002
7.810415e+002,2.407339e-002
7.829700e+002,2.396431e-002
7.848984e+002,2.385557e-002
7.868270e+002,2.375998e-002
7.887555e+002,2.374147e-002
7.906840e+002,2.365528e-002
7.926124e+002,2.362981e-002
7.945410e+002,2.356324e-002
7.964695e+002,2.349576e-002
7.983979e+002,2.357380e-002
8.003264e+002,2.361302e-002
8.022549e+002,2.363415e-002
8.041835e+002,2.373632e-002
8.061119e+002,2.390290e-002
8.080404e+002,2.394575e-002
8.099689e+002,2.399222e-002
8.118975e+002,2.406779e-002
8.138259e+002,2.408789e-002
8.157545e+002,2.413321e-002
8.176830e+002,2.426318e-002
8.196115e+002,2.439242e-002
8.215399e+002,2.446933e-002
8.234684e+002,2.455199e-002
8.253970e+002,2.464397e-002
8.273254e+002,2.479040e-002
8.292539e+002,2.502463e-002
8.311824e+002,2.525192e-002
8.331110e+002,2.530372e-002
8.350394e+002,2.522155e-002
8.369679e+002,2.523412e-002
8.388964e+002,2.520848e-002
8.408250e+002,2.507700e-002
8.427534e+002,2.490998e-002
8.446819e+002,2.473351e-002
8.466104e+002,2.463222e-002
8.485389e+002,2.456227e-002
8.504674e+002,2.455880e-002
8.523959e+002,2.453296e-002
8.543244e+002,2.443028e-002
8.562529e+002,2.445236e-002
8.581814e+002,2.455830e-002
8.601099e+002,2.462531e-002
8.620384e+002,2.475399e-002
8.639669e+002,2.483320e-002
8.658954e+002,2.497907e-002
8.678239e+002,2.519149e-002
8.697524e+002,2.534594e-002
8.716809e+002,2.547076e-002
8.736094e+002,2.573661e-002
8.755378e+002,2.595819e-002
8.774664e+002,2.613698e-002
8.793949e+002,2.645658e-002
8.813234e+002,2.689023e-002
8.832518e+002,2.739570e-002
8.851804e+002,2.795826e-002
8.871089e+002,2.859914e-002
8.890374e+002,2.950241e-002
8.909658e+002,3.038083e-002
8.928943e+002,3.113351e-002
8.948229e+002,3.163824e-002
8.967513e+002,3.193346e-002
8.986798e+002,3.187162e-002
9.006083e+002,3.139063e-002
9.025369e+002,3.075773e-002
9.044653e+002,3.005318e-002
9.063938e+002,2.948641e-002
9.083223e+002,2.902920e-002
9.102509e+002,2.867163e-002
9.121793e+002,2.858003e-002
9.141078e+002,2.848850e-002
9.160364e+002,2.845772e-002
9.179648e+002,2.850477e-002
9.198933e+002,2.868094e-002
9.218218e+002,2.881652e-002
9.237504e+002,2.905116e-002
9.256788e+002,2.937206e-002
9.276073e+002,2.967089e-002
9.295358e+002,2.992391e-002
9.314644e+002,3.028273e-002
9.333928e+002,3.069169e-002
9.353213e+002,3.111130e-002
9.372498e+002,3.154366e-002
9.391783e+002,3.212090e-002
9.411068e+002,3.265136e-002
9.430353e+002,3.343246e-002
9.449637e+002,3.434900e-002
9.468923e+002,3.526823e-002
9.488208e+002,3.623512e-002
9.507493e+002,3.731886e-002
9.526777e+002,3.845551e-002
9.546063e+002,3.981328e-002
9.565348e+002,4.118438e-002
9.584633e+002,4.261259e-002
9.603917e+002,4.401831e-002
9.623203e+002,4.539188e-002
9.642488e+002,4.674022e-002
9.661772e+002,4.806573e-002
9.681057e+002,4.923269e-002
9.700343e+002,5.049850e-002
9.719628e+002,5.186617e-002
9.738912e+002,5.326610e-002
9.758197e+002,5.479565e-002
9.777483e+002,5.672040e-002
9.796768e+002,5.884446e-002
9.816052e+002,6.113360e-002
9.835337e+002,6.338444e-002
9.854623e+002,6.535987e-002
9.873907e+002,6.688772e-002
9.893192e+002,6.788211e-002
9.912477e+002,6.832196e-002
9.931763e+002,6.849242e-002
9.951047e+002,6.867336e-002
9.970332e+002,6.900073e-002
9.989617e+002,6.967057e-002
1.000890e+003,7.072985e-002
1.002819e+003,7.175146e-002
1.004747e+003,7.264226e-002
1.006676e+003,7.340930e-002
1.008604e+003,7.421619e-002
1.010533e+003,7.510360e-002
1.012461e+003,7.622278e-002
1.014390e+003,7.755005e-002
1.016318e+003,7.906897e-002
1.018247e+003,8.072814e-002
1.020175e+003,8.250428e-002
1.022104e+003,8.427521e-002
1.024032e+003,8.610797e-002
1.025961e+003,8.803678e-002
1.027889e+003,9.001847e-002
1.029818e+003,9.173188e-002
1.031746e+003,9.305649e-002
1.033675e+003,9.373584e-002
1.035603e+003,9.359069e-002
1.037532e+003,9.258378e-002
1.039460e+003,9.103513e-002
1.041389e+003,8.949353e-002
1.043317e+003,8.844034e-002
1.045246e+003,8.780055e-002
1.047174e+003,8.756027e-002
1.049103e+003,8.734901e-002
1.051031e+003,8.714466e-002
1.052960e+003,8.671471e-002
1.054888e+003,8.583931e-002
1.056817e+003,8.450857e-002
1.058745e+003,8.289727e-002
1.060674e+003,8.081856e-002
1.062602e+003,7.840440e-002
1.064531e+003,7.561418e-002
1.066459e+003,7.280581e-002
1.068388e+003,7.031441e-002
1.070316e+003,6.816086e-002
1.072245e+003,6.625199e-002
1.074173e+003,6.468099e-002
1.076102e+003,6.312059e-002
1.078030e+003,6.147660e-002
1.079959e+003,5.980732e-002
1.081887e+003,5.829367e-002
1.083816e+003,5.703401e-002
1.085744e+003,5.615582e-002
1.087673e+003,5.550968e-002
1.089601e+003,5.498423e-002
1.091530e+003,5.453444e-002
1.093458e+003,5.424658e-002
1.095387e+003,5.399320e-002
1.097315e+003,5.396439e-002
1.099244e+003,5.416714e-002
1.101172e+003,5.450491e-002
1.103101e+003,5.479527e-002
1.105029e+003,5.485361e-002
1.106958e+003,5.456986e-002
1.108886e+003,5.393771e-002
1.110815e+003,5.288200e-002
1.112743e+003,5.146554e-002
1.114672e+003,4.976593e-002
1.116600e+003,4.803694e-002
1.118529e+003,4.650999e-002
1.120457e+003,4.536356e-002
1.122386e+003,4.419993e-002
1.124314e+003,4.286091e-002
1.126243e+003,4.126457e-002
1.128171e+003,3.951001e-002
1.130100e+003,3.766475e-002
1.132028e+003,3.586883e-002
1.133957e+003,3.422978e-002
1.135885e+003,3.282714e-002
1.137814e+003,3.176085e-002
1.139742e+003,3.117626e-002
1.141671e+003,3.108538e-002
1.143599e+003,3.142941e-002
1.145528e+003,3.201053e-002
1.147456e+003,3.276533e-002
1.149385e+003,3.359883e-002
1.151313e+003,3.458650e-002
1.153242e+003,3.562851e-002
1.155170e+003,3.668383e-002
1.157099e+003,3.754220e-002
1.159027e+003,3.806084e-002
1.160956e+003,3.821227e-002
1.162884e+003,3.786861e-002
1.164813e+003,3.691407e-002
1.166741e+003,3.544644e-002
1.168670e+003,3.357001e-002
1.170598e+003,3.146133e-002
1.172526e+003,2.930911e-002
1.174455e+003,2.728155e-002
1.176384e+003,2.550923e-002
1.178312e+003,2.409535e-002
1.180240e+003,2.299596e-002
1.182169e+003,2.207701e-002
1.184098e+003,2.133968e-002
1.186026e+003,2.082925e-002
1.187954e+003,2.053404e-002
1.189883e+003,2.044483e-002
1.191812e+003,2.061437e-002
1.193740e+003,2.096455e-002
1.195668e+003,2.144595e-002
1.197597e+003,2.195392e-002
1.199526e+003,2.243216e-002
1.201454e+003,2.284946e-002
1.203382e+003,2.309192e-002
1.205311e+003,2.317433e-002
1.207240e+003,2.320436e-002
1.209168e+003,2.331581e-002
1.211096e+003,2.345732e-002
1.213025e+003,2.376947e-002
1.214953e+003,2.429309e-002
1.216882e+003,2.487808e-002
1.218810e+003,2.550414e-002
1.220739e+003,2.616364e-002
1.222667e+003,2.687381e-002
1.224596e+003,2.760161e-002
1.226524e+003,2.830818e-002
1.228453e+003,2.893010e-002
1.230381e+003,2.951479e-002
1.232310e+003,3.005590e-002
1.234238e+003,3.044754e-002
1.236167e+003,3.065441e-002
1.238095e+003,3.079286e-002
1.240024e+003,3.089961e-002
1.241952e+003,3.084934e-002
1.243881e+003,3.070228e-002
1.245809e+003,3.041448e-002
1.247738e+003,3.005577e-002
1.249666e+003,2.969278e-002
1.251595e+003,2.931214e-002
1.253523e+003,2.888709e-002
1.255452e+003,2.843064e-002
1.257380e+003,2.792947e-002
1.259309e+003,2.741327e-002
1.261237e+003,2.682953e-002
1.263166e+003,2.623493e-002
1.265094e+003,2.565809e-002
1.267023e+003,2.506567e-002
1.268951e+003,2.444640e-002
1.270880e+003,2.385182e-002
1.272808e+003,2.328820e-002
1.274737e+003,2.275450e-002
1.276665e+003,2.222682e-002
1.278594e+003,2.180464e-002
1.280522e+003,2.145250e-002
1.282451e+003,2.110711e-002
1.284379e+003,2.072401e-002
1.286308e+003,2.038831e-002
1.288236e+003,2.011809e-002
1.290165e+003,1.994284e-002
1.292093e+003,1.993663e-002
1.294022e+003,1.997587e-002
1.295950e+003,2.007708e-002
1.297879e+003,2.032881e-002
1.299807e+003,2.066807e-002
1.301736e+003,2.111451e-002
1.303664e+003,2.164694e-002
1.305593e+003,2.220151e-002
1.307521e+003,2.276205e-002
1.309450e+003,2.332317e-002
1.311378e+003,2.379039e-002
1.313307e+003,2.414173e-002
1.315235e+003,2.443243e-002
1.317164e+003,2.458785e-002
1.319092e+003,2.453925e-002
1.321021e+003,2.438428e-002
1.322949e+003,2.415478e-002
1.324878e+003,2.391263e-002
1.326806e+003,2.370605e-002
1.328735e+003,2.359526e-002
1.330663e+003,2.351790e-002
1.332592e+003,2.342243e-002
1.334520e+003,2.326581e-002
1.336449e+003,2.301765e-002
1.338377e+003,2.267668e-002
1.340306e+003,2.235165e-002
1.342234e+003,2.207846e-002
1.344163e+003,2.190954e-002
1.346091e+003,2.178941e-002
1.348020e+003,2.174181e-002
1.349948e+003,2.182437e-002
1.351877e+003,2.202509e-002
1.353805e+003,2.227607e-002
1.355734e+003,2.254059e-002
1.357662e+003,2.283050e-002
1.359591e+003,2.316321e-002
1.361519e+003,2.349851e-002
1.363448e+003,2.379181e-002
1.365376e+003,2.404246e-002
1.367305e+003,2.415508e-002
1.369233e+003,2.414906e-002
1.371162e+003,2.406957e-002
1.373090e+003,2.377547e-002
1.375019e+003,2.331836e-002
1.376947e+003,2.284038e-002
1.378876e+003,2.227262e-002
1.380804e+003,2.155827e-002
1.382733e+003,2.082110e-002
1.384661e+003,2.011034e-002
1.386590e+003,1.946139e-002
1.388518e+003,1.892413e-002
1.390447e+003,1.854698e-002
1.392375e+003,1.830061e-002
1.394304e+003,1.810598e-002
1.396232e+003,1.799912e-002
1.398161e+003,1.796688e-002
1.400089e+003,1.795573e-002
1.402018e+003,1.794193e-002
1.403946e+003,1.799574e-002
1.405875e+003,1.815296e-002
1.407803e+003,1.833853e-002
1.409732e+003,1.857558e-002
1.411660e+003,1.884028e-002
1.413589e+003,1.923115e-002
1.415517e+003,1.967843e-002
1.417446e+003,2.011090e-002
1.419374e+003,2.049762e-002
1.421303e+003,2.081799e-002
1.423231e+003,2.096219e-002
1.425160e+003,2.100893e-002
1.427088e+003,2.087790e-002
1.429017e+003,2.058642e-002
1.430945e+003,2.023060e-002
1.432874e+003,1.983769e-002
1.434802e+003,1.943393e-002
1.436731e+003,1.907254e-002
1.438659e+003,1.878560e-002
1.440588e+003,1.857350e-002
1.442516e+003,1.849061e-002
1.444445e+003,1.853261e-002
1.446373e+003,1.866808e-002
1.448302e+003,1.876212e-002
1.450230e+003,1.885607e-002
1.452159e+003,1.893442e-002
1.454087e+003,1.892444e-002
1.456016e+003,1.887516e-002
1.457944e+003,1.876267e-002
1.459873e+003,1.864674e-002
1.461801e+003,1.851272e-002
1.463730e+003,1.825989e-002
1.465658e+003,1.778749e-002
1.467587e+003,1.708956e-002
1.469515e+003,1.627736e-002
1.471444e+003,1.548078e-002
1.473372e+003,1.474102e-002
1.475301e+003,1.414086e-002
1.477229e+003,1.370861e-002
1.479158e+003,1.340277e-002
1.481086e+003,1.317487e-002
1.483015e+003,1.306432e-002
1.484943e+003,1.309676e-002
1.486872e+003,1.316993e-002
1.488800e+003,1.327874e-002
1.490729e+003,1.353993e-002
1.492657e+003,1.386791e-002
1.494586e+003,1.425146e-002
1.496514e+003,1.465823e-002
1.498443e+003,1.493497e-002
1.500371e+003,1.518032e-002
1.502300e+003,1.542599e-002
1.504228e+003,1.557684e-002
1.506157e+003,1.561064e-002
1.508085e+003,1.558886e-002
1.510014e+003,1.554296e-002
1.511942e+003,1.545207e-002
1.513871e+003,1.530448e-002
1.515799e+003,1.496520e-002
1.517728e+003,1.440739e-002
1.519656e+003,1.379476e-002
1.521585e+003,1.319238e-002
1.523513e+003,1.272775e-002
1.525442e+003,1.242017e-002
1.527370e+003,1.223695e-002
1.529299e+003,1.210810e-002
1.531227e+003,1.200554e-002
1.533156e+003,1.192944e-002
1.535084e+003,1.191297e-002
1.537013e+003,1.189855e-002
1.538941e+003,1.188628e-002
1.540870e+003,1.190310e-002
1.542798e+003,1.191055e-002
1.544727e+003,1.188968e-002
1.546655e+003,1.188866e-002
1.548584e+003,1.189223e-002
1.550512e+003,1.192093e-002
1.552441e+003,1.196214e-002
1.554369e+003,1.202921e-002
1.556298e+003,1.205451e-002
1.558226e+003,1.206229e-002
1.560155e+003,1.214512e-002
1.562083e+003,1.222794e-002
1.564012e+003,1.230182e-002
1.565940e+003,1.243744e-002
1.567869e+003,1.262440e-002
1.569797e+003,1.280973e-002
1.571726e+003,1.301650e-002
1.573654e+003,1.325873e-002
1.575583e+003,1.351770e-002
1.577511e+003,1.383541e-002
1.579440e+003,1.421654e-002
1.581368e+003,1.464674e-002
1.583297e+003,1.507922e-002
1.585225e+003,1.553482e-002
1.587154e+003,1.597800e-002
1.589082e+003,1.630658e-002
1.591010e+003,1.655447e-002
1.592939e+003,1.668770e-002
1.594868e+003,1.670614e-002
1.596796e+003,1.666681e-002
1.598724e+003,1.662899e-002
1.600653e+003,1.659209e-002
1.602582e+003,1.655999e-002
1.604510e+003,1.643785e-002
1.606438e+003,1.621973e-002
1.608367e+003,1.594481e-002
1.610296e+003,1.569349e-002
1.612224e+003,1.555737e-002
1.614152e+003,1.554069e-002
1.616081e+003,1.558069e-002
1.618010e+003,1.566467e-002
1.619938e+003,1.576330e-002
1.621866e+003,1.588154e-002
1.623795e+003,1.600972e-002
1.625724e+003,1.613334e-002
1.627652e+003,1.623566e-002
1.629580e+003,1.628793e-002
1.631509e+003,1.632185e-002
1.633438e+003,1.629410e-002
1.635366e+003,1.623374e-002
1.637294e+003,1.609571e-002
1.639223e+003,1.593248e-002
1.641151e+003,1.585960e-002
1.643080e+003,1.582975e-002
1.645008e+003,1.580584e-002
1.646937e+003,1.573692e-002
1.648865e+003,1.571180e-002
1.650794e+003,1.574010e-002
1.652722e+003,1.569840e-002
1.654651e+003,1.563008e-002
1.656579e+003,1.546186e-002
1.658508e+003,1.523938e-002
1.660436e+003,1.498647e-002
1.662365e+003,1.470830e-002
1.664293e+003,1.445529e-002
1.666222e+003,1.424810e-002
1.668150e+003,1.405324e-002
1.670079e+003,1.386585e-002
1.672007e+003,1.365821e-002
1.673936e+003,1.354257e-002
1.675864e+003,1.345431e-002
1.677793e+003,1.336735e-002
1.679721e+003,1.331782e-002
1.681650e+003,1.326809e-002
1.683578e+003,1.326065e-002
1.685507e+003,1.322689e-002
1.687435e+003,1.319556e-002
1.689364e+003,1.320092e-002
1.691292e+003,1.318508e-002
1.693221e+003,1.322991e-002
1.695149e+003,1.332682e-002
1.697078e+003,1.333100e-002
1.699006e+003,1.332223e-002
1.700935e+003,1.340919e-002
1.702863e+003,1.350614e-002
1.704792e+003,1.360467e-002
1.706720e+003,1.375768e-002
1.708649e+003,1.394236e-002
1.710577e+003,1.408974e-002
1.712506e+003,1.431337e-002
1.714434e+003,1.453013e-002
1.716363e+003,1.476681e-002
1.718291e+003,1.501030e-002
1.720220e+003,1.524085e-002
1.722148e+003,1.536696e-002
1.724077e+003,1.550084e-002
1.726005e+003,1.561937e-002
1.727934e+003,1.568128e-002
1.729862e+003,1.564549e-002
1.731791e+003,1.558671e-002
1.733719e+003,1.548947e-002
1.735648e+003,1.535835e-002
1.737576e+003,1.510184e-002
1.739505e+003,1.477462e-002
1.741433e+003,1.442654e-002
1.743362e+003,1.399635e-002
1.745290e+003,1.352020e-002
1.747219e+003,1.303051e-002
1.749147e+003,1.252236e-002
1.751076e+003,1.208658e-002
1.753004e+003,1.168417e-002
1.754933e+003,1.128303e-002
1.756861e+003,1.093389e-002
1.758790e+003,1.066771e-002
1.760718e+003,1.034079e-002
1.762647e+003,1.005140e-002
1.764575e+003,9.837206e-003
1.766504e+003,9.651435e-003
1.768432e+003,9.477946e-003
1.770361e+003,9.323319e-003
1.772289e+003,9.224749e-003
1.774218e+003,9.114103e-003
1.776146e+003,9.077552e-003
1.778075e+003,9.019382e-003
1.780003e+003,8.975034e-003
1.781932e+003,8.930806e-003
1.783860e+003,8.920532e-003
1.785789e+003,8.924613e-003
1.787717e+003,8.887315e-003
1.789646e+003,8.854012e-003
1.791574e+003,8.876557e-003
1.793503e+003,8.902193e-003
1.795431e+003,8.882592e-003
1.797360e+003,8.835862e-003
1.799288e+003,8.785628e-003
1.801217e+003,8.823977e-003
1.803145e+003,8.852620e-003
1.805074e+003,8.776821e-003
1.807002e+003,8.744156e-003
1.808931e+003,8.775619e-003
1.810859e+003,8.762069e-003
1.812788e+003,8.701392e-003
1.814716e+003,8.652537e-003
1.816645e+003,8.620771e-003
1.818573e+003,8.630130e-003
1.820502e+003,8.731798e-003
1.822430e+003,8.708282e-003
1.824359e+003,8.670094e-003
1.826287e+003,8.682087e-003
1.828216e+003,8.646375e-003
1.830144e+003,8.655340e-003
1.832073e+003,8.624285e-003
1.834001e+003,8.568317e-003
1.835930e+003,8.610414e-003
1.837858e+003,8.647199e-003
1.839787e+003,8.635095e-003
1.841715e+003,8.661625e-003
1.843644e+003,8.663494e-003
1.845572e+003,8.648705e-003
1.847501e+003,8.600003e-003
1.849429e+003,8.564210e-003
1.851358e+003,8.622132e-003
1.853286e+003,8.775184e-003
1.855215e+003,8.808685e-003
1.857143e+003,8.745994e-003
1.859072e+003,8.707481e-003
1.861000e+003,8.758145e-003
1.862929e+003,8.732694e-003
1.864857e+003,8.715233e-003
1.866786e+003,8.634908e-003
1.868714e+003,8.598123e-003
1.870643e+003,8.693043e-003
1.872571e+003,8.727678e-003
1.874500e+003,8.642336e-003
1.876428e+003,8.584502e-003
1.878357e+003,8.573687e-003
1.880285e+003,8.587001e-003
1.882214e+003,8.557523e-003
1.884142e+003,8.567674e-003
1.886071e+003,8.621612e-003
1.887999e+003,8.626499e-003
1.889928e+003,8.566822e-003
1.891856e+003,8.657942e-003
1.893785e+003,8.684814e-003
1.895713e+003,8.597978e-003
1.897642e+003,8.247165e-003
1.899570e+003,8.124142e-003
1.901499e+003,8.315875e-003
1.903427e+003,8.331293e-003
1.905356e+003,8.288068e-003
1.907284e+003,8.261762e-003
1.909213e+003,8.367629e-003
1.911141e+003,8.286192e-003
1.913070e+003,8.007690e-003
1.914998e+003,7.734185e-003
1.916927e+003,7.618446e-003
1.918855e+003,7.543690e-003
1.920784e+003,7.554996e-003
1.922712e+003,7.399203e-003
1.924641e+003,7.299340e-003
1.926569e+003,7.116206e-003
1.928498e+003,7.003726e-003
1.930426e+003,7.255118e-003
1.932355e+003,7.139991e-003
1.934283e+003,7.120163e-003
1.936212e+003,6.894940e-003
1.938140e+003,6.488746e-003
1.940069e+003,6.172821e-003
1.941997e+003,6.669909e-003
1.943926e+003,6.703428e-003
1.945854e+003,6.537009e-003
1.947783e+003,6.495345e-003
1.949711e+003,6.221173e-003
1.951640e+003,5.517947e-003
1.953568e+003,5.028371e-003
1.955497e+003,4.988773e-003
1.957425e+003,5.084916e-003
1.959354e+003,5.085127e-003
1.961282e+003,4.824118e-003
1.963211e+003,4.632753e-003
1.965139e+003,3.584177e-003
1.967068e+003,2.947140e-003
1.968996e+003,3.087844e-003
1.970925e+003,2.759621e-003
1.972853e+003,2.860728e-003
1.974782e+003,2.176302e-003
1.976710e+003,2.229191e-003
1.978639e+003,2.254841e-003
1.980567e+003,2.552619e-003
1.982496e+003,3.392776e-003
1.984424e+003,2.957994e-003
1.986353e+003,2.793385e-003
1.988281e+003,3.229282e-003
1.990210e+003,4.072387e-003
1.992138e+003,4.033507e-003
1.994067e+003,4.214139e-003
1.995995e+003,3.935137e-003
1.997924e+003,2.957996e-003
1.999852e+003,2.757222e-003
2.001781e+003,2.844991e-003
2.003709e+003,3.257161e-003
2.005638e+003,2.252051e-003
2.007566e+003,7.381712e-004
2.009495e+003,9.414477e-004
2.011423e+003,1.599919e-003
2.013352e+003,1.367997e-003
2.015280e+003,8.105910e-004
2.017208e+003,2.046339e-003
2.019137e+003,2.188107e-003
2.021066e+003,-1.285392e-004
2.022994e+003,-5.224932e-004
2.024922e+003,6.987451e-004
2.026851e+003,9.268792e-004
2.028780e+003,7.758276e-004
2.030708e+003,1.106201e-003
2.032636e+003,1.734722e-003
2.034565e+003,1.278224e-003
2.036494e+003,1.266595e-003
2.038422e+003,2.284097e-003
2.040350e+003,3.629749e-003
2.042279e+003,3.527140e-003
2.044208e+003,3.003775e-003
2.046136e+003,2.842841e-003
2.048064e+003,3.409528e-003
2.049993e+003,3.892214e-003
2.051921e+003,4.493806e-003
2.053850e+003,5.536305e-003
2.055778e+003,5.877242e-003
2.057707e+003,5.516181e-003
2.059635e+003,5.520388e-003
2.061564e+003,5.619671e-003
2.063492e+003,5.130032e-003
2.065421e+003,4.786079e-003
2.067349e+003,5.017501e-003
2.069278e+003,5.371246e-003
2.071206e+003,5.415362e-003
2.073135e+003,5.697988e-003
2.075063e+003,6.243651e-003
2.076992e+003,6.399932e-003
2.078920e+003,6.396375e-003
2.080849e+003,6.435093e-003
2.082777e+003,6.483911e-003
2.084706e+003,6.149690e-003
2.086634e+003,6.131045e-003
2.088563e+003,6.387678e-003
2.090491e+003,6.606159e-003
2.092420e+003,6.491059e-003
2.094348e+003,6.290565e-003
2.096277e+003,6.061307e-003
2.098205e+003,5.844130e-003
2.100134e+003,6.081156e-003
2.102062e+003,6.160126e-003
2.103991e+003,6.262270e-003
2.105919e+003,6.204187e-003
2.107848e+003,6.148666e-003
2.109776e+003,6.069025e-003
2.111705e+003,5.961115e-003
2.113633e+003,6.083608e-003
2.115562e+003,6.082063e-003
2.117490e+003,6.031361e-003
2.119419e+003,5.938542e-003
2.121347e+003,5.710926e-003
2.123276e+003,5.374324e-003
2.125204e+003,5.099798e-003
2.127133e+003,4.968029e-003
2.129061e+003,4.913704e-003
2.130990e+003,4.535596e-003
2.132918e+003,4.300416e-003
2.134847e+003,3.946079e-003
2.136775e+003,3.544058e-003
2.138704e+003,2.989013e-003
2.140632e+003,2.520717e-003
2.142561e+003,2.230237e-003
2.144489e+003,1.850830e-003
2.146418e+003,1.571272e-003
2.148346e+003,1.412878e-003
2.150275e+003,1.198520e-003
2.152203e+003,1.715087e-003
2.154132e+003,5.777447e-004
2.156060e+003,-1.137723e-003
2.157989e+003,-2.083664e-003
2.159917e+003,-2.907302e-003
2.161846e+003,-2.171469e-003
2.163774e+003,-5.737675e-004
2.165703e+003,1.183967e-003
2.167631e+003,1.316188e-003
2.169560e+003,2.202395e-003
2.171488e+003,3.697350e-003
2.173417e+003,4.000283e-003
2.175345e+003,3.920033e-003
2.177274e+003,3.108468e-003
2.179202e+003,3.693106e-003
2.181131e+003,4.245773e-003
2.183059e+003,4.558064e-003
2.184988e+003,5.053200e-003
2.186916e+003,5.196060e-003
2.188845e+003,5.339000e-003
2.190773e+003,5.723651e-003
2.192702e+003,5.806753e-003
2.194630e+003,5.804436e-003
2.196559e+003,6.177064e-003
2.198487e+003,5.781166e-003
2.200416e+003,5.104626e-003
2.202344e+003,5.668224e-003
2.204273e+003,6.648884e-003
2.206201e+003,6.131594e-003
2.208130e+003,5.787916e-003
2.210058e+003,6.133980e-003
2.211987e+003,6.548733e-003
2.213915e+003,6.681891e-003
2.215844e+003,6.266304e-003
2.217772e+003,6.346754e-003
2.219701e+003,6.665403e-003
2.221629e+003,7.018128e-003
2.223558e+003,6.877327e-003
2.225486e+003,7.013414e-003
2.227415e+003,7.396888e-003
2.229343e+003,7.806542e-003
2.231272e+003,7.525149e-003
2.233200e+003,7.736824e-003
2.235129e+003,7.931851e-003
2.237057e+003,7.891408e-003
2.238986e+003,7.636449e-003
2.240914e+003,7.785772e-003
2.242843e+003,7.911973e-003
2.244771e+003,8.101123e-003
2.246700e+003,8.316054e-003
2.248628e+003,8.474017e-003
2.250557e+003,8.679862e-003
2.252485e+003,8.836157e-003
2.254414e+003,8.969042e-003
2.256342e+003,9.302575e-003
2.258271e+003,9.413020e-003
2.260199e+003,9.550691e-003
2.262128e+003,9.816284e-003
2.264056e+003,9.810284e-003
2.265985e+003,9.691166e-003
2.267913e+003,9.696386e-003
2.269842e+003,9.742389e-003
2.271770e+003,9.806935e-003
2.273699e+003,9.825993e-003
2.275627e+003,9.581114e-003
2.277556e+003,9.917294e-003
2.279484e+003,9.984327e-003
2.281413e+003,9.870391e-003
2.283341e+003,9.921490e-003
2.285270e+003,9.935882e-003
2.287198e+003,9.666761e-003
2.289127e+003,9.766893e-003
2.291055e+003,9.852582e-003
2.292984e+003,9.715485e-003
2.294912e+003,9.404681e-003
2.296841e+003,9.188823e-003
2.298769e+003,9.321671e-003
2.300698e+003,9.366348e-003
2.302626e+003,9.327034e-003
2.304555e+003,9.352908e-003
2.306483e+003,9.174142e-003
2.308412e+003,8.830521e-003
2.310340e+003,8.703212e-003
2.312269e+003,8.706420e-003
2.314197e+003,8.904787e-003
2.316125e+003,8.960728e-003
2.318054e+003,8.780479e-003
2.319983e+003,8.519721e-003
2.321911e+003,8.303372e-003
2.323840e+003,8.229682e-003
2.325768e+003,8.246153e-003
2.327697e+003,7.997337e-003
2.329625e+003,8.099218e-003
2.331553e+003,8.207592e-003
2.333482e+003,8.478583e-003
2.335411e+003,8.796167e-003
2.337339e+003,8.777083e-003
2.339268e+003,9.006935e-003
2.341196e+003,9.321926e-003
2.343125e+003,9.423815e-003
2.345053e+003,9.614782e-003
2.346981e+003,9.590017e-003
2.348910e+003,9.851644e-003
2.350839e+003,9.952743e-003
2.352767e+003,9.828041e-003
2.354696e+003,1.028384e-002
2.356624e+003,1.033450e-002
2.358552e+003,1.024598e-002
2.360481e+003,1.046220e-002
2.362409e+003,1.066159e-002
2.364338e+003,1.074767e-002
2.366267e+003,1.084196e-002
2.368195e+003,1.102387e-002
2.370124e+003,1.099350e-002
2.372052e+003,1.068530e-002
2.373980e+003,1.072930e-002
2.375909e+003,1.086452e-002
2.377838e+003,1.079539e-002
2.379766e+003,1.068054e-002
2.381695e+003,1.039625e-002
2.383623e+003,1.026666e-002
2.385552e+003,1.029961e-002
2.387480e+003,1.045631e-002
2.389408e+003,1.050603e-002
2.391337e+003,1.044286e-002
2.393266e+003,1.036133e-002
2.395194e+003,1.032367e-002
2.397123e+003,1.033760e-002
2.399051e+003,1.033952e-002
2.400979e+003,1.032568e-002
2.402908e+003,1.031563e-002
2.404836e+003,1.024058e-002
2.406765e+003,1.020951e-002
2.408694e+003,1.027125e-002
2.410622e+003,1.023014e-002
2.412551e+003,1.013041e-002
2.414479e+003,9.980800e-003
2.416407e+003,9.782098e-003
2.418336e+003,9.753429e-003
2.420264e+003,9.762341e-003
2.422193e+003,9.835714e-003
2.424122e+003,9.804872e-003
2.426050e+003,9.734114e-003
2.427979e+003,9.828901e-003
2.429907e+003,9.826765e-003
2.431835e+003,9.799144e-003
2.433764e+003,9.797789e-003
2.435692e+003,9.825139e-003
2.437621e+003,1.006252e-002
2.439550e+003,1.012655e-002
2.441478e+003,1.003285e-002
2.443406e+003,9.993446e-003
2.445335e+003,1.006180e-002
2.447263e+003,1.012414e-002
2.449192e+003,1.006564e-002
2.451121e+003,1.005991e-002
2.453049e+003,1.012967e-002
2.454978e+003,1.010681e-002
2.456906e+003,1.002396e-002
2.458834e+003,1.002783e-002
2.460763e+003,9.975002e-003
2.462691e+003,9.928759e-003
2.464620e+003,1.009066e-002
2.466549e+003,1.011762e-002
2.468477e+003,1.010050e-002
2.470406e+003,1.009317e-002
2.472334e+003,1.015626e-002
2.474262e+003,1.016562e-002
2.476191e+003,1.007435e-002
2.478119e+003,1.004668e-002
2.480048e+003,1.002915e-002
2.481977e+003,1.005550e-002
2.483905e+003,1.007720e-002
2.485833e+003,9.925133e-003
2.487762e+003,9.828595e-003
2.489690e+003,9.999549e-003
2.491619e+003,1.003359e-002
2.493547e+003,1.007286e-002
2.495476e+003,1.008520e-002
2.497405e+003,1.023468e-002
2.499333e+003,1.019618e-002
2.501261e+003,1.012590e-002
2.503190e+003,1.019408e-002
2.505118e+003,1.015554e-002
2.507047e+003,1.011566e-002
2.508975e+003,1.019954e-002
2.510904e+003,1.025599e-002
2.512833e+003,1.023044e-002
2.514761e+003,1.026481e-002
2.516689e+003,1.025639e-002
2.518618e+003,1.027614e-002
2.520546e+003,1.039605e-002
2.522475e+003,1.040787e-002
2.524403e+003,1.034485e-002
2.526332e+003,1.032910e-002
2.528260e+003,1.044214e-002
2.530189e+003,1.057691e-002
2.532117e+003,1.056978e-002
2.534046e+003,1.047670e-002
2.535974e+003,1.053773e-002
2.537903e+003,1.050056e-002
2.539831e+003,1.052507e-002
2.541760e+003,1.060590e-002
2.543688e+003,1.060329e-002
2.545617e+003,1.075199e-002
2.547545e+003,1.083538e-002
2.549474e+003,1.084024e-002
2.551402e+003,1.087197e-002
2.553331e+003,1.098410e-002
2.555259e+003,1.102308e-002
2.557188e+003,1.093279e-002
2.559116e+003,1.089756e-002
2.561045e+003,1.097635e-002
2.562973e+003,1.108899e-002
2.564902e+003,1.116418e-002
2.566830e+003,1.108977e-002
2.568759e+003,1.109456e-002
2.570687e+003,1.117860e-002
2.572616e+003,1.120297e-002
2.574544e+003,1.126591e-002
2.576473e+003,1.137579e-002
2.578401e+003,1.143386e-002
2.580330e+003,1.142362e-002
2.582258e+003,1.148785e-002
2.584187e+003,1.144624e-002
2.586115e+003,1.136056e-002
2.588044e+003,1.140600e-002
2.589972e+003,1.161593e-002
2.591901e+003,1.166463e-002
2.593829e+003,1.168246e-002
2.595758e+003,1.168488e-002
2.597686e+003,1.168035e-002
2.599615e+003,1.183144e-002
2.601543e+003,1.188286e-002
2.603472e+003,1.193172e-002
2.605400e+003,1.197409e-002
2.607329e+003,1.197348e-002
2.609257e+003,1.204317e-002
2.611186e+003,1.209877e-002
2.613114e+003,1.212075e-002
2.615043e+003,1.214831e-002
2.616971e+003,1.213625e-002
2.618900e+003,1.217857e-002
2.620828e+003,1.215104e-002
2.622757e+003,1.218191e-002
2.624685e+003,1.227529e-002
2.626614e+003,1.233525e-002
2.628542e+003,1.234462e-002
2.630471e+003,1.233958e-002
2.632399e+003,1.230409e-002
2.634328e+003,1.230385e-002
2.636256e+003,1.237602e-002
2.638185e+003,1.239736e-002
2.640113e+003,1.233395e-002
2.642042e+003,1.237380e-002
2.643970e+003,1.236549e-002
2.645899e+003,1.231882e-002
2.647827e+003,1.236215e-002
2.649756e+003,1.239201e-002
2.651684e+003,1.233187e-002
2.653613e+003,1.233075e-002
2.655541e+003,1.236825e-002
2.657470e+003,1.237398e-002
2.659398e+003,1.235458e-002
2.661327e+003,1.231797e-002
2.663255e+003,1.229056e-002
2.665184e+003,1.228780e-002
2.667112e+003,1.226128e-002
2.669041e+003,1.224673e-002
2.670969e+003,1.223422e-002
2.672898e+003,1.225920e-002
2.674826e+003,1.225007e-002
2.676755e+003,1.213339e-002
2.678683e+003,1.210116e-002
2.680612e+003,1.216804e-002
2.682540e+003,1.217387e-002
2.684469e+003,1.217884e-002
2.686397e+003,1.220669e-002
2.688326e+003,1.223037e-002
2.690254e+003,1.221909e-002
2.692183e+003,1.221991e-002
2.694111e+003,1.222226e-002
2.696040e+003,1.225174e-002
2.697968e+003,1.229359e-002
2.699897e+003,1.226766e-002
2.701825e+003,1.229567e-002
2.703754e+003,1.229199e-002
2.705682e+003,1.230283e-002
2.707611e+003,1.230907e-002
2.709539e+003,1.235938e-002
2.711468e+003,1.238788e-002
2.713396e+003,1.239518e-002
2.715325e+003,1.242106e-002
2.717253e+003,1.242634e-002
2.719182e+003,1.241223e-002
2.721110e+003,1.241571e-002
2.723039e+003,1.243661e-002
2.724967e+003,1.244960e-002
2.726896e+003,1.245290e-002
2.728824e+003,1.246989e-002
2.730753e+003,1.247432e-002
2.732681e+003,1.248666e-002
2.734610e+003,1.253464e-002
2.736538e+003,1.253635e-002
2.738467e+003,1.255146e-002
2.740395e+003,1.254413e-002
2.742324e+003,1.254743e-002
2.744252e+003,1.257888e-002
2.746181e+003,1.259031e-002
2.748109e+003,1.257148e-002
2.750038e+003,1.259744e-002
2.751966e+003,1.260129e-002
2.753895e+003,1.261336e-002
2.755823e+003,1.267265e-002
2.757752e+003,1.271646e-002
2.759680e+003,1.274290e-002
2.761609e+003,1.273400e-002
2.763537e+003,1.276034e-002
2.765466e+003,1.277928e-002
2.767394e+003,1.278409e-002
2.769323e+003,1.279743e-002
2.771251e+003,1.281961e-002
2.773180e+003,1.283180e-002
2.775108e+003,1.285214e-002
2.777037e+003,1.293392e-002
2.778965e+003,1.296286e-002
2.780894e+003,1.296406e-002
2.782822e+003,1.297983e-002
2.784750e+003,1.298106e-002
2.786679e+003,1.297993e-002
2.788608e+003,1.301428e-002
2.790536e+003,1.307256e-002
2.792465e+003,1.306410e-002
2.794393e+003,1.307277e-002
2.796322e+003,1.309206e-002
2.798250e+003,1.314575e-002
2.800178e+003,1.320514e-002
2.802107e+003,1.326287e-002
2.804036e+003,1.330537e-002
2.805964e+003,1.332737e-002
2.807893e+003,1.333537e-002
2.809821e+003,1.336222e-002
2.811750e+003,1.336424e-002
2.813678e+003,1.339045e-002
2.815606e+003,1.351119e-002
2.817535e+003,1.355006e-002
2.819464e+003,1.357942e-002
2.821392e+003,1.367974e-002
2.823321e+003,1.376513e-002
2.825249e+003,1.381941e-002
2.827177e+003,1.384229e-002
2.829106e+003,1.393603e-002
2.831034e+003,1.408770e-002
2.832963e+003,1.418536e-002
2.834892e+003,1.425260e-002
2.836820e+003,1.436115e-002
2.838749e+003,1.444010e-002
2.840677e+003,1.449775e-002
2.842605e+003,1.456799e-002
2.844534e+003,1.468036e-002
2.846462e+003,1.475587e-002
2.848391e+003,1.481096e-002
2.850320e+003,1.487065e-002
2.852248e+003,1.497298e-002
2.854177e+003,1.507523e-002
2.856105e+003,1.518618e-002
2.858033e+003,1.530502e-002
2.859962e+003,1.545288e-002
2.861890e+003,1.558000e-002
2.863819e+003,1.573626e-002
2.865748e+003,1.579532e-002
2.867676e+003,1.580694e-002
2.869604e+003,1.583687e-002
2.871533e+003,1.589519e-002
2.873461e+003,1.593241e-002
2.875390e+003,1.600302e-002
2.877319e+003,1.610568e-002
2.879247e+003,1.609609e-002
2.881176e+003,1.607388e-002
2.883104e+003,1.611634e-002
2.885032e+003,1.614512e-002
2.886961e+003,1.617418e-002
2.888889e+003,1.621752e-002
2.890818e+003,1.625281e-002
2.892747e+003,1.626722e-002
2.894675e+003,1.624999e-002
2.896604e+003,1.621054e-002
2.898532e+003,1.608467e-002
2.900460e+003,1.603000e-002
2.902389e+003,1.602186e-002
2.904317e+003,1.600969e-002
2.906246e+003,1.591584e-002
2.908175e+003,1.581570e-002
2.910103e+003,1.574337e-002
2.912031e+003,1.567841e-002
2.913960e+003,1.554140e-002
2.915888e+003,1.542252e-002
2.917817e+003,1.539990e-002
2.919745e+003,1.534130e-002
2.921674e+003,1.521943e-002
2.923603e+003,1.507989e-002
2.925531e+003,1.494948e-002
2.927459e+003,1.496084e-002
2.929388e+003,1.490556e-002
2.931316e+003,1.479639e-002
2.933245e+003,1.476941e-002
2.935173e+003,1.473657e-002
2.937102e+003,1.467251e-002
2.939031e+003,1.465164e-002
2.940959e+003,1.461188e-002
2.942887e+003,1.445445e-002
2.944816e+003,1.419946e-002
2.946744e+003,1.413818e-002
2.948673e+003,1.403475e-002
2.950601e+003,1.389860e-002
2.952530e+003,1.381151e-002
2.954458e+003,1.368825e-002
2.956387e+003,1.354838e-002
2.958315e+003,1.346638e-002
2.960244e+003,1.340459e-002
2.962172e+003,1.333000e-002
2.964101e+003,1.324890e-002
2.966029e+003,1.323417e-002
2.967958e+003,1.322191e-002
2.969886e+003,1.314390e-002
2.971815e+003,1.307608e-002
2.973743e+003,1.303118e-002
2.975672e+003,1.297328e-002
2.977600e+003,1.287961e-002
2.979529e+003,1.284268e-002
2.981457e+003,1.279013e-002
2.983386e+003,1.278197e-002
2.985314e+003,1.277470e-002
2.987243e+003,1.268405e-002
2.989171e+003,1.265249e-002
2.991100e+003,1.262339e-002
2.993028e+003,1.258236e-002
2.994957e+003,1.261480e-002
2.996885e+003,1.265038e-002
2.998814e+003,1.265430e-002
3.000742e+003,1.262998e-002
3.002671e+003,1.261647e-002
3.004599e+003,1.257509e-002
3.006528e+003,1.258979e-002
3.008456e+003,1.265512e-002
3.010385e+003,1.264628e-002
3.012313e+003,1.267978e-002
3.014242e+003,1.265601e-002
3.016170e+003,1.256834e-002
3.018099e+003,1.253625e-002
3.020027e+003,1.262745e-002
3.021956e+003,1.269466e-002
3.023884e+003,1.273505e-002
3.025813e+003,1.268858e-002
3.027741e+003,1.266406e-002
3.029670e+003,1.268654e-002
3.031598e+003,1.278733e-002
3.033527e+003,1.282367e-002
3.035455e+003,1.280617e-002
3.037384e+003,1.281453e-002
3.039312e+003,1.289511e-002
3.041241e+003,1.294788e-002
3.043169e+003,1.296044e-002
3.045098e+003,1.300308e-002
3.047026e+003,1.302101e-002
3.048955e+003,1.314325e-002
3.050883e+003,1.322406e-002
3.052812e+003,1.330848e-002
3.054740e+003,1.332454e-002
3.056669e+003,1.332795e-002
3.058597e+003,1.339301e-002
3.060526e+003,1.344513e-002
3.062454e+003,1.341878e-002
3.064383e+003,1.342547e-002
3.066311e+003,1.350692e-002
3.068240e+003,1.355102e-002
3.070168e+003,1.357043e-002
3.072097e+003,1.355741e-002
3.074025e+003,1.362339e-002
3.075954e+003,1.377125e-002
3.077882e+003,1.375261e-002
3.079811e+003,1.372412e-002
3.081739e+003,1.380477e-002
3.083668e+003,1.382047e-002
3.085596e+003,1.383583e-002
3.087525e+003,1.394185e-002
3.089453e+003,1.396358e-002
3.091382e+003,1.402024e-002
3.093310e+003,1.404564e-002
3.095239e+003,1.405392e-002
3.097167e+003,1.417180e-002
3.099096e+003,1.426503e-002
3.101024e+003,1.422004e-002
3.102953e+003,1.421911e-002
3.104881e+003,1.427420e-002
3.106810e+003,1.439896e-002
3.108738e+003,1.447912e-002
3.110667e+003,1.450937e-002
3.112595e+003,1.451108e-002
3.114524e+003,1.461171e-002
3.116452e+003,1.467261e-002
3.118381e+003,1.469187e-002
3.120309e+003,1.473917e-002
3.122238e+003,1.480647e-002
3.124166e+003,1.492150e-002
3.126095e+003,1.497171e-002
3.128023e+003,1.500522e-002
3.129952e+003,1.502700e-002
3.131880e+003,1.506349e-002
3.133809e+003,1.512593e-002
3.135737e+003,1.518567e-002
3.137666e+003,1.517884e-002
3.139594e+003,1.528807e-002
3.141523e+003,1.537584e-002
3.143451e+003,1.542949e-002
3.145380e+003,1.557598e-002
3.147308e+003,1.571135e-002
3.149237e+003,1.567748e-002
3.151165e+003,1.570709e-002
3.153094e+003,1.582886e-002
3.155022e+003,1.592942e-002
3.156951e+003,1.597400e-002
3.158879e+003,1.606146e-002
3.160808e+003,1.616338e-002
3.162736e+003,1.627503e-002
3.164665e+003,1.628239e-002
3.166593e+003,1.627957e-002
3.168522e+003,1.637022e-002
3.170450e+003,1.648973e-002
3.172379e+003,1.656511e-002
3.174307e+003,1.662722e-002
3.176236e+003,1.674273e-002
3.178164e+003,1.681440e-002
3.180093e+003,1.693104e-002
3.182021e+003,1.704209e-002
3.183950e+003,1.712804e-002
3.185878e+003,1.721984e-002
3.187807e+003,1.731986e-002
3.189735e+003,1.733544e-002
3.191664e+003,1.742956e-002
3.193592e+003,1.761889e-002
3.195521e+003,1.771437e-002
3.197449e+003,1.775541e-002
3.199378e+003,1.785839e-002
3.201306e+003,1.801416e-002
3.203235e+003,1.814235e-002
3.205163e+003,1.813813e-002
3.207092e+003,1.829663e-002
3.209020e+003,1.850289e-002
3.210948e+003,1.857489e-002
3.212877e+003,1.864015e-002
3.214806e+003,1.877534e-002
3.216734e+003,1.883087e-002
3.218663e+003,1.894812e-002
3.220591e+003,1.911377e-002
3.222520e+003,1.920436e-002
3.224448e+003,1.930875e-002
3.226376e+003,1.948594e-002
3.228305e+003,1.956409e-002
3.230234e+003,1.965994e-002
3.232162e+003,1.981153e-002
3.234091e+003,1.990053e-002
3.236019e+003,1.999514e-002
3.237948e+003,2.013436e-002
3.239876e+003,2.029956e-002
3.241804e+003,2.043700e-002
3.243733e+003,2.053932e-002
3.245662e+003,2.071733e-002
3.247590e+003,2.086929e-002
3.249519e+003,2.094057e-002
3.251447e+003,2.105206e-002
3.253375e+003,2.121113e-002
3.255304e+003,2.130091e-002
3.257232e+003,2.149228e-002
3.259161e+003,2.172675e-002
3.261090e+003,2.187186e-002
3.263018e+003,2.196261e-002
3.264947e+003,2.207216e-002
3.266875e+003,2.210249e-002
3.268803e+003,2.218956e-002
3.270732e+003,2.227047e-002
3.272660e+003,2.234518e-002
3.274589e+003,2.244203e-002
3.276518e+003,2.249028e-002
3.278446e+003,2.256476e-002
3.280375e+003,2.266256e-002
3.282303e+003,2.274548e-002
3.284231e+003,2.278336e-002
3.286160e+003,2.283131e-002
3.288088e+003,2.280396e-002
3.290017e+003,2.286595e-002
3.291946e+003,2.297713e-002
3.293874e+003,2.302943e-002
3.295802e+003,2.303160e-002
3.297731e+003,2.307265e-002
3.299659e+003,2.308838e-002
3.301588e+003,2.315100e-002
3.303516e+003,2.322409e-002
3.305445e+003,2.325824e-002
3.307374e+003,2.326757e-002
3.309302e+003,2.325537e-002
3.311230e+003,2.329749e-002
3.313159e+003,2.339634e-002
3.315087e+003,2.342928e-002
3.317016e+003,2.348121e-002
3.318944e+003,2.356520e-002
3.320873e+003,2.369703e-002
3.322802e+003,2.381448e-002
3.324730e+003,2.385116e-002
3.326658e+003,2.386544e-002
3.328587e+003,2.390861e-002
3.330515e+003,2.395706e-002
3.332444e+003,2.393269e-002
3.334372e+003,2.393360e-002
3.336301e+003,2.393826e-002
3.338229e+003,2.396291e-002
3.340158e+003,2.395328e-002
3.342086e+003,2.389989e-002
3.344015e+003,2.377752e-002
3.345943e+003,2.372131e-002
3.347872e+003,2.367432e-002
3.349800e+003,2.362547e-002
3.351729e+003,2.343519e-002
3.353657e+003,2.328655e-002
3.355586e+003,2.330305e-002
3.357514e+003,2.330819e-002
3.359443e+003,2.319242e-002
3.361371e+003,2.314520e-002
3.363300e+003,2.300411e-002
3.365229e+003,2.290926e-002
3.367157e+003,2.275054e-002
3.369085e+003,2.262392e-002
3.371014e+003,2.263526e-002
3.372942e+003,2.256608e-002
3.374871e+003,2.248344e-002
3.376799e+003,2.242340e-002
3.378728e+003,2.235027e-002
3.380656e+003,2.230939e-002
3.382585e+003,2.218067e-002
3.384513e+003,2.217111e-002
3.386442e+003,2.214182e-002
3.388370e+003,2.203629e-002
3.390299e+003,2.194368e-002
3.392227e+003,2.184503e-002
3.394156e+003,2.175082e-002
3.396084e+003,2.165619e-002
3.398013e+003,2.160092e-002
3.399941e+003,2.155262e-002
3.401870e+003,2.138207e-002
3.403798e+003,2.126134e-002
3.405727e+003,2.122081e-002
3.407655e+003,2.110138e-002
3.409584e+003,2.102444e-002
3.411512e+003,2.091720e-002
3.413441e+003,2.079675e-002
3.415369e+003,2.065305e-002
3.417298e+003,2.041603e-002
3.419226e+003,2.023508e-002
3.421155e+003,2.009232e-002
3.423083e+003,2.007767e-002
3.425012e+003,1.996692e-002
3.426940e+003,1.981725e-002
3.428869e+003,1.969402e-002
3.430797e+003,1.954295e-002
3.432726e+003,1.933614e-002
3.434654e+003,1.919887e-002
3.436583e+003,1.898349e-002
3.438511e+003,1.886426e-002
3.440440e+003,1.876082e-002
3.442368e+003,1.854932e-002
3.444297e+003,1.840324e-002
3.446225e+003,1.823977e-002
3.448154e+003,1.806552e-002
3.450082e+003,1.788269e-002
3.452011e+003,1.778635e-002
3.453939e+003,1.770857e-002
3.455868e+003,1.753550e-002
3.457796e+003,1.729276e-002
3.459725e+003,1.711087e-002
3.461653e+003,1.697297e-002
3.463582e+003,1.689045e-002
3.465510e+003,1.669287e-002
3.467439e+003,1.649177e-002
3.469367e+003,1.639967e-002
3.471296e+003,1.619145e-002
3.473224e+003,1.599708e-002
3.475153e+003,1.579416e-002
3.477081e+003,1.566368e-002
3.479010e+003,1.550411e-002
3.480938e+003,1.537926e-002
3.482867e+003,1.523994e-002
3.484795e+003,1.522485e-002
3.486724e+003,1.517883e-002
3.488652e+003,1.501179e-002
3.490581e+003,1.481875e-002
3.492509e+003,1.468393e-002
3.494438e+003,1.455849e-002
3.496366e+003,1.443327e-002
3.498295e+003,1.436605e-002
3.500223e+003,1.420721e-002
3.502152e+003,1.408422e-002
3.504080e+003,1.390455e-002
3.506009e+003,1.375386e-002
3.507937e+003,1.362263e-002
3.509866e+003,1.362498e-002
3.511794e+003,1.355255e-002
3.513723e+003,1.335367e-002
3.515651e+003,1.318578e-002
3.517580e+003,1.297333e-002
3.519508e+003,1.285848e-002
3.521437e+003,1.286373e-002
3.523365e+003,1.286409e-002
3.525294e+003,1.269087e-002
3.527222e+003,1.249037e-002
3.529151e+003,1.240488e-002
3.531079e+003,1.236689e-002
3.533008e+003,1.229920e-002
3.534936e+003,1.218830e-002
3.536865e+003,1.201028e-002
3.538793e+003,1.186985e-002
3.540722e+003,1.174504e-002
3.542650e+003,1.162415e-002
3.544579e+003,1.148179e-002
3.546507e+003,1.135746e-002
3.548436e+003,1.123871e-002
3.550364e+003,1.115984e-002
3.552293e+003,1.115017e-002
3.554221e+003,1.102103e-002
3.556150e+003,1.089094e-002
3.558078e+003,1.082314e-002
3.560007e+003,1.066154e-002
3.561935e+003,1.055291e-002
3.563864e+003,1.038725e-002
3.565792e+003,1.032440e-002
3.567721e+003,1.022301e-002
3.569649e+003,1.011420e-002
3.571578e+003,1.009274e-002
3.573506e+003,1.006528e-002
3.575435e+003,9.979081e-003
3.577363e+003,9.787252e-003
3.579292e+003,9.617141e-003
3.581220e+003,9.546224e-003
3.583149e+003,9.559950e-003
3.585077e+003,9.364193e-003
3.587006e+003,9.178932e-003
3.588934e+003,9.271933e-003
3.590863e+003,9.260071e-003
3.592791e+003,9.112502e-003
3.594720e+003,8.956066e-003
3.596648e+003,8.907318e-003
3.598577e+003,8.990235e-003
3.600505e+003,8.959280e-003
3.602434e+003,8.874748e-003
3.604362e+003,8.919421e-003
3.606291e+003,8.891350e-003
3.608219e+003,8.749279e-003
3.610148e+003,8.775324e-003
3.612076e+003,8.701405e-003
3.614005e+003,8.588447e-003
3.615933e+003,8.472345e-003
3.617862e+003,8.313827e-003
3.619790e+003,8.300497e-003
3.621719e+003,8.306079e-003
3.623647e+003,8.305347e-003
3.625576e+003,8.294488e-003
3.627504e+003,8.260703e-003
3.629433e+003,8.270481e-003
3.631361e+003,8.342267e-003
3.633290e+003,8.279529e-003
3.635218e+003,8.280450e-003
3.637146e+003,8.273075e-003
3.639075e+003,8.254593e-003
3.641004e+003,8.143852e-003
3.642932e+003,8.044803e-003
3.644861e+003,7.953187e-003
3.646789e+003,7.991214e-003
3.648718e+003,8.019219e-003
3.650646e+003,8.031555e-003
3.652574e+003,8.108671e-003
3.654503e+003,7.963315e-003
3.656432e+003,7.777834e-003
3.658360e+003,7.828533e-003
3.660289e+003,7.872322e-003
3.662217e+003,7.814029e-003
3.664146e+003,7.713300e-003
3.666074e+003,7.633911e-003
3.668002e+003,7.632459e-003
3.669931e+003,7.663940e-003
3.671860e+003,7.722763e-003
3.673788e+003,7.784206e-003
3.675717e+003,7.747883e-003
3.677645e+003,7.689868e-003
3.679573e+003,7.650878e-003
3.681502e+003,7.650085e-003
3.683430e+003,7.799520e-003
3.685359e+003,7.729165e-003
3.687288e+003,7.572755e-003
3.689216e+003,7.556802e-003
3.691145e+003,7.632893e-003
3.693073e+003,7.588849e-003
3.695001e+003,7.592034e-003
3.696930e+003,7.679851e-003
3.698858e+003,7.671594e-003
3.700787e+003,7.760348e-003
3.702716e+003,7.852399e-003
3.704644e+003,7.886695e-003
3.706573e+003,7.886779e-003
3.708501e+003,7.877175e-003
3.710429e+003,7.879450e-003
3.712358e+003,7.977059e-003
3.714286e+003,7.935947e-003
3.716215e+003,7.799887e-003
3.718144e+003,7.855514e-003
3.720072e+003,7.969421e-003
3.722000e+003,7.973060e-003
3.723929e+003,8.044298e-003
3.725857e+003,8.089409e-003
3.727786e+003,8.051273e-003
3.729714e+003,8.069893e-003
3.731643e+003,8.167556e-003
3.733572e+003,8.344136e-003
3.735500e+003,8.456486e-003
3.737428e+003,8.367093e-003
3.739357e+003,8.315098e-003
3.741285e+003,8.309520e-003
3.743214e+003,8.293983e-003
3.745142e+003,8.280875e-003
3.747071e+003,8.293007e-003
3.749000e+003,8.337289e-003
3.750928e+003,8.380746e-003
3.752856e+003,8.333754e-003
3.754785e+003,8.350033e-003
3.756713e+003,8.459513e-003
3.758642e+003,8.363212e-003
3.760570e+003,8.248493e-003
3.762499e+003,8.277092e-003
3.764427e+003,8.319482e-003
3.766356e+003,8.270927e-003
3.768284e+003,8.304222e-003
3.770213e+003,8.326278e-003
3.772141e+003,8.349266e-003
3.774070e+003,8.398080e-003
3.775998e+003,8.332574e-003
3.777927e+003,8.298525e-003
3.779855e+003,8.334547e-003
3.781784e+003,8.289154e-003
3.783712e+003,8.314081e-003
3.785641e+003,8.339973e-003
3.787569e+003,8.317067e-003
3.789498e+003,8.360412e-003
3.791426e+003,8.392671e-003
3.793355e+003,8.386077e-003
3.795283e+003,8.345346e-003
3.797212e+003,8.270424e-003
3.799140e+003,8.317275e-003
3.801069e+003,8.386031e-003
3.802997e+003,8.388002e-003
3.804926e+003,8.372618e-003
3.806854e+003,8.331249e-003
3.808783e+003,8.369871e-003
3.810711e+003,8.416409e-003
3.812640e+003,8.430011e-003
3.814568e+003,8.488862e-003
3.816497e+003,8.473716e-003
3.818425e+003,8.426145e-003
3.820354e+003,8.380086e-003
3.822282e+003,8.428501e-003
3.824211e+003,8.436249e-003
3.826139e+003,8.466074e-003
3.828068e+003,8.531890e-003
3.829996e+003,8.497500e-003
3.831925e+003,8.453431e-003
3.833853e+003,8.505767e-003
3.835782e+003,8.497438e-003
3.837710e+003,8.462083e-003
3.839639e+003,8.429998e-003
3.841567e+003,8.437615e-003
3.843496e+003,8.443858e-003
3.845424e+003,8.439771e-003
3.847353e+003,8.436034e-003
3.849281e+003,8.508652e-003
3.851210e+003,8.565740e-003
3.853138e+003,8.600856e-003
3.855067e+003,8.568969e-003
3.856995e+003,8.516205e-003
3.858924e+003,8.550528e-003
3.860852e+003,8.579500e-003
3.862781e+003,8.548920e-003
3.864709e+003,8.476854e-003
3.866638e+003,8.480819e-003
3.868566e+003,8.510082e-003
3.870495e+003,8.522931e-003
3.872423e+003,8.533344e-003
3.874352e+003,8.595942e-003
3.876280e+003,8.593759e-003
3.878209e+003,8.512245e-003
3.880137e+003,8.437824e-003
3.882066e+003,8.467803e-003
3.883994e+003,8.621618e-003
3.885923e+003,8.651450e-003
3.887851e+003,8.569148e-003
3.889780e+003,8.616874e-003
3.891708e+003,8.645682e-003
3.893637e+003,8.606954e-003
3.895565e+003,8.577622e-003
3.897494e+003,8.619855e-003
3.899422e+003,8.641100e-003
3.901351e+003,8.624421e-003
3.903279e+003,8.624013e-003
3.905208e+003,8.655442e-003
3.907136e+003,8.689902e-003
3.909065e+003,8.676387e-003
3.910993e+003,8.606067e-003
3.912922e+003,8.553637e-003
3.914850e+003,8.650770e-003
3.916779e+003,8.677701e-003
3.918707e+003,8.677439e-003
3.920636e+003,8.595327e-003
3.922564e+003,8.605659e-003
3.924493e+003,8.700793e-003
3.926421e+003,8.708920e-003
3.928350e+003,8.660871e-003
3.930278e+003,8.658284e-003
3.932207e+003,8.673940e-003
3.934135e+003,8.724035e-003
3.936064e+003,8.725964e-003
3.937992e+003,8.728772e-003
3.939921e+003,8.665171e-003
3.941849e+003,8.672361e-003
3.943778e+003,8.617871e-003
3.945706e+003,8.561036e-003
3.947635e+003,8.568739e-003
3.949563e+003,8.603361e-003
3.951492e+003,8.645391e-003
3.953420e+003,8.616407e-003
3.955349e+003,8.695516e-003
3.957277e+003,8.629797e-003
3.959206e+003,8.540702e-003
3.961134e+003,8.593278e-003
3.963063e+003,8.583133e-003
3.964991e+003,8.650333e-003
3.966920e+003,8.693356e-003
3.968848e+003,8.650213e-003
3.970777e+003,8.705260e-003
3.972705e+003,8.639776e-003
3.974634e+003,8.605968e-003
3.976562e+003,8.665105e-003
3.978491e+003,8.692443e-003
3.980419e+003,8.698646e-003
3.982348e+003,8.629222e-003
3.984276e+003,8.608988e-003
3.986205e+003,8.675489e-003
3.988133e+003,8.653994e-003
3.990062e+003,8.660722e-003
3.991990e+003,8.644959e-003
3.993919e+003,8.588316e-003
3.995847e+003,8.616120e-003
3.997776e+003,8.699216e-003
3.999704e+003,8.699683e-003
4.001633e+003,0.000000e+000
