3.991989e+002,4.942816e-002
4.011274e+002,4.889410e-002
4.030559e+002,4.889410e-002
4.049844e+002,4.791860e-002
4.069129e+002,4.822854e-002
4.088414e+002,4.813991e-002
4.107699e+002,4.711313e-002
4.126984e+002,4.701280e-002
4.146269e+002,4.734416e-002
4.165554e+002,4.789618e-002
4.184839e+002,4.866144e-002
4.204124e+002,4.897918e-002
4.223409e+002,4.901620e-002
4.242694e+002,4.926100e-002
4.261979e+002,5.056190e-002
4.281264e+002,5.142656e-002
4.300549e+002,5.029095e-002
4.319834e+002,5.007530e-002
4.339119e+002,4.978217e-002
4.358404e+002,4.939051e-002
4.377689e+002,4.944520e-002
4.396974e+002,4.956091e-002
4.416259e+002,4.953432e-002
4.435544e+002,4.936991e-002
4.454829e+002,4.833733e-002
4.474114e+002,4.981614e-002
4.493399e+002,5.053457e-002
4.512684e+002,4.954862e-002
4.531969e+002,4.895771e-002
4.551254e+002,4.897692e-002
4.570539e+002,4.817985e-002
4.589824e+002,4.847442e-002
4.609109e+002,4.796829e-002
4.628394e+002,4.696658e-002
4.647679e+002,4.742353e-002
4.666964e+002,4.742161e-002
4.686249e+002,4.644745e-002
4.705533e+002,4.599841e-002
4.724819e+002,4.530022e-002
4.744103e+002,4.432460e-002
4.763389e+002,4.461297e-002
4.782673e+002,4.469772e-002
4.801959e+002,4.419736e-002
4.821243e+002,4.362064e-002
4.840529e+002,4.324925e-002
4.859813e+002,4.278960e-002
4.879099e+002,4.246569e-002
4.898383e+002,4.278931e-002
4.917668e+002,4.282193e-002
4.936953e+002,4.224122e-002
4.956238e+002,4.163893e-002
4.975523e+002,4.157286e-002
4.994808e+002,4.169065e-002
5.014093e+002,4.179096e-002
5.033378e+002,4.152466e-002
5.052663e+002,4.139361e-002
5.071948e+002,4.124077e-002
5.091233e+002,4.098297e-002
5.110518e+002,4.098045e-002
5.129803e+002,4.130173e-002
5.149088e+002,4.142073e-002
5.168373e+002,4.188870e-002
5.187658e+002,4.203808e-002
5.206943e+002,4.190549e-002
5.226228e+002,4.235203e-002
5.245513e+002,4.238429e-002
5.264798e+002,4.216834e-002
5.284083e+002,4.214844e-002
5.303368e+002,4.151442e-002
5.322653e+002,4.160476e-002
5.341938e+002,4.133464e-002
5.361223e+002,4.065603e-002
5.380508e+002,4.048370e-002
5.399792e+002,4.059876e-002
5.419078e+002,4.071097e-002
5.438363e+002,4.061895e-002
5.457648e+002,4.071967e-002
5.476932e+002,4.074194e-002
5.496218e+002,4.071014e-002
5.515503e+002,4.140152e-002
5.534788e+002,4.168437e-002
5.554072e+002,4.172391e-002
5.573358e+002,4.228939e-002
5.592643e+002,4.228285e-002
5.611927e+002,4.187144e-002
5.631212e+002,4.136810e-002
5.650497e+002,4.071097e-002
5.669783e+002,4.046556e-002
5.689067e+002,4.016823e-002
5.708352e+002,3.992558e-002
5.727637e+002,3.985530e-002
5.746923e+002,3.965577e-002
5.766207e+002,3.915883e-002
5.785492e+002,3.912917e-002
5.804777e+002,3.923731e-002
5.824063e+002,3.898985e-002
5.843347e+002,3.870001e-002
5.862632e+002,3.882174e-002
5.881917e+002,3.890013e-002
5.901202e+002,3.886907e-002
5.920487e+002,3.850747e-002
5.939772e+002,3.850814e-002
5.959057e+002,3.863550e-002
5.978342e+002,3.813945e-002
5.997627e+002,3.790879e-002
6.016912e+002,3.790936e-002
6.036197e+002,3.765687e-002
6.055482e+002,3.750565e-002
6.074767e+002,3.737828e-002
6.094052e+002,3.714218e-002
6.113337e+002,3.657926e-002
6.132622e+002,3.612003e-002
6.151907e+002,3.595774e-002
6.171192e+002,3.575373e-002
6.190477e+002,3.537526e-002
6.209762e+002,3.494563e-002
6.229047e+002,3.447045e-002
6.248332e+002,3.367880e-002
6.267617e+002,3.317756e-002
6.286902e+002,3.268655e-002
6.306187e+002,3.227066e-002
6.325472e+002,3.208106e-002
6.344756e+002,3.183073e-002
6.364042e+002,3.141430e-002
6.383326e+002,3.116900e-002
6.402612e+002,3.098863e-002
6.421896e+002,3.098476e-002
6.441182e+002,3.082624e-002
6.460466e+002,3.057282e-002
6.479752e+002,3.031762e-002
6.499036e+002,3.043296e-002
6.518322e+002,3.056928e-002
6.537606e+002,3.050934e-002
6.556891e+002,3.035429e-002
6.576177e+002,3.020909e-002
6.595461e+002,3.021240e-002
6.614746e+002,3.038629e-002
6.634031e+002,3.041411e-002
6.653317e+002,3.024126e-002
6.672601e+002,2.998582e-002
6.691886e+002,2.970385e-002
6.711171e+002,2.941144e-002
6.730457e+002,2.900553e-002
6.749741e+002,2.839430e-002
6.769026e+002,2.776518e-002
6.788311e+002,2.718122e-002
6.807596e+002,2.641038e-002
6.826881e+002,2.581607e-002
6.846166e+002,2.553942e-002
6.865451e+002,2.536970e-002
6.884736e+002,2.503615e-002
6.904021e+002,2.495809e-002
6.923306e+002,2.477829e-002
6.942591e+002,2.469867e-002
6.961876e+002,2.445731e-002
6.981161e+002,2.421672e-002
7.000446e+002,2.423513e-002
7.019731e+002,2.419142e-002
7.039016e+002,2.391552e-002
7.058301e+002,2.378994e-002
7.077585e+002,2.355552e-002
7.096871e+002,2.338880e-002
7.116156e+002,2.339851e-002
7.135441e+002,2.335342e-002
7.154725e+002,2.306369e-002
7.174011e+002,2.285320e-002
7.193296e+002,2.275668e-002
7.212581e+002,2.254209e-002
7.231865e+002,2.221058e-002
7.251151e+002,2.199800e-002
7.270436e+002,2.175250e-002
7.289720e+002,2.158474e-002
7.309005e+002,2.141549e-002
7.328290e+002,2.124274e-002
7.347576e+002,2.105859e-002
7.366860e+002,2.094592e-002
7.386145e+002,2.082609e-002
7.405430e+002,2.060437e-002
7.424716e+002,2.034879e-002
7.444000e+002,2.024568e-002
7.463285e+002,2.008823e-002
7.482570e+002,1.995968e-002
7.501855e+002,1.966314e-002
7.521140e+002,1.949103e-002
7.540425e+002,1.935914e-002
7.559710e+002,1.918670e-002
7.578995e+002,1.904717e-002
7.598280e+002,1.893268e-002
7.617565e+002,1.898536e-002
7.636850e+002,1.902929e-002
7.656135e+002,1.881630e-002
7.675420e+002,1.867547e-002
7.694705e+002,1.863219e-002
7.713990e+002,1.867519e-002
7.733275e+002,1.872991e-002
7.752560e+002,1.869321e-002
7.771844e+002,1.862189e-002
7.791130e+002,1.863856e-002
7.810415e+002,1.859522e-002
7.829700e+002,1.847375e-002
7.848984e+002,1.835915e-002
7.868270e+002,1.834702e-002
7.887555e+002,1.835079e-002
7.906840e+002,1.818850e-002
7.926124e+002,1.813526e-002
7.945410e+002,1.800148e-002
7.964695e+002,1.788280e-002
7.983979e+002,1.792689e-002
8.003264e+002,1.792099e-002
8.022549e+002,1.791836e-002
8.041835e+002,1.793798e-002
8.061119e+002,1.796101e-002
8.080404e+002,1.793932e-002
8.099689e+002,1.806590e-002
8.118975e+002,1.815506e-002
8.138259e+002,1.808818e-002
8.157545e+002,1.804155e-002
8.176830e+002,1.810020e-002
8.196115e+002,1.805754e-002
8.215399e+002,1.804234e-002
8.234684e+002,1.807360e-002
8.253970e+002,1.806504e-002
8.273254e+002,1.803077e-002
8.292539e+002,1.804870e-002
8.311824e+002,1.816045e-002
8.331110e+002,1.822706e-002
8.350394e+002,1.818626e-002
8.369679e+002,1.820360e-002
8.388964e+002,1.824472e-002
8.408250e+002,1.827461e-002
8.427534e+002,1.813516e-002
8.446819e+002,1.804621e-002
8.466104e+002,1.810749e-002
8.485389e+002,1.807861e-002
8.504674e+002,1.812690e-002
8.523959e+002,1.820937e-002
8.543244e+002,1.811046e-002
8.562529e+002,1.808859e-002
8.581814e+002,1.806756e-002
8.601099e+002,1.814794e-002
8.620384e+002,1.832953e-002
8.639669e+002,1.844395e-002
8.658954e+002,1.857233e-002
8.678239e+002,1.873099e-002
8.697524e+002,1.880623e-002
8.716809e+002,1.894005e-002
8.736094e+002,1.904116e-002
8.755378e+002,1.914697e-002
8.774664e+002,1.940520e-002
8.793949e+002,1.968365e-002
8.813234e+002,1.989502e-002
8.832518e+002,2.027952e-002
8.851804e+002,2.066530e-002
8.871089e+002,2.104173e-002
8.890374e+002,2.160057e-002
8.909658e+002,2.225892e-002
8.928943e+002,2.266553e-002
8.948229e+002,2.288995e-002
8.967513e+002,2.302269e-002
8.986798e+002,2.299397e-002
9.006083e+002,2.268508e-002
9.025369e+002,2.229516e-002
9.044653e+002,2.189123e-002
9.063938e+002,2.166120e-002
9.083223e+002,2.148427e-002
9.102509e+002,2.128247e-002
9.121793e+002,2.133199e-002
9.141078e+002,2.130863e-002
9.160364e+002,2.131486e-002
9.179648e+002,2.145486e-002
9.198933e+002,2.154280e-002
9.218218e+002,2.160252e-002
9.237504e+002,2.179994e-002
9.256788e+002,2.210441e-002
9.276073e+002,2.238453e-002
9.295358e+002,2.265750e-002
9.314644e+002,2.289564e-002
9.333928e+002,2.318375e-002
9.353213e+002,2.348314e-002
9.372498e+002,2.385344e-002
9.391783e+002,2.430537e-002
9.411068e+002,2.473575e-002
9.430353e+002,2.517221e-002
9.449637e+002,2.571717e-002
9.468923e+002,2.623989e-002
9.488208e+002,2.677304e-002
9.507493e+002,2.743784e-002
9.526777e+002,2.812565e-002
9.546063e+002,2.891550e-002
9.565348e+002,2.972975e-002
9.584633e+002,3.046207e-002
9.603917e+002,3.118854e-002
9.623203e+002,3.183105e-002
9.642488e+002,3.244698e-002
9.661772e+002,3.318128e-002
9.681057e+002,3.380529e-002
9.700343e+002,3.440445e-002
9.719628e+002,3.513690e-002
9.738912e+002,3.589517e-002
9.758197e+002,3.676175e-002
9.777483e+002,3.770295e-002
9.796768e+002,3.867542e-002
9.816052e+002,3.976252e-002
9.835337e+002,4.092741e-002
9.854623e+002,4.193906e-002
9.873907e+002,4.269140e-002
9.893192e+002,4.315833e-002
9.912477e+002,4.349379e-002
9.931763e+002,4.372833e-002
9.951047e+002,4.385477e-002
9.970332e+002,4.398201e-002
9.989617e+002,4.434820e-002
1.000890e+003,4.490064e-002
1.002819e+003,4.543838e-002
1.004747e+003,4.598861e-002
1.006676e+003,4.650354e-002
1.008604e+003,4.701306e-002
1.010533e+003,4.753882e-002
1.012461e+003,4.819896e-002
1.014390e+003,4.902061e-002
1.016318e+003,4.992209e-002
1.018247e+003,5.093643e-002
1.020175e+003,5.196748e-002
1.022104e+003,5.295015e-002
1.024032e+003,5.399801e-002
1.025961e+003,5.504557e-002
1.027889e+003,5.607309e-002
1.029818e+003,5.697605e-002
1.031746e+003,5.774277e-002
1.033675e+003,5.814439e-002
1.035603e+003,5.811700e-002
1.037532e+003,5.765025e-002
1.039460e+003,5.682251e-002
1.041389e+003,5.600222e-002
1.043317e+003,5.542799e-002
1.045246e+003,5.502369e-002
1.047174e+003,5.481561e-002
1.049103e+003,5.457925e-002
1.051031e+003,5.434364e-002
1.052960e+003,5.410972e-002
1.054888e+003,5.361408e-002
1.056817e+003,5.286025e-002
1.058745e+003,5.199041e-002
1.060674e+003,5.095789e-002
1.062602e+003,4.967008e-002
1.064531e+003,4.828001e-002
1.066459e+003,4.683594e-002
1.068388e+003,4.547241e-002
1.070316e+003,4.430295e-002
1.072245e+003,4.325584e-002
1.074173e+003,4.237041e-002
1.076102e+003,4.152397e-002
1.078030e+003,4.055736e-002
1.079959e+003,3.961548e-002
1.081887e+003,3.875164e-002
1.083816e+003,3.803617e-002
1.085744e+003,3.750369e-002
1.087673e+003,3.704929e-002
1.089601e+003,3.662071e-002
1.091530e+003,3.627776e-002
1.093458e+003,3.605996e-002
1.095387e+003,3.586861e-002
1.097315e+003,3.570127e-002
1.099244e+003,3.563674e-002
1.101172e+003,3.563128e-002
1.103101e+003,3.558161e-002
1.105029e+003,3.545734e-002
1.106958e+003,3.514815e-002
1.108886e+003,3.464793e-002
1.110815e+003,3.400928e-002
1.112743e+003,3.315961e-002
1.114672e+003,3.206150e-002
1.116600e+003,3.096997e-002
1.118529e+003,3.004132e-002
1.120457e+003,2.924538e-002
1.122386e+003,2.852904e-002
1.124314e+003,2.771884e-002
1.126243e+003,2.676631e-002
1.128171e+003,2.571383e-002
1.130100e+003,2.472011e-002
1.132028e+003,2.379071e-002
1.133957e+003,2.297389e-002
1.135885e+003,2.226841e-002
1.137814e+003,2.170843e-002
1.139742e+003,2.142958e-002
1.141671e+003,2.131612e-002
1.143599e+003,2.138412e-002
1.145528e+003,2.162017e-002
1.147456e+003,2.195710e-002
1.149385e+003,2.232320e-002
1.151313e+003,2.278472e-002
1.153242e+003,2.332277e-002
1.155170e+003,2.382813e-002
1.157099e+003,2.419763e-002
1.159027e+003,2.439922e-002
1.160956e+003,2.442151e-002
1.162884e+003,2.419378e-002
1.164813e+003,2.366235e-002
1.166741e+003,2.279440e-002
1.168670e+003,2.174466e-002
1.170598e+003,2.061388e-002
1.172526e+003,1.944463e-002
1.174455e+003,1.834702e-002
1.176384e+003,1.740962e-002
1.178312e+003,1.664977e-002
1.180240e+003,1.604352e-002
1.182169e+003,1.551794e-002
1.184098e+003,1.506963e-002
1.186026e+003,1.473619e-002
1.187954e+003,1.450673e-002
1.189883e+003,1.441862e-002
1.191812e+003,1.446767e-002
1.193740e+003,1.463593e-002
1.195668e+003,1.487955e-002
1.197597e+003,1.514232e-002
1.199526e+003,1.533534e-002
1.201454e+003,1.545552e-002
1.203382e+003,1.552488e-002
1.205311e+003,1.549656e-002
1.207240e+003,1.543659e-002
1.209168e+003,1.541241e-002
1.211096e+003,1.540767e-002
1.213025e+003,1.551804e-002
1.214953e+003,1.572032e-002
1.216882e+003,1.593839e-002
1.218810e+003,1.615530e-002
1.220739e+003,1.636815e-002
1.222667e+003,1.664492e-002
1.224596e+003,1.697825e-002
1.226524e+003,1.728630e-002
1.228453e+003,1.757142e-002
1.230381e+003,1.783931e-002
1.232310e+003,1.804149e-002
1.234238e+003,1.821025e-002
1.236167e+003,1.829433e-002
1.238095e+003,1.830197e-002
1.240024e+003,1.829853e-002
1.241952e+003,1.826753e-002
1.243881e+003,1.823167e-002
1.245809e+003,1.808891e-002
1.247738e+003,1.786467e-002
1.249666e+003,1.759991e-002
1.251595e+003,1.734624e-002
1.253523e+003,1.709695e-002
1.255452e+003,1.682590e-002
1.257380e+003,1.651867e-002
1.259309e+003,1.617352e-002
1.261237e+003,1.583854e-002
1.263166e+003,1.553027e-002
1.265094e+003,1.525346e-002
1.267023e+003,1.499721e-002
1.268951e+003,1.475112e-002
1.270880e+003,1.448580e-002
1.272808e+003,1.419266e-002
1.274737e+003,1.394897e-002
1.276665e+003,1.369273e-002
1.278594e+003,1.346876e-002
1.280522e+003,1.330700e-002
1.282451e+003,1.314690e-002
1.284379e+003,1.296688e-002
1.286308e+003,1.278947e-002
1.288236e+003,1.263640e-002
1.290165e+003,1.254634e-002
1.292093e+003,1.254168e-002
1.294022e+003,1.259737e-002
1.295950e+003,1.268802e-002
1.297879e+003,1.278591e-002
1.299807e+003,1.294934e-002
1.301736e+003,1.318343e-002
1.303664e+003,1.345040e-002
1.305593e+003,1.375396e-002
1.307521e+003,1.399839e-002
1.309450e+003,1.423023e-002
1.311378e+003,1.447060e-002
1.313307e+003,1.468103e-002
1.315235e+003,1.478396e-002
1.317164e+003,1.477982e-002
1.319092e+003,1.471224e-002
1.321021e+003,1.457517e-002
1.322949e+003,1.441449e-002
1.324878e+003,1.429858e-002
1.326806e+003,1.419157e-002
1.328735e+003,1.413914e-002
1.330663e+003,1.414604e-002
1.332592e+003,1.411339e-002
1.334520e+003,1.410520e-002
1.336449e+003,1.400641e-002
1.338377e+003,1.385075e-002
1.340306e+003,1.372564e-002
1.342234e+003,1.366309e-002
1.344163e+003,1.361167e-002
1.346091e+003,1.356976e-002
1.348020e+003,1.351807e-002
1.349948e+003,1.358155e-002
1.351877e+003,1.372455e-002
1.353805e+003,1.387328e-002
1.355734e+003,1.399920e-002
1.357662e+003,1.417672e-002
1.359591e+003,1.434730e-002
1.361519e+003,1.449153e-002
1.363448e+003,1.460378e-002
1.365376e+003,1.474203e-002
1.367305e+003,1.479397e-002
1.369233e+003,1.475137e-002
1.371162e+003,1.466734e-002
1.373090e+003,1.451362e-002
1.375019e+003,1.431369e-002
1.376947e+003,1.406744e-002
1.378876e+003,1.375111e-002
1.380804e+003,1.336586e-002
1.382733e+003,1.299339e-002
1.384661e+003,1.263491e-002
1.386590e+003,1.232586e-002
1.388518e+003,1.203058e-002
1.390447e+003,1.182474e-002
1.392375e+003,1.170252e-002
1.394304e+003,1.162491e-002
1.396232e+003,1.156951e-002
1.398161e+003,1.156339e-002
1.400089e+003,1.159224e-002
1.402018e+003,1.156903e-002
1.403946e+003,1.156271e-002
1.405875e+003,1.164757e-002
1.407803e+003,1.177679e-002
1.409732e+003,1.190071e-002
1.411660e+003,1.201884e-002
1.413589e+003,1.219746e-002
1.415517e+003,1.240468e-002
1.417446e+003,1.255945e-002
1.419374e+003,1.274841e-002
1.421303e+003,1.289426e-002
1.423231e+003,1.291145e-002
1.425160e+003,1.292493e-002
1.427088e+003,1.290630e-002
1.429017e+003,1.277952e-002
1.430945e+003,1.260786e-002
1.432874e+003,1.244423e-002
1.434802e+003,1.222039e-002
1.436731e+003,1.203261e-002
1.438659e+003,1.186112e-002
1.440588e+003,1.175928e-002
1.442516e+003,1.170423e-002
1.444445e+003,1.171147e-002
1.446373e+003,1.173583e-002
1.448302e+003,1.173259e-002
1.450230e+003,1.175646e-002
1.452159e+003,1.177088e-002
1.454087e+003,1.173831e-002
1.456016e+003,1.172225e-002
1.457944e+003,1.162596e-002
1.459873e+003,1.152463e-002
1.461801e+003,1.143706e-002
1.463730e+003,1.128533e-002
1.465658e+003,1.104044e-002
1.467587e+003,1.070829e-002
1.469515e+003,1.033196e-002
1.471444e+003,9.951088e-003
1.473372e+003,9.615841e-003
1.475301e+003,9.315590e-003
1.477229e+003,9.111143e-003
1.479158e+003,8.980324e-003
1.481086e+003,8.897490e-003
1.483015e+003,8.833004e-003
1.484943e+003,8.815302e-003
1.486872e+003,8.842645e-003
1.488800e+003,8.928336e-003
1.490729e+003,9.066917e-003
1.492657e+003,9.221092e-003
1.494586e+003,9.389566e-003
1.496514e+003,9.588255e-003
1.498443e+003,9.693387e-003
1.500371e+003,9.790700e-003
1.502300e+003,9.888681e-003
1.504228e+003,9.966061e-003
1.506157e+003,1.003745e-002
1.508085e+003,1.007617e-002
1.510014e+003,1.011094e-002
1.511942e+003,1.012933e-002
1.513871e+003,1.007335e-002
1.515799e+003,9.897606e-003
1.517728e+003,9.670750e-003
1.519656e+003,9.407917e-003
1.521585e+003,9.167159e-003
1.523513e+003,8.990571e-003
1.525442e+003,8.838990e-003
1.527370e+003,8.748482e-003
1.529299e+003,8.703802e-003
1.531227e+003,8.650494e-003
1.533156e+003,8.597531e-003
1.535084e+003,8.590907e-003
1.537013e+003,8.606428e-003
1.538941e+003,8.596608e-003
1.540870e+003,8.573176e-003
1.542798e+003,8.597325e-003
1.544727e+003,8.590170e-003
1.546655e+003,8.563413e-003
1.548584e+003,8.523370e-003
1.550512e+003,8.546852e-003
1.552441e+003,8.581536e-003
1.554369e+003,8.566269e-003
1.556298e+003,8.556179e-003
1.558226e+003,8.565783e-003
1.560155e+003,8.637463e-003
1.562083e+003,8.651411e-003
1.564012e+003,8.652761e-003
1.565940e+003,8.718794e-003
1.567869e+003,8.830175e-003
1.569797e+003,8.939833e-003
1.571726e+003,9.041335e-003
1.573654e+003,9.136933e-003
1.575583e+003,9.265873e-003
1.577511e+003,9.387437e-003
1.579440e+003,9.546198e-003
1.581368e+003,9.757346e-003
1.583297e+003,9.935974e-003
1.585225e+003,1.010643e-002
1.587154e+003,1.024864e-002
1.589082e+003,1.038342e-002
1.591010e+003,1.053964e-002
1.592939e+003,1.066283e-002
1.594868e+003,1.067013e-002
1.596796e+003,1.068700e-002
1.598724e+003,1.070631e-002
1.600653e+003,1.070325e-002
1.602582e+003,1.070191e-002
1.604510e+003,1.067744e-002
1.606438e+003,1.063228e-002
1.608367e+003,1.057877e-002
1.610296e+003,1.053523e-002
1.612224e+003,1.055094e-002
1.614152e+003,1.059633e-002
1.616081e+003,1.066940e-002
1.618010e+003,1.075696e-002
1.619938e+003,1.082064e-002
1.621866e+003,1.090664e-002
1.623795e+003,1.098955e-002
1.625724e+003,1.105168e-002
1.627652e+003,1.106570e-002
1.629580e+003,1.109094e-002
1.631509e+003,1.108161e-002
1.633438e+003,1.104837e-002
1.635366e+003,1.102041e-002
1.637294e+003,1.102228e-002
1.639223e+003,1.091829e-002
1.641151e+003,1.083427e-002
1.643080e+003,1.081064e-002
1.645008e+003,1.078508e-002
1.646937e+003,1.074151e-002
1.648865e+003,1.070489e-002
1.650794e+003,1.072151e-002
1.652722e+003,1.071221e-002
1.654651e+003,1.067815e-002
1.656579e+003,1.054865e-002
1.658508e+003,1.042639e-002
1.660436e+003,1.023551e-002
1.662365e+003,9.994281e-003
1.664293e+003,9.793220e-003
1.666222e+003,9.661401e-003
1.668150e+003,9.524554e-003
1.670079e+003,9.354948e-003
1.672007e+003,9.230832e-003
1.673936e+003,9.175133e-003
1.675864e+003,9.085682e-003
1.677793e+003,8.986994e-003
1.679721e+003,8.910360e-003
1.681650e+003,8.843231e-003
1.683578e+003,8.811753e-003
1.685507e+003,8.801578e-003
1.687435e+003,8.716071e-003
1.689364e+003,8.694993e-003
1.691292e+003,8.674573e-003
1.693221e+003,8.681907e-003
1.695149e+003,8.775759e-003
1.697078e+003,8.750095e-003
1.699006e+003,8.670807e-003
1.700935e+003,8.682264e-003
1.702863e+003,8.727999e-003
1.704792e+003,8.774525e-003
1.706720e+003,8.860269e-003
1.708649e+003,9.001064e-003
1.710577e+003,9.061376e-003
1.712506e+003,9.166204e-003
1.714434e+003,9.267152e-003
1.716363e+003,9.430880e-003
1.718291e+003,9.594285e-003
1.720220e+003,9.688090e-003
1.722148e+003,9.702372e-003
1.724077e+003,9.786665e-003
1.726005e+003,9.830231e-003
1.727934e+003,9.806252e-003
1.729862e+003,9.791944e-003
1.731791e+003,9.765744e-003
1.733719e+003,9.699157e-003
1.735648e+003,9.631316e-003
1.737576e+003,9.445306e-003
1.739505e+003,9.261334e-003
1.741433e+003,9.009320e-003
1.743362e+003,8.705872e-003
1.745290e+003,8.423838e-003
1.747219e+003,8.154122e-003
1.749147e+003,7.900919e-003
1.751076e+003,7.679018e-003
1.753004e+003,7.504887e-003
1.754933e+003,7.379036e-003
1.756861e+003,7.210155e-003
1.758790e+003,7.076747e-003
1.760718e+003,6.903641e-003
1.762647e+003,6.776483e-003
1.764575e+003,6.740164e-003
1.766504e+003,6.691176e-003
1.768432e+003,6.537949e-003
1.770361e+003,6.444476e-003
1.772289e+003,6.425209e-003
1.774218e+003,6.390378e-003
1.776146e+003,6.348292e-003
1.778075e+003,6.350674e-003
1.780003e+003,6.338277e-003
1.781932e+003,6.302559e-003
1.783860e+003,6.244162e-003
1.785789e+003,6.245989e-003
1.787717e+003,6.316767e-003
1.789646e+003,6.311703e-003
1.791574e+003,6.313213e-003
1.793503e+003,6.291143e-003
1.795431e+003,6.240681e-003
1.797360e+003,6.249442e-003
1.799288e+003,6.240788e-003
1.801217e+003,6.296415e-003
1.803145e+003,6.329659e-003
1.805074e+003,6.253776e-003
1.807002e+003,6.222468e-003
1.808931e+003,6.235590e-003
1.810859e+003,6.225572e-003
1.812788e+003,6.226508e-003
1.814716e+003,6.161549e-003
1.816645e+003,6.107530e-003
1.818573e+003,6.227008e-003
1.820502e+003,6.284936e-003
1.822430e+003,6.232892e-003
1.824359e+003,6.201684e-003
1.826287e+003,6.227629e-003
1.828216e+003,6.265074e-003
1.830144e+003,6.284998e-003
1.832073e+003,6.250507e-003
1.834001e+003,6.205473e-003
1.835930e+003,6.283855e-003
1.837858e+003,6.325454e-003
1.839787e+003,6.296355e-003
1.841715e+003,6.193822e-003
1.843644e+003,6.202108e-003
1.845572e+003,6.309592e-003
1.847501e+003,6.402109e-003
1.849429e+003,6.338339e-003
1.851358e+003,6.254832e-003
1.853286e+003,6.370071e-003
1.855215e+003,6.483831e-003
1.857143e+003,6.421307e-003
1.859072e+003,6.394092e-003
1.861000e+003,6.480186e-003
1.862929e+003,6.520138e-003
1.864857e+003,6.450176e-003
1.866786e+003,6.343908e-003
1.868714e+003,6.244231e-003
1.870643e+003,6.257820e-003
1.872571e+003,6.394703e-003
1.874500e+003,6.501071e-003
1.876428e+003,6.552066e-003
1.878357e+003,6.561185e-003
1.880285e+003,6.538890e-003
1.882214e+003,6.552066e-003
1.884142e+003,6.535555e-003
1.886071e+003,6.492605e-003
1.887999e+003,6.391789e-003
1.889928e+003,6.341076e-003
1.891856e+003,6.437898e-003
1.893785e+003,6.530667e-003
1.895713e+003,6.337242e-003
1.897642e+003,6.273690e-003
1.899570e+003,6.364007e-003
1.901499e+003,6.410323e-003
1.903427e+003,6.295437e-003
1.905356e+003,6.264909e-003
1.907284e+003,6.413769e-003
1.909213e+003,6.382970e-003
1.911141e+003,6.296519e-003
1.913070e+003,6.167982e-003
1.914998e+003,6.074241e-003
1.916927e+003,5.941055e-003
1.918855e+003,5.947540e-003
1.920784e+003,5.931712e-003
1.922712e+003,5.800443e-003
1.924641e+003,5.925490e-003
1.926569e+003,5.858109e-003
1.928498e+003,5.573746e-003
1.930426e+003,5.584289e-003
1.932355e+003,5.791318e-003
1.934283e+003,5.670973e-003
1.936212e+003,5.552042e-003
1.938140e+003,5.565363e-003
1.940069e+003,5.319632e-003
1.941997e+003,5.414072e-003
1.943926e+003,5.786714e-003
1.945854e+003,5.506115e-003
1.947783e+003,5.611120e-003
1.949711e+003,5.686902e-003
1.951640e+003,5.627541e-003
1.953568e+003,5.601005e-003
1.955497e+003,5.324633e-003
1.957425e+003,5.223235e-003
1.959354e+003,4.939477e-003
1.961282e+003,4.894502e-003
1.963211e+003,4.929412e-003
1.965139e+003,4.708710e-003
1.967068e+003,4.959248e-003
1.968996e+003,5.623191e-003
1.970925e+003,4.104986e-003
1.972853e+003,3.162640e-003
1.974782e+003,3.451504e-003
1.976710e+003,4.020027e-003
1.978639e+003,4.205668e-003
1.980567e+003,3.893437e-003
1.982496e+003,4.159135e-003
1.984424e+003,4.233193e-003
1.986353e+003,4.298218e-003
1.988281e+003,4.304231e-003
1.990210e+003,4.542583e-003
1.992138e+003,4.174369e-003
1.994067e+003,4.310060e-003
1.995995e+003,4.568614e-003
1.997924e+003,4.421260e-003
1.999852e+003,4.189389e-003
2.001781e+003,4.854657e-003
2.003709e+003,5.162737e-003
2.005638e+003,4.767135e-003
2.007566e+003,4.565102e-003
2.009495e+003,4.070517e-003
2.011423e+003,4.512047e-003
2.013352e+003,4.839419e-003
2.015280e+003,4.774092e-003
2.017208e+003,5.349738e-003
2.019137e+003,4.519913e-003
2.021066e+003,4.448112e-003
2.022994e+003,4.257010e-003
2.024922e+003,3.859243e-003
2.026851e+003,4.597501e-003
2.028780e+003,4.776780e-003
2.030708e+003,5.048873e-003
2.032636e+003,6.055097e-003
2.034565e+003,6.169415e-003
2.036494e+003,6.232450e-003
2.038422e+003,6.233980e-003
2.040350e+003,6.094086e-003
2.042279e+003,6.041173e-003
2.044208e+003,5.493959e-003
2.046136e+003,5.094487e-003
2.048064e+003,5.596322e-003
2.049993e+003,6.312522e-003
2.051921e+003,6.410695e-003
2.053850e+003,6.528575e-003
2.055778e+003,6.691254e-003
2.057707e+003,6.322476e-003
2.059635e+003,6.411743e-003
2.061564e+003,6.757716e-003
2.063492e+003,6.765943e-003
2.065421e+003,6.513232e-003
2.067349e+003,6.309020e-003
2.069278e+003,6.194588e-003
2.071206e+003,6.189961e-003
2.073135e+003,6.258068e-003
2.075063e+003,6.258257e-003
2.076992e+003,6.473046e-003
2.078920e+003,6.608389e-003
2.080849e+003,6.598622e-003
2.082777e+003,6.435996e-003
2.084706e+003,6.198913e-003
2.086634e+003,6.301856e-003
2.088563e+003,6.186124e-003
2.090491e+003,6.223958e-003
2.092420e+003,6.204754e-003
2.094348e+003,6.086567e-003
2.096277e+003,5.724617e-003
2.098205e+003,5.764243e-003
2.100134e+003,6.002636e-003
2.102062e+003,6.075880e-003
2.103991e+003,6.250505e-003
2.105919e+003,5.874725e-003
2.107848e+003,5.667519e-003
2.109776e+003,5.932428e-003
2.111705e+003,5.637241e-003
2.113633e+003,5.538532e-003
2.115562e+003,5.675744e-003
2.117490e+003,5.823980e-003
2.119419e+003,5.600487e-003
2.121347e+003,5.524370e-003
2.123276e+003,5.505108e-003
2.125204e+003,5.643820e-003
2.127133e+003,5.643149e-003
2.129061e+003,5.585987e-003
2.130990e+003,5.451655e-003
2.132918e+003,5.163803e-003
2.134847e+003,4.997423e-003
2.136775e+003,5.315923e-003
2.138704e+003,5.073347e-003
2.140632e+003,4.789866e-003
2.142561e+003,4.628753e-003
2.144489e+003,4.780552e-003
2.146418e+003,4.324879e-003
2.148346e+003,3.917559e-003
2.150275e+003,3.838126e-003
2.152203e+003,3.645088e-003
2.154132e+003,2.757803e-003
2.156060e+003,3.293455e-003
2.157989e+003,3.056578e-003
2.159917e+003,3.177186e-003
2.161846e+003,5.158538e-003
2.163774e+003,6.432565e-003
2.165703e+003,6.539853e-003
2.167631e+003,5.754707e-003
2.169560e+003,5.990441e-003
2.171488e+003,6.444470e-003
2.173417e+003,6.598688e-003
2.175345e+003,7.116770e-003
2.177274e+003,6.883151e-003
2.179202e+003,6.186777e-003
2.181131e+003,6.003106e-003
2.183059e+003,6.453987e-003
2.184988e+003,6.787490e-003
2.186916e+003,6.672638e-003
2.188845e+003,6.401930e-003
2.190773e+003,7.095956e-003
2.192702e+003,7.103770e-003
2.194630e+003,6.512574e-003
2.196559e+003,6.835722e-003
2.198487e+003,7.089051e-003
2.200416e+003,6.473526e-003
2.202344e+003,6.828014e-003
2.204273e+003,7.309269e-003
2.206201e+003,7.012168e-003
2.208130e+003,6.559026e-003
2.210058e+003,7.124180e-003
2.211987e+003,7.995229e-003
2.213915e+003,7.628997e-003
2.215844e+003,7.272643e-003
2.217772e+003,7.467031e-003
2.219701e+003,7.636315e-003
2.221629e+003,7.768389e-003
2.223558e+003,7.771223e-003
2.225486e+003,7.504920e-003
2.227415e+003,7.553772e-003
2.229343e+003,7.831473e-003
2.231272e+003,8.171507e-003
2.233200e+003,8.119975e-003
2.235129e+003,7.806358e-003
2.237057e+003,7.391084e-003
2.238986e+003,7.495819e-003
2.240914e+003,7.583855e-003
2.242843e+003,7.647562e-003
2.244771e+003,7.989835e-003
2.246700e+003,7.797038e-003
2.248628e+003,7.585526e-003
2.250557e+003,7.943638e-003
2.252485e+003,8.060757e-003
2.254414e+003,7.748237e-003
2.256342e+003,7.778836e-003
2.258271e+003,7.803665e-003
2.260199e+003,8.113771e-003
2.262128e+003,8.272413e-003
2.264056e+003,7.990767e-003
2.265985e+003,7.762189e-003
2.267913e+003,7.612670e-003
2.269842e+003,7.588222e-003
2.271770e+003,7.477333e-003
2.273699e+003,7.389768e-003
2.275627e+003,7.429877e-003
2.277556e+003,7.556721e-003
2.279484e+003,7.582398e-003
2.281413e+003,7.577550e-003
2.283341e+003,7.471736e-003
2.285270e+003,7.389647e-003
2.287198e+003,7.089410e-003
2.289127e+003,6.978870e-003
2.291055e+003,7.023223e-003
2.292984e+003,6.963432e-003
2.294912e+003,6.905596e-003
2.296841e+003,6.633773e-003
2.298769e+003,6.500693e-003
2.300698e+003,6.504251e-003
2.302626e+003,6.519147e-003
2.304555e+003,6.556528e-003
2.306483e+003,6.480123e-003
2.308412e+003,6.178651e-003
2.310340e+003,6.032244e-003
2.312269e+003,6.280825e-003
2.314197e+003,6.697848e-003
2.316125e+003,6.559867e-003
2.318054e+003,6.309060e-003
2.319983e+003,5.993718e-003
2.321911e+003,5.667109e-003
2.323840e+003,5.688922e-003
2.325768e+003,5.800578e-003
2.327697e+003,5.714838e-003
2.329625e+003,5.677545e-003
2.331553e+003,5.554768e-003
2.333482e+003,5.517942e-003
2.335411e+003,5.581670e-003
2.337339e+003,5.830580e-003
2.339268e+003,6.136135e-003
2.341196e+003,6.507549e-003
2.343125e+003,6.478176e-003
2.345053e+003,6.768191e-003
2.346981e+003,6.793888e-003
2.348910e+003,7.090290e-003
2.350839e+003,7.176862e-003
2.352767e+003,7.114919e-003
2.354696e+003,7.675847e-003
2.356624e+003,7.712810e-003
2.358552e+003,7.482328e-003
2.360481e+003,7.746342e-003
2.362409e+003,7.959084e-003
2.364338e+003,8.293374e-003
2.366267e+003,8.613485e-003
2.368195e+003,8.244275e-003
2.370124e+003,7.846046e-003
2.372052e+003,7.927955e-003
2.373980e+003,7.988097e-003
2.375909e+003,8.083880e-003
2.377838e+003,8.093510e-003
2.379766e+003,7.986528e-003
2.381695e+003,7.734959e-003
2.383623e+003,7.650635e-003
2.385552e+003,7.707774e-003
2.387480e+003,7.765070e-003
2.389408e+003,7.749601e-003
2.391337e+003,7.718701e-003
2.393266e+003,7.715946e-003
2.395194e+003,7.665236e-003
2.397123e+003,7.615800e-003
2.399051e+003,7.478909e-003
2.400979e+003,7.316008e-003
2.402908e+003,7.277898e-003
2.404836e+003,7.266443e-003
2.406765e+003,7.234773e-003
2.408694e+003,7.201791e-003
2.410622e+003,7.080497e-003
2.412551e+003,6.930215e-003
2.414479e+003,6.798799e-003
2.416407e+003,6.716987e-003
2.418336e+003,6.763528e-003
2.420264e+003,6.871201e-003
2.422193e+003,6.963748e-003
2.424122e+003,6.902676e-003
2.426050e+003,6.904494e-003
2.427979e+003,7.003177e-003
2.429907e+003,7.059549e-003
2.431835e+003,7.054734e-003
2.433764e+003,7.052443e-003
2.435692e+003,7.083528e-003
2.437621e+003,7.131119e-003
2.439550e+003,7.133039e-003
2.441478e+003,7.181646e-003
2.443406e+003,7.163253e-003
2.445335e+003,7.206170e-003
2.447263e+003,7.086357e-003
2.449192e+003,6.995568e-003
2.451121e+003,7.036986e-003
2.453049e+003,7.147826e-003
2.454978e+003,7.148937e-003
2.456906e+003,7.045169e-003
2.458834e+003,7.137518e-003
2.460763e+003,7.190000e-003
2.462691e+003,7.073559e-003
2.464620e+003,7.110068e-003
2.466549e+003,7.164769e-003
2.468477e+003,7.164466e-003
2.470406e+003,7.179894e-003
2.472334e+003,7.156786e-003
2.474262e+003,7.220218e-003
2.476191e+003,7.239894e-003
2.478119e+003,7.171978e-003
2.480048e+003,7.221128e-003
2.481977e+003,7.294510e-003
2.483905e+003,7.201925e-003
2.485833e+003,7.171034e-003
2.487762e+003,7.092689e-003
2.489690e+003,7.173527e-003
2.491619e+003,7.202801e-003
2.493547e+003,7.295757e-003
2.495476e+003,7.205328e-003
2.497405e+003,7.215637e-003
2.499333e+003,7.341012e-003
2.501261e+003,7.257851e-003
2.503190e+003,7.233088e-003
2.505118e+003,7.237906e-003
2.507047e+003,7.171978e-003
2.508975e+003,7.155169e-003
2.510904e+003,7.110438e-003
2.512833e+003,7.170832e-003
2.514761e+003,7.178412e-003
2.516689e+003,7.093800e-003
2.518618e+003,7.128357e-003
2.520546e+003,7.181612e-003
2.522475e+003,7.261591e-003
2.524403e+003,7.184778e-003
2.526332e+003,7.127885e-003
2.528260e+003,7.147354e-003
2.530189e+003,7.124281e-003
2.532117e+003,7.143851e-003
2.534046e+003,7.196771e-003
2.535974e+003,7.214054e-003
2.537903e+003,7.218129e-003
2.539831e+003,7.194379e-003
2.541760e+003,7.302462e-003
2.543688e+003,7.345831e-003
2.545617e+003,7.291646e-003
2.547545e+003,7.224362e-003
2.549474e+003,7.220859e-003
2.551402e+003,7.241073e-003
2.553331e+003,7.385025e-003
2.555259e+003,7.440738e-003
2.557188e+003,7.406865e-003
2.559116e+003,7.376768e-003
2.561045e+003,7.390856e-003
2.562973e+003,7.444345e-003
2.564902e+003,7.456783e-003
2.566830e+003,7.414987e-003
2.568759e+003,7.409831e-003
2.570687e+003,7.335991e-003
2.572616e+003,7.319176e-003
2.574544e+003,7.321703e-003
2.576473e+003,7.389373e-003
2.578401e+003,7.526193e-003
2.580330e+003,7.555794e-003
2.582258e+003,7.633347e-003
2.584187e+003,7.608428e-003
2.586115e+003,7.603909e-003
2.588044e+003,7.625895e-003
2.589972e+003,7.802831e-003
2.591901e+003,7.839536e-003
2.593829e+003,7.824759e-003
2.595758e+003,7.810489e-003
2.597686e+003,7.807992e-003
2.599615e+003,7.923787e-003
2.601543e+003,8.076404e-003
2.603472e+003,8.102836e-003
2.605400e+003,8.050784e-003
2.607329e+003,8.057097e-003
2.609257e+003,8.175017e-003
2.611186e+003,8.228401e-003
2.613114e+003,8.151045e-003
2.615043e+003,8.182074e-003
2.616971e+003,8.224315e-003
2.618900e+003,8.233770e-003
2.620828e+003,8.261359e-003
2.622757e+003,8.297259e-003
2.624685e+003,8.361939e-003
2.626614e+003,8.439534e-003
2.628542e+003,8.478591e-003
2.630471e+003,8.485788e-003
2.632399e+003,8.434467e-003
2.634328e+003,8.394705e-003
2.636256e+003,8.408556e-003
2.638185e+003,8.375045e-003
2.640113e+003,8.351874e-003
2.642042e+003,8.366026e-003
2.643970e+003,8.351062e-003
2.645899e+003,8.340828e-003
2.647827e+003,8.335998e-003
2.649756e+003,8.360318e-003
2.651684e+003,8.310633e-003
2.653613e+003,8.259907e-003
2.655541e+003,8.233905e-003
2.657470e+003,8.251498e-003
2.659398e+003,8.273247e-003
2.661327e+003,8.254032e-003
2.663255e+003,8.299421e-003
2.665184e+003,8.248290e-003
2.667112e+003,8.155401e-003
2.669041e+003,8.135448e-003
2.670969e+003,8.154658e-003
2.672898e+003,8.149121e-003
2.674826e+003,8.081266e-003
2.676755e+003,8.029689e-003
2.678683e+003,8.013589e-003
2.680612e+003,8.000933e-003
2.682540e+003,7.996107e-003
2.684469e+003,8.007278e-003
2.686397e+003,8.003160e-003
2.688326e+003,8.014602e-003
2.690254e+003,7.981865e-003
2.692183e+003,7.984767e-003
2.694111e+003,8.023613e-003
2.696040e+003,8.072017e-003
2.697968e+003,8.066548e-003
2.699897e+003,8.041502e-003
2.701825e+003,8.086093e-003
2.703754e+003,8.094937e-003
2.705682e+003,8.069688e-003
2.707611e+003,8.115125e-003
2.709539e+003,8.118028e-003
2.711468e+003,8.115901e-003
2.713396e+003,8.137777e-003
2.715325e+003,8.134638e-003
2.717253e+003,8.133423e-003
2.719182e+003,8.160702e-003
2.721110e+003,8.156481e-003
2.723039e+003,8.104625e-003
2.724967e+003,8.093114e-003
2.726896e+003,8.132207e-003
2.728824e+003,8.195005e-003
2.730753e+003,8.198719e-003
2.732681e+003,8.200239e-003
2.734610e+003,8.223673e-003
2.736538e+003,8.189772e-003
2.738467e+003,8.184606e-003
2.740395e+003,8.211720e-003
2.742324e+003,8.245353e-003
2.744252e+003,8.280812e-003
2.746181e+003,8.288849e-003
2.748109e+003,8.269600e-003
2.750038e+003,8.321002e-003
2.751966e+003,8.344341e-003
2.753895e+003,8.349610e-003
2.755823e+003,8.315834e-003
2.757752e+003,8.334445e-003
2.759680e+003,8.429265e-003
2.761609e+003,8.453251e-003
2.763537e+003,8.464164e-003
2.765466e+003,8.452441e-003
2.767394e+003,8.438926e-003
2.769323e+003,8.406326e-003
2.771251e+003,8.428082e-003
2.773180e+003,8.472172e-003
2.775108e+003,8.497478e-003
2.777037e+003,8.530086e-003
2.778965e+003,8.542081e-003
2.780894e+003,8.527044e-003
2.782822e+003,8.556781e-003
2.784750e+003,8.578038e-003
2.786679e+003,8.554822e-003
2.788608e+003,8.566852e-003
2.790536e+003,8.585169e-003
2.792465e+003,8.588582e-003
2.794393e+003,8.555802e-003
2.796322e+003,8.562020e-003
2.798250e+003,8.596795e-003
2.800178e+003,8.620385e-003
2.802107e+003,8.620656e-003
2.804036e+003,8.608995e-003
2.805964e+003,8.665542e-003
2.807893e+003,8.710772e-003
2.809821e+003,8.732339e-003
2.811750e+003,8.745694e-003
2.813678e+003,8.755025e-003
2.815606e+003,8.809460e-003
2.817535e+003,8.841313e-003
2.819464e+003,8.863057e-003
2.821392e+003,8.879019e-003
2.823321e+003,8.937326e-003
2.825249e+003,8.975142e-003
2.827177e+003,8.948555e-003
2.829106e+003,8.980047e-003
2.831034e+003,9.037995e-003
2.832963e+003,9.087560e-003
2.834892e+003,9.147248e-003
2.836820e+003,9.200210e-003
2.838749e+003,9.245664e-003
2.840677e+003,9.299044e-003
2.842605e+003,9.346675e-003
2.844534e+003,9.373184e-003
2.846462e+003,9.418217e-003
2.848391e+003,9.457259e-003
2.850320e+003,9.504806e-003
2.852248e+003,9.529361e-003
2.854177e+003,9.548531e-003
2.856105e+003,9.577220e-003
2.858033e+003,9.685865e-003
2.859962e+003,9.789689e-003
2.861890e+003,9.843068e-003
2.863819e+003,9.926895e-003
2.865748e+003,9.968492e-003
2.867676e+003,9.945439e-003
2.869604e+003,9.919335e-003
2.871533e+003,9.952525e-003
2.873461e+003,1.003068e-002
2.875390e+003,1.006116e-002
2.877319e+003,1.004749e-002
2.879247e+003,1.004163e-002
2.881176e+003,1.000928e-002
2.883104e+003,9.974324e-003
2.885032e+003,1.002762e-002
2.886961e+003,1.007018e-002
2.888889e+003,1.005184e-002
2.890818e+003,1.002322e-002
2.892747e+003,1.005343e-002
2.894675e+003,1.004424e-002
2.896604e+003,1.000230e-002
2.898532e+003,9.965916e-003
2.900460e+003,9.920827e-003
2.902389e+003,9.910353e-003
2.904317e+003,9.961508e-003
2.906246e+003,9.984088e-003
2.908175e+003,9.940964e-003
2.910103e+003,9.886658e-003
2.912031e+003,9.864659e-003
2.913960e+003,9.836018e-003
2.915888e+003,9.748278e-003
2.917817e+003,9.720933e-003
2.919745e+003,9.747126e-003
2.921674e+003,9.749736e-003
2.923603e+003,9.615363e-003
2.925531e+003,9.508871e-003
2.927459e+003,9.472025e-003
2.929388e+003,9.429052e-003
2.931316e+003,9.463456e-003
2.933245e+003,9.418995e-003
2.935173e+003,9.343957e-003
2.937102e+003,9.317794e-003
2.939031e+003,9.266417e-003
2.940959e+003,9.233518e-003
2.942887e+003,9.178576e-003
2.944816e+003,9.052308e-003
2.946744e+003,8.991302e-003
2.948673e+003,8.908294e-003
2.950601e+003,8.805033e-003
2.952530e+003,8.703870e-003
2.954458e+003,8.659136e-003
2.956387e+003,8.652353e-003
2.958315e+003,8.603477e-003
2.960244e+003,8.527772e-003
2.962172e+003,8.472801e-003
2.964101e+003,8.398865e-003
2.966029e+003,8.372944e-003
2.967958e+003,8.350478e-003
2.969886e+003,8.309327e-003
2.971815e+003,8.283940e-003
2.973743e+003,8.249830e-003
2.975672e+003,8.243452e-003
2.977600e+003,8.250919e-003
2.979529e+003,8.231913e-003
2.981457e+003,8.217197e-003
2.983386e+003,8.182087e-003
2.985314e+003,8.169273e-003
2.987243e+003,8.153683e-003
2.989171e+003,8.181989e-003
2.991100e+003,8.145735e-003
2.993028e+003,8.075717e-003
2.994957e+003,8.039146e-003
2.996885e+003,8.083729e-003
2.998814e+003,8.098050e-003
3.000742e+003,8.124766e-003
3.002671e+003,8.127671e-003
3.004599e+003,8.075239e-003
3.006528e+003,8.115943e-003
3.008456e+003,8.135690e-003
3.010385e+003,8.088516e-003
3.012313e+003,8.082565e-003
3.014242e+003,8.068531e-003
3.016170e+003,8.053930e-003
3.018099e+003,8.058010e-003
3.020027e+003,8.082834e-003
3.021956e+003,8.155440e-003
3.023884e+003,8.198948e-003
3.025813e+003,8.189765e-003
3.027741e+003,8.193078e-003
3.029670e+003,8.277047e-003
3.031598e+003,8.306375e-003
3.033527e+003,8.237178e-003
3.035455e+003,8.211098e-003
3.037384e+003,8.208197e-003
3.039312e+003,8.284182e-003
3.041241e+003,8.327039e-003
3.043169e+003,8.339306e-003
3.045098e+003,8.427864e-003
3.047026e+003,8.406729e-003
3.048955e+003,8.438737e-003
3.050883e+003,8.542011e-003
3.052812e+003,8.568469e-003
3.054740e+003,8.473035e-003
3.056669e+003,8.453021e-003
3.058597e+003,8.542120e-003
3.060526e+003,8.594306e-003
3.062454e+003,8.569821e-003
3.064383e+003,8.639142e-003
3.066311e+003,8.683151e-003
3.068240e+003,8.683184e-003
3.070168e+003,8.713244e-003
3.072097e+003,8.731627e-003
3.074025e+003,8.704979e-003
3.075954e+003,8.734782e-003
3.077882e+003,8.805922e-003
3.079811e+003,8.760911e-003
3.081739e+003,8.873271e-003
3.083668e+003,8.920838e-003
3.085596e+003,8.927365e-003
3.087525e+003,8.949461e-003
3.089453e+003,8.930329e-003
3.091382e+003,8.963587e-003
3.093310e+003,8.987054e-003
3.095239e+003,9.072789e-003
3.097167e+003,9.140551e-003
3.099096e+003,9.093385e-003
3.101024e+003,9.039623e-003
3.102953e+003,9.132385e-003
3.104881e+003,9.145221e-003
3.106810e+003,9.162338e-003
3.108738e+003,9.216041e-003
3.110667e+003,9.207763e-003
3.112595e+003,9.206754e-003
3.114524e+003,9.278972e-003
3.116452e+003,9.286471e-003
3.118381e+003,9.311718e-003
3.120309e+003,9.327557e-003
3.122238e+003,9.425867e-003
3.124166e+003,9.515394e-003
3.126095e+003,9.474765e-003
3.128023e+003,9.449530e-003
3.129952e+003,9.495162e-003
3.131880e+003,9.559253e-003
3.133809e+003,9.594044e-003
3.135737e+003,9.635191e-003
3.137666e+003,9.647496e-003
3.139594e+003,9.717715e-003
3.141523e+003,9.778605e-003
3.143451e+003,9.795098e-003
3.145380e+003,9.793680e-003
3.147308e+003,9.854373e-003
3.149237e+003,9.921724e-003
3.151165e+003,9.941861e-003
3.153094e+003,1.000872e-002
3.155022e+003,1.001868e-002
3.156951e+003,1.000923e-002
3.158879e+003,1.011165e-002
3.160808e+003,1.015496e-002
3.162736e+003,1.020207e-002
3.164665e+003,1.015094e-002
3.166593e+003,1.014801e-002
3.168522e+003,1.024439e-002
3.170450e+003,1.028761e-002
3.172379e+003,1.034965e-002
3.174307e+003,1.041555e-002
3.176236e+003,1.046083e-002
3.178164e+003,1.048421e-002
3.180093e+003,1.050179e-002
3.182021e+003,1.064289e-002
3.183950e+003,1.070896e-002
3.185878e+003,1.064884e-002
3.187807e+003,1.070462e-002
3.189735e+003,1.072736e-002
3.191664e+003,1.079941e-002
3.193592e+003,1.088576e-002
3.195521e+003,1.095977e-002
3.197449e+003,1.102344e-002
3.199378e+003,1.103814e-002
3.201306e+003,1.104745e-002
3.203235e+003,1.111819e-002
3.205163e+003,1.117591e-002
3.207092e+003,1.130636e-002
3.209020e+003,1.140688e-002
3.210948e+003,1.137248e-002
3.212877e+003,1.134762e-002
3.214806e+003,1.140655e-002
3.216734e+003,1.146391e-002
3.218663e+003,1.156946e-002
3.220591e+003,1.172906e-002
3.222520e+003,1.175631e-002
3.224448e+003,1.176597e-002
3.226376e+003,1.179916e-002
3.228305e+003,1.184701e-002
3.230234e+003,1.190821e-002
3.232162e+003,1.198920e-002
3.234091e+003,1.204264e-002
3.236019e+003,1.206206e-002
3.237948e+003,1.214723e-002
3.239876e+003,1.221167e-002
3.241804e+003,1.228496e-002
3.243733e+003,1.233661e-002
3.245662e+003,1.243160e-002
3.247590e+003,1.253649e-002
3.249519e+003,1.257635e-002
3.251447e+003,1.254975e-002
3.253375e+003,1.263280e-002
3.255304e+003,1.270671e-002
3.257232e+003,1.280624e-002
3.259161e+003,1.288767e-002
3.261090e+003,1.290140e-002
3.263018e+003,1.295665e-002
3.264947e+003,1.306120e-002
3.266875e+003,1.313883e-002
3.268803e+003,1.304831e-002
3.270732e+003,1.308825e-002
3.272660e+003,1.319739e-002
3.274589e+003,1.319375e-002
3.276518e+003,1.322537e-002
3.278446e+003,1.329831e-002
3.280375e+003,1.333230e-002
3.282303e+003,1.337844e-002
3.284231e+003,1.341202e-002
3.286160e+003,1.338294e-002
3.288088e+003,1.337069e-002
3.290017e+003,1.340213e-002
3.291946e+003,1.338369e-002
3.293874e+003,1.338871e-002
3.295802e+003,1.353148e-002
3.297731e+003,1.357762e-002
3.299659e+003,1.351014e-002
3.301588e+003,1.353086e-002
3.303516e+003,1.355696e-002
3.305445e+003,1.355744e-002
3.307374e+003,1.354879e-002
3.309302e+003,1.357148e-002
3.311230e+003,1.359819e-002
3.313159e+003,1.361910e-002
3.315087e+003,1.366249e-002
3.317016e+003,1.365614e-002
3.318944e+003,1.369063e-002
3.320873e+003,1.374368e-002
3.322802e+003,1.375472e-002
3.324730e+003,1.378904e-002
3.326658e+003,1.381095e-002
3.328587e+003,1.380171e-002
3.330515e+003,1.383041e-002
3.332444e+003,1.380059e-002
3.334372e+003,1.383528e-002
3.336301e+003,1.378350e-002
3.338229e+003,1.371878e-002
3.340158e+003,1.375669e-002
3.342086e+003,1.377455e-002
3.344015e+003,1.368492e-002
3.345943e+003,1.367115e-002
3.347872e+003,1.369909e-002
3.349800e+003,1.368868e-002
3.351729e+003,1.355989e-002
3.353657e+003,1.338354e-002
3.355586e+003,1.334540e-002
3.357514e+003,1.332677e-002
3.359443e+003,1.328138e-002
3.361371e+003,1.333116e-002
3.363300e+003,1.325437e-002
3.365229e+003,1.316969e-002
3.367157e+003,1.306707e-002
3.369085e+003,1.299131e-002
3.371014e+003,1.296594e-002
3.372942e+003,1.296719e-002
3.374871e+003,1.292339e-002
3.376799e+003,1.288506e-002
3.378728e+003,1.286185e-002
3.380656e+003,1.281474e-002
3.382585e+003,1.276273e-002
3.384513e+003,1.273640e-002
3.386442e+003,1.271689e-002
3.388370e+003,1.270865e-002
3.390299e+003,1.270521e-002
3.392227e+003,1.262971e-002
3.394156e+003,1.249444e-002
3.396084e+003,1.241110e-002
3.398013e+003,1.231551e-002
3.399941e+003,1.229323e-002
3.401870e+003,1.223301e-002
3.403798e+003,1.218974e-002
3.405727e+003,1.220918e-002
3.407655e+003,1.215653e-002
3.409584e+003,1.213462e-002
3.411512e+003,1.202203e-002
3.413441e+003,1.195947e-002
3.415369e+003,1.192115e-002
3.417298e+003,1.170805e-002
3.419226e+003,1.164901e-002
3.421155e+003,1.158937e-002
3.423083e+003,1.157174e-002
3.425012e+003,1.152645e-002
3.426940e+003,1.148832e-002
3.428869e+003,1.144685e-002
3.430797e+003,1.127769e-002
3.432726e+003,1.113687e-002
3.434654e+003,1.104790e-002
3.436583e+003,1.097138e-002
3.438511e+003,1.092382e-002
3.440440e+003,1.079575e-002
3.442368e+003,1.068898e-002
3.444297e+003,1.071161e-002
3.446225e+003,1.059600e-002
3.448154e+003,1.049006e-002
3.450082e+003,1.041781e-002
3.452011e+003,1.027944e-002
3.453939e+003,1.024256e-002
3.455868e+003,1.021783e-002
3.457796e+003,1.014250e-002
3.459725e+003,1.007111e-002
3.461653e+003,9.992187e-003
3.463582e+003,9.927719e-003
3.465510e+003,9.790794e-003
3.467439e+003,9.759214e-003
3.469367e+003,9.666316e-003
3.471296e+003,9.540328e-003
3.473224e+003,9.425463e-003
3.475153e+003,9.293530e-003
3.477081e+003,9.268451e-003
3.479010e+003,9.167200e-003
3.480938e+003,9.052861e-003
3.482867e+003,8.993593e-003
3.484795e+003,9.024869e-003
3.486724e+003,9.071375e-003
3.488652e+003,8.954749e-003
3.490581e+003,8.885910e-003
3.492509e+003,8.774010e-003
3.494438e+003,8.751893e-003
3.496366e+003,8.749543e-003
3.498295e+003,8.644287e-003
3.500223e+003,8.518863e-003
3.502152e+003,8.454777e-003
3.504080e+003,8.404233e-003
3.506009e+003,8.300614e-003
3.507937e+003,8.136304e-003
3.509866e+003,8.016890e-003
3.511794e+003,8.035197e-003
3.513723e+003,7.963629e-003
3.515651e+003,7.864258e-003
3.517580e+003,7.742047e-003
3.519508e+003,7.684296e-003
3.521437e+003,7.717900e-003
3.523365e+003,7.688464e-003
3.525294e+003,7.594009e-003
3.527222e+003,7.460480e-003
3.529151e+003,7.432296e-003
3.531079e+003,7.420232e-003
3.533008e+003,7.398479e-003
3.534936e+003,7.291107e-003
3.536865e+003,7.258954e-003
3.538793e+003,7.273993e-003
3.540722e+003,7.125136e-003
3.542650e+003,6.982579e-003
3.544579e+003,6.935657e-003
3.546507e+003,6.838368e-003
3.548436e+003,6.745638e-003
3.550364e+003,6.693370e-003
3.552293e+003,6.657425e-003
3.554221e+003,6.532653e-003
3.556150e+003,6.578426e-003
3.558078e+003,6.634342e-003
3.560007e+003,6.568806e-003
3.561935e+003,6.435335e-003
3.563864e+003,6.266866e-003
3.565792e+003,6.125460e-003
3.567721e+003,6.145429e-003
3.569649e+003,6.199422e-003
3.571578e+003,6.273184e-003
3.573506e+003,6.278218e-003
3.575435e+003,6.159103e-003
3.577363e+003,6.027076e-003
3.579292e+003,6.016843e-003
3.581220e+003,6.123514e-003
3.583149e+003,6.164800e-003
3.585077e+003,6.003620e-003
3.587006e+003,5.928443e-003
3.588934e+003,5.976865e-003
3.590863e+003,6.137672e-003
3.592791e+003,6.203717e-003
3.594720e+003,6.114523e-003
3.596648e+003,6.055453e-003
3.598577e+003,6.124012e-003
3.600505e+003,6.102481e-003
3.602434e+003,5.994028e-003
3.604362e+003,6.009797e-003
3.606291e+003,5.961974e-003
3.608219e+003,5.810239e-003
3.610148e+003,5.617977e-003
3.612076e+003,5.366727e-003
3.614005e+003,5.397780e-003
3.615933e+003,5.537198e-003
3.617862e+003,5.691066e-003
3.619790e+003,5.742408e-003
3.621719e+003,5.865965e-003
3.623647e+003,5.983412e-003
3.625576e+003,5.940220e-003
3.627504e+003,5.859954e-003
3.629433e+003,5.922141e-003
3.631361e+003,5.933762e-003
3.633290e+003,5.702523e-003
3.635218e+003,5.494624e-003
3.637146e+003,5.229088e-003
3.639075e+003,5.099387e-003
3.641004e+003,5.184986e-003
3.642932e+003,5.207205e-003
3.644861e+003,5.081363e-003
3.646789e+003,4.939126e-003
3.648718e+003,4.984578e-003
3.650646e+003,4.955669e-003
3.652574e+003,4.946214e-003
3.654503e+003,4.981328e-003
3.656432e+003,4.942242e-003
3.658360e+003,4.956092e-003
3.660289e+003,5.008251e-003
3.662217e+003,4.907176e-003
3.664146e+003,4.730861e-003
3.666074e+003,4.700454e-003
3.668002e+003,4.673050e-003
3.669931e+003,4.710708e-003
3.671860e+003,4.829923e-003
3.673788e+003,4.870429e-003
3.675717e+003,4.818815e-003
3.677645e+003,4.803826e-003
3.679573e+003,4.798859e-003
3.681502e+003,4.958095e-003
3.683430e+003,5.270917e-003
3.685359e+003,5.323776e-003
3.687288e+003,5.127624e-003
3.689216e+003,5.188512e-003
3.691145e+003,5.381060e-003
3.693073e+003,5.416634e-003
3.695001e+003,5.400117e-003
3.696930e+003,5.489402e-003
3.698858e+003,5.609774e-003
3.700787e+003,5.667382e-003
3.702716e+003,5.673216e-003
3.704644e+003,5.740319e-003
3.706573e+003,5.776772e-003
3.708501e+003,5.697430e-003
3.710429e+003,5.603155e-003
3.712358e+003,5.435364e-003
3.714286e+003,5.224295e-003
3.716215e+003,5.183954e-003
3.718144e+003,5.399647e-003
3.720072e+003,5.715847e-003
3.722000e+003,5.869314e-003
3.723929e+003,6.046778e-003
3.725857e+003,6.167362e-003
3.727786e+003,6.174690e-003
3.729714e+003,6.196870e-003
3.731643e+003,6.251427e-003
3.733572e+003,6.220034e-003
3.735500e+003,6.090737e-003
3.737428e+003,5.972492e-003
3.739357e+003,5.757727e-003
3.741285e+003,5.572300e-003
3.743214e+003,5.494724e-003
3.745142e+003,5.397527e-003
3.747071e+003,5.280361e-003
3.749000e+003,5.260228e-003
3.750928e+003,5.254404e-003
3.752856e+003,5.173147e-003
3.754785e+003,5.211973e-003
3.756713e+003,5.246196e-003
3.758642e+003,5.168150e-003
3.760570e+003,5.201689e-003
3.762499e+003,5.227879e-003
3.764427e+003,5.228285e-003
3.766356e+003,5.191826e-003
3.768284e+003,5.118324e-003
3.770213e+003,5.130932e-003
3.772141e+003,5.293052e-003
3.774070e+003,5.308661e-003
3.775998e+003,5.240325e-003
3.777927e+003,5.086267e-003
3.779855e+003,5.093677e-003
3.781784e+003,5.117163e-003
3.783712e+003,5.089053e-003
3.785641e+003,5.089572e-003
3.787569e+003,5.057488e-003
3.789498e+003,5.078000e-003
3.791426e+003,5.109356e-003
3.793355e+003,5.099496e-003
3.795283e+003,5.119270e-003
3.797212e+003,5.083909e-003
3.799140e+003,5.016890e-003
3.801069e+003,5.077783e-003
3.802997e+003,5.144356e-003
3.804926e+003,5.118301e-003
3.806854e+003,5.122730e-003
3.808783e+003,5.111895e-003
3.810711e+003,5.181983e-003
3.812640e+003,5.173674e-003
3.814568e+003,5.151103e-003
3.816497e+003,5.094934e-003
3.818425e+003,4.998191e-003
3.820354e+003,5.000705e-003
3.822282e+003,5.094039e-003
3.824211e+003,5.078661e-003
3.826139e+003,5.117811e-003
3.828068e+003,5.150010e-003
3.829996e+003,5.089310e-003
3.831925e+003,5.097788e-003
3.833853e+003,5.126602e-003
3.835782e+003,5.178172e-003
3.837710e+003,5.202985e-003
3.839639e+003,5.135345e-003
3.841567e+003,5.067422e-003
3.843496e+003,5.028607e-003
3.845424e+003,5.081106e-003
3.847353e+003,5.070623e-003
3.849281e+003,5.094627e-003
3.851210e+003,5.151134e-003
3.853138e+003,5.301643e-003
3.855067e+003,5.272856e-003
3.856995e+003,5.086190e-003
3.858924e+003,5.098204e-003
3.860852e+003,5.096950e-003
3.862781e+003,5.117830e-003
3.864709e+003,5.136613e-003
3.866638e+003,5.176546e-003
3.868566e+003,5.209237e-003
3.870495e+003,5.204331e-003
3.872423e+003,5.141463e-003
3.874352e+003,5.198370e-003
3.876280e+003,5.203020e-003
3.878209e+003,5.185085e-003
3.880137e+003,5.127254e-003
3.882066e+003,5.166805e-003
3.883994e+003,5.160118e-003
3.885923e+003,5.236510e-003
3.887851e+003,5.287597e-003
3.889780e+003,5.179637e-003
3.891708e+003,5.123404e-003
3.893637e+003,5.152831e-003
3.895565e+003,5.159300e-003
3.897494e+003,5.204585e-003
3.899422e+003,5.229782e-003
3.901351e+003,5.232278e-003
3.903279e+003,5.211911e-003
3.905208e+003,5.189725e-003
3.907136e+003,5.186887e-003
3.909065e+003,5.154925e-003
3.910993e+003,5.114737e-003
3.912922e+003,5.100901e-003
3.914850e+003,5.221748e-003
3.916779e+003,5.240190e-003
3.918707e+003,5.188475e-003
3.920636e+003,5.129233e-003
3.922564e+003,5.135531e-003
3.924493e+003,5.174570e-003
3.926421e+003,5.193850e-003
3.928350e+003,5.149520e-003
3.930278e+003,5.165010e-003
3.932207e+003,5.140055e-003
3.934135e+003,5.223230e-003
3.936064e+003,5.277321e-003
3.937992e+003,5.179156e-003
3.939921e+003,5.155693e-003
3.941849e+003,5.155020e-003
3.943778e+003,5.133579e-003
3.945706e+003,5.130841e-003
3.947635e+003,5.114945e-003
3.949563e+003,5.094687e-003
3.951492e+003,5.172213e-003
3.953420e+003,5.192481e-003
3.955349e+003,5.174241e-003
3.957277e+003,5.145239e-003
3.959206e+003,5.100976e-003
3.961134e+003,5.145117e-003
3.963063e+003,5.117888e-003
3.964991e+003,5.126675e-003
3.966920e+003,5.121276e-003
3.968848e+003,5.148732e-003
3.970777e+003,5.174705e-003
3.972705e+003,5.144168e-003
3.974634e+003,5.086445e-003
3.976562e+003,5.098268e-003
3.978491e+003,5.138936e-003
3.980419e+003,5.100740e-003
3.982348e+003,5.090334e-003
3.984276e+003,5.153676e-003
3.986205e+003,5.204007e-003
3.988133e+003,5.133720e-003
3.990062e+003,5.133298e-003
3.991990e+003,5.134779e-003
3.993919e+003,5.052343e-003
3.995847e+003,5.010727e-003
3.997776e+003,5.044630e-003
3.999704e+003,5.045021e-003
4.001633e+003,0.000000e+000
