3.991989e+002,3.831030e-002
4.011274e+002,3.840910e-002
4.030559e+002,3.840910e-002
4.049844e+002,3.744821e-002
4.069129e+002,3.899047e-002
4.088414e+002,3.738913e-002
4.107699e+002,3.775283e-002
4.126984e+002,3.855968e-002
4.146269e+002,3.756676e-002
4.165554e+002,3.869197e-002
4.184839e+002,4.101861e-002
4.204124e+002,4.087171e-002
4.223409e+002,4.036132e-002
4.242694e+002,4.150608e-002
4.261979e+002,4.263262e-002
4.281264e+002,4.329209e-002
4.300549e+002,4.247858e-002
4.319834e+002,4.285211e-002
4.339119e+002,4.325681e-002
4.358404e+002,4.240059e-002
4.377689e+002,4.281707e-002
4.396974e+002,4.235192e-002
4.416259e+002,4.243614e-002
4.435544e+002,4.336084e-002
4.454829e+002,4.334047e-002
4.474114e+002,4.354606e-002
4.493399e+002,4.413331e-002
4.512684e+002,4.350677e-002
4.531969e+002,4.318415e-002
4.551254e+002,4.298059e-002
4.570539e+002,4.274015e-002
4.589824e+002,4.365816e-002
4.609109e+002,4.325967e-002
4.628394e+002,4.188021e-002
4.647679e+002,4.251650e-002
4.666964e+002,4.244658e-002
4.686249e+002,4.121038e-002
4.705533e+002,4.092380e-002
4.724819e+002,4.041149e-002
4.744103e+002,3.971371e-002
4.763389e+002,3.984440e-002
4.782673e+002,4.006288e-002
4.801959e+002,3.972528e-002
4.821243e+002,3.931310e-002
4.840529e+002,3.863569e-002
4.859813e+002,3.826502e-002
4.879099e+002,3.844038e-002
4.898383e+002,3.848190e-002
4.917668e+002,3.820063e-002
4.936953e+002,3.804499e-002
4.956238e+002,3.725189e-002
4.975523e+002,3.733764e-002
4.994808e+002,3.726897e-002
5.014093e+002,3.719405e-002
5.033378e+002,3.734494e-002
5.052663e+002,3.747956e-002
5.071948e+002,3.717669e-002
5.091233e+002,3.662197e-002
5.110518e+002,3.700353e-002
5.129803e+002,3.723972e-002
5.149088e+002,3.729632e-002
5.168373e+002,3.775067e-002
5.187658e+002,3.749904e-002
5.206943e+002,3.745441e-002
5.226228e+002,3.783567e-002
5.245513e+002,3.804318e-002
5.264798e+002,3.783031e-002
5.284083e+002,3.754002e-002
5.303368e+002,3.715859e-002
5.322653e+002,3.705461e-002
5.341938e+002,3.691606e-002
5.361223e+002,3.642298e-002
5.380508e+002,3.627500e-002
5.399792e+002,3.693428e-002
5.419078e+002,3.725241e-002
5.438363e+002,3.676337e-002
5.457648e+002,3.668440e-002
5.476932e+002,3.694457e-002
5.496218e+002,3.677719e-002
5.515503e+002,3.722096e-002
5.534788e+002,3.736895e-002
5.554072e+002,3.753022e-002
5.573358e+002,3.818840e-002
5.592643e+002,3.811038e-002
5.611927e+002,3.800412e-002
5.631212e+002,3.738175e-002
5.650497e+002,3.683536e-002
5.669783e+002,3.645337e-002
5.689067e+002,3.616460e-002
5.708352e+002,3.575929e-002
5.727637e+002,3.564994e-002
5.746923e+002,3.560784e-002
5.766207e+002,3.543574e-002
5.785492e+002,3.546159e-002
5.804777e+002,3.549671e-002
5.824063e+002,3.521306e-002
5.843347e+002,3.487945e-002
5.862632e+002,3.480051e-002
5.881917e+002,3.480783e-002
5.901202e+002,3.495651e-002
5.920487e+002,3.486909e-002
5.939772e+002,3.492203e-002
5.959057e+002,3.486537e-002
5.978342e+002,3.430726e-002
5.997627e+002,3.407316e-002
6.016912e+002,3.430945e-002
6.036197e+002,3.411911e-002
6.055482e+002,3.388669e-002
6.074767e+002,3.365872e-002
6.094052e+002,3.349338e-002
6.113337e+002,3.328423e-002
6.132622e+002,3.292608e-002
6.151907e+002,3.248446e-002
6.171192e+002,3.218758e-002
6.190477e+002,3.192341e-002
6.209762e+002,3.138212e-002
6.229047e+002,3.095721e-002
6.248332e+002,3.041245e-002
6.267617e+002,3.000931e-002
6.286902e+002,2.949842e-002
6.306187e+002,2.920890e-002
6.325472e+002,2.902529e-002
6.344756e+002,2.882211e-002
6.364042e+002,2.847243e-002
6.383326e+002,2.821926e-002
6.402612e+002,2.809018e-002
6.421896e+002,2.807316e-002
6.441182e+002,2.786272e-002
6.460466e+002,2.756417e-002
6.479752e+002,2.734029e-002
6.499036e+002,2.747608e-002
6.518322e+002,2.767986e-002
6.537606e+002,2.755250e-002
6.556891e+002,2.732754e-002
6.576177e+002,2.726627e-002
6.595461e+002,2.721311e-002
6.614746e+002,2.735894e-002
6.634031e+002,2.748435e-002
6.653317e+002,2.723779e-002
6.672601e+002,2.702800e-002
6.691886e+002,2.684777e-002
6.711171e+002,2.657641e-002
6.730457e+002,2.611176e-002
6.749741e+002,2.548404e-002
6.769026e+002,2.511891e-002
6.788311e+002,2.465457e-002
6.807596e+002,2.383892e-002
6.826881e+002,2.326793e-002
6.846166e+002,2.310909e-002
6.865451e+002,2.288155e-002
6.884736e+002,2.249509e-002
6.904021e+002,2.239352e-002
6.923306e+002,2.240014e-002
6.942591e+002,2.228554e-002
6.961876e+002,2.210210e-002
6.981161e+002,2.194268e-002
7.000446e+002,2.193360e-002
7.019731e+002,2.190362e-002
7.039016e+002,2.181524e-002
7.058301e+002,2.166717e-002
7.077585e+002,2.139357e-002
7.096871e+002,2.134610e-002
7.116156e+002,2.134922e-002
7.135441e+002,2.106638e-002
7.154725e+002,2.084982e-002
7.174011e+002,2.079405e-002
7.193296e+002,2.056593e-002
7.212581e+002,2.052923e-002
7.231865e+002,2.044019e-002
7.251151e+002,2.014873e-002
7.270436e+002,1.992271e-002
7.289720e+002,1.968536e-002
7.309005e+002,1.952621e-002
7.328290e+002,1.943713e-002
7.347576e+002,1.932987e-002
7.366860e+002,1.918298e-002
7.386145e+002,1.902165e-002
7.405430e+002,1.891273e-002
7.424716e+002,1.867992e-002
7.444000e+002,1.847256e-002
7.463285e+002,1.835929e-002
7.482570e+002,1.814572e-002
7.501855e+002,1.792173e-002
7.521140e+002,1.787859e-002
7.540425e+002,1.785997e-002
7.559710e+002,1.761075e-002
7.578995e+002,1.746204e-002
7.598280e+002,1.739241e-002
7.617565e+002,1.743877e-002
7.636850e+002,1.740631e-002
7.656135e+002,1.721511e-002
7.675420e+002,1.707142e-002
7.694705e+002,1.707183e-002
7.713990e+002,1.718319e-002
7.733275e+002,1.719291e-002
7.752560e+002,1.727879e-002
7.771844e+002,1.726072e-002
7.791130e+002,1.715861e-002
7.810415e+002,1.710336e-002
7.829700e+002,1.698823e-002
7.848984e+002,1.687024e-002
7.868270e+002,1.681502e-002
7.887555e+002,1.677087e-002
7.906840e+002,1.664436e-002
7.926124e+002,1.667363e-002
7.945410e+002,1.657685e-002
7.964695e+002,1.656714e-002
7.983979e+002,1.649707e-002
8.003264e+002,1.642573e-002
8.022549e+002,1.649159e-002
8.041835e+002,1.653021e-002
8.061119e+002,1.655038e-002
8.080404e+002,1.662078e-002
8.099689e+002,1.670468e-002
8.118975e+002,1.681292e-002
8.138259e+002,1.669700e-002
8.157545e+002,1.657881e-002
8.176830e+002,1.664167e-002
8.196115e+002,1.660535e-002
8.215399e+002,1.658401e-002
8.234684e+002,1.661324e-002
8.253970e+002,1.660356e-002
8.273254e+002,1.665948e-002
8.292539e+002,1.668406e-002
8.311824e+002,1.675558e-002
8.331110e+002,1.677004e-002
8.350394e+002,1.683634e-002
8.369679e+002,1.679477e-002
8.388964e+002,1.678427e-002
8.408250e+002,1.676271e-002
8.427534e+002,1.669181e-002
8.446819e+002,1.662994e-002
8.466104e+002,1.671329e-002
8.485389e+002,1.668891e-002
8.504674e+002,1.666884e-002
8.523959e+002,1.672875e-002
8.543244e+002,1.669855e-002
8.562529e+002,1.677511e-002
8.581814e+002,1.679618e-002
8.601099e+002,1.684292e-002
8.620384e+002,1.699661e-002
8.639669e+002,1.699785e-002
8.658954e+002,1.705129e-002
8.678239e+002,1.728424e-002
8.697524e+002,1.737607e-002
8.716809e+002,1.740445e-002
8.736094e+002,1.753235e-002
8.755378e+002,1.763386e-002
8.774664e+002,1.780194e-002
8.793949e+002,1.808123e-002
8.813234e+002,1.838068e-002
8.832518e+002,1.870203e-002
8.851804e+002,1.910224e-002
8.871089e+002,1.953435e-002
8.890374e+002,2.000679e-002
8.909658e+002,2.054599e-002
8.928943e+002,2.100994e-002
8.948229e+002,2.122662e-002
8.967513e+002,2.131225e-002
8.986798e+002,2.129284e-002
9.006083e+002,2.110134e-002
9.025369e+002,2.071000e-002
9.044653e+002,2.031768e-002
9.063938e+002,2.006519e-002
9.083223e+002,1.986179e-002
9.102509e+002,1.970151e-002
9.121793e+002,1.969502e-002
9.141078e+002,1.967339e-002
9.160364e+002,1.972734e-002
9.179648e+002,1.990660e-002
9.198933e+002,2.000888e-002
9.218218e+002,2.011832e-002
9.237504e+002,2.028511e-002
9.256788e+002,2.046013e-002
9.276073e+002,2.071364e-002
9.295358e+002,2.096011e-002
9.314644e+002,2.124756e-002
9.333928e+002,2.150415e-002
9.353213e+002,2.170369e-002
9.372498e+002,2.205083e-002
9.391783e+002,2.248756e-002
9.411068e+002,2.279604e-002
9.430353e+002,2.321105e-002
9.449637e+002,2.375298e-002
9.468923e+002,2.423442e-002
9.488208e+002,2.473319e-002
9.507493e+002,2.532831e-002
9.526777e+002,2.595685e-002
9.546063e+002,2.662480e-002
9.565348e+002,2.732385e-002
9.584633e+002,2.802501e-002
9.603917e+002,2.863985e-002
9.623203e+002,2.927075e-002
9.642488e+002,2.993520e-002
9.661772e+002,3.055961e-002
9.681057e+002,3.104307e-002
9.700343e+002,3.157844e-002
9.719628e+002,3.225621e-002
9.738912e+002,3.290184e-002
9.758197e+002,3.364340e-002
9.777483e+002,3.452106e-002
9.796768e+002,3.547801e-002
9.816052e+002,3.650273e-002
9.835337e+002,3.749332e-002
9.854623e+002,3.841258e-002
9.873907e+002,3.914592e-002
9.893192e+002,3.958659e-002
9.912477e+002,3.983267e-002
9.931763e+002,4.006055e-002
9.951047e+002,4.029003e-002
9.970332e+002,4.044784e-002
9.989617e+002,4.072098e-002
1.000890e+003,4.116055e-002
1.002819e+003,4.167343e-002
1.004747e+003,4.219970e-002
1.006676e+003,4.264560e-002
1.008604e+003,4.312291e-002
1.010533e+003,4.362625e-002
1.012461e+003,4.431069e-002
1.014390e+003,4.508281e-002
1.016318e+003,4.594610e-002
1.018247e+003,4.683273e-002
1.020175e+003,4.778808e-002
1.022104e+003,4.873468e-002
1.024032e+003,4.969400e-002
1.025961e+003,5.063866e-002
1.027889e+003,5.163755e-002
1.029818e+003,5.249628e-002
1.031746e+003,5.318097e-002
1.033675e+003,5.365764e-002
1.035603e+003,5.369243e-002
1.037532e+003,5.324947e-002
1.039460e+003,5.246790e-002
1.041389e+003,5.165945e-002
1.043317e+003,5.115783e-002
1.045246e+003,5.081149e-002
1.047174e+003,5.062068e-002
1.049103e+003,5.043583e-002
1.051031e+003,5.022756e-002
1.052960e+003,4.993968e-002
1.054888e+003,4.947142e-002
1.056817e+003,4.880055e-002
1.058745e+003,4.803812e-002
1.060674e+003,4.712207e-002
1.062602e+003,4.594039e-002
1.064531e+003,4.460856e-002
1.066459e+003,4.335263e-002
1.068388e+003,4.210514e-002
1.070316e+003,4.101811e-002
1.072245e+003,4.004017e-002
1.074173e+003,3.925337e-002
1.076102e+003,3.845222e-002
1.078030e+003,3.748971e-002
1.079959e+003,3.660221e-002
1.081887e+003,3.586095e-002
1.083816e+003,3.521379e-002
1.085744e+003,3.465016e-002
1.087673e+003,3.421748e-002
1.089601e+003,3.385544e-002
1.091530e+003,3.355912e-002
1.093458e+003,3.336322e-002
1.095387e+003,3.310426e-002
1.097315e+003,3.293000e-002
1.099244e+003,3.290781e-002
1.101172e+003,3.293025e-002
1.103101e+003,3.295699e-002
1.105029e+003,3.284651e-002
1.106958e+003,3.253753e-002
1.108886e+003,3.209047e-002
1.110815e+003,3.148371e-002
1.112743e+003,3.065457e-002
1.114672e+003,2.967018e-002
1.116600e+003,2.868915e-002
1.118529e+003,2.780538e-002
1.120457e+003,2.709932e-002
1.122386e+003,2.638141e-002
1.124314e+003,2.560169e-002
1.126243e+003,2.478795e-002
1.128171e+003,2.393581e-002
1.130100e+003,2.301029e-002
1.132028e+003,2.208147e-002
1.133957e+003,2.129224e-002
1.135885e+003,2.071486e-002
1.137814e+003,2.018906e-002
1.139742e+003,1.984427e-002
1.141671e+003,1.973226e-002
1.143599e+003,1.984074e-002
1.145528e+003,2.005971e-002
1.147456e+003,2.037285e-002
1.149385e+003,2.071795e-002
1.151313e+003,2.111898e-002
1.153242e+003,2.156164e-002
1.155170e+003,2.204079e-002
1.157099e+003,2.235809e-002
1.159027e+003,2.260842e-002
1.160956e+003,2.266762e-002
1.162884e+003,2.244566e-002
1.164813e+003,2.194079e-002
1.166741e+003,2.118000e-002
1.168670e+003,2.021152e-002
1.170598e+003,1.917017e-002
1.172526e+003,1.809858e-002
1.174455e+003,1.708055e-002
1.176384e+003,1.618890e-002
1.178312e+003,1.549133e-002
1.180240e+003,1.492047e-002
1.182169e+003,1.443040e-002
1.184098e+003,1.401966e-002
1.186026e+003,1.371329e-002
1.187954e+003,1.357416e-002
1.189883e+003,1.350412e-002
1.191812e+003,1.354587e-002
1.193740e+003,1.362992e-002
1.195668e+003,1.382113e-002
1.197597e+003,1.404742e-002
1.199526e+003,1.423197e-002
1.201454e+003,1.435904e-002
1.203382e+003,1.442299e-002
1.205311e+003,1.440571e-002
1.207240e+003,1.437150e-002
1.209168e+003,1.437254e-002
1.211096e+003,1.433814e-002
1.213025e+003,1.441698e-002
1.214953e+003,1.461926e-002
1.216882e+003,1.478159e-002
1.218810e+003,1.495029e-002
1.220739e+003,1.519792e-002
1.222667e+003,1.543878e-002
1.224596e+003,1.568957e-002
1.226524e+003,1.597238e-002
1.228453e+003,1.624881e-002
1.230381e+003,1.649250e-002
1.232310e+003,1.664260e-002
1.234238e+003,1.677654e-002
1.236167e+003,1.688566e-002
1.238095e+003,1.693243e-002
1.240024e+003,1.693819e-002
1.241952e+003,1.686694e-002
1.243881e+003,1.677900e-002
1.245809e+003,1.664930e-002
1.247738e+003,1.648193e-002
1.249666e+003,1.626104e-002
1.251595e+003,1.602805e-002
1.253523e+003,1.577915e-002
1.255452e+003,1.551488e-002
1.257380e+003,1.520921e-002
1.259309e+003,1.489992e-002
1.261237e+003,1.460365e-002
1.263166e+003,1.432696e-002
1.265094e+003,1.407109e-002
1.267023e+003,1.382803e-002
1.268951e+003,1.361828e-002
1.270880e+003,1.336456e-002
1.272808e+003,1.311739e-002
1.274737e+003,1.292844e-002
1.276665e+003,1.269533e-002
1.278594e+003,1.249571e-002
1.280522e+003,1.230253e-002
1.282451e+003,1.213111e-002
1.284379e+003,1.199177e-002
1.286308e+003,1.185697e-002
1.288236e+003,1.172171e-002
1.290165e+003,1.163587e-002
1.292093e+003,1.159419e-002
1.294022e+003,1.163626e-002
1.295950e+003,1.174962e-002
1.297879e+003,1.187199e-002
1.299807e+003,1.201477e-002
1.301736e+003,1.220413e-002
1.303664e+003,1.242703e-002
1.305593e+003,1.265546e-002
1.307521e+003,1.289748e-002
1.309450e+003,1.315872e-002
1.311378e+003,1.337346e-002
1.313307e+003,1.349240e-002
1.315235e+003,1.359797e-002
1.317164e+003,1.363685e-002
1.319092e+003,1.356439e-002
1.321021e+003,1.345507e-002
1.322949e+003,1.337206e-002
1.324878e+003,1.327288e-002
1.326806e+003,1.312030e-002
1.328735e+003,1.306899e-002
1.330663e+003,1.303790e-002
1.332592e+003,1.300314e-002
1.334520e+003,1.300274e-002
1.336449e+003,1.294237e-002
1.338377e+003,1.285475e-002
1.340306e+003,1.273966e-002
1.342234e+003,1.262981e-002
1.344163e+003,1.254817e-002
1.346091e+003,1.249849e-002
1.348020e+003,1.250566e-002
1.349948e+003,1.258371e-002
1.351877e+003,1.271576e-002
1.353805e+003,1.284246e-002
1.355734e+003,1.297420e-002
1.357662e+003,1.314630e-002
1.359591e+003,1.331357e-002
1.361519e+003,1.342855e-002
1.363448e+003,1.351592e-002
1.365376e+003,1.364597e-002
1.367305e+003,1.368657e-002
1.369233e+003,1.366050e-002
1.371162e+003,1.358662e-002
1.373090e+003,1.342786e-002
1.375019e+003,1.323560e-002
1.376947e+003,1.301073e-002
1.378876e+003,1.274274e-002
1.380804e+003,1.240180e-002
1.382733e+003,1.206927e-002
1.384661e+003,1.172738e-002
1.386590e+003,1.143482e-002
1.388518e+003,1.115066e-002
1.390447e+003,1.097972e-002
1.392375e+003,1.086268e-002
1.394304e+003,1.078322e-002
1.396232e+003,1.071962e-002
1.398161e+003,1.068358e-002
1.400089e+003,1.070940e-002
1.402018e+003,1.074922e-002
1.403946e+003,1.077821e-002
1.405875e+003,1.083685e-002
1.407803e+003,1.092170e-002
1.409732e+003,1.105341e-002
1.411660e+003,1.114696e-002
1.413589e+003,1.130080e-002
1.415517e+003,1.147812e-002
1.417446e+003,1.163687e-002
1.419374e+003,1.180954e-002
1.421303e+003,1.195301e-002
1.423231e+003,1.201320e-002
1.425160e+003,1.201919e-002
1.427088e+003,1.196270e-002
1.429017e+003,1.182268e-002
1.430945e+003,1.168325e-002
1.432874e+003,1.154415e-002
1.434802e+003,1.134797e-002
1.436731e+003,1.118231e-002
1.438659e+003,1.104739e-002
1.440588e+003,1.091513e-002
1.442516e+003,1.081659e-002
1.444445e+003,1.082493e-002
1.446373e+003,1.089903e-002
1.448302e+003,1.093043e-002
1.450230e+003,1.092477e-002
1.452159e+003,1.090982e-002
1.454087e+003,1.091121e-002
1.456016e+003,1.087120e-002
1.457944e+003,1.075449e-002
1.459873e+003,1.067448e-002
1.461801e+003,1.062043e-002
1.463730e+003,1.047596e-002
1.465658e+003,1.024914e-002
1.467587e+003,9.962776e-003
1.469515e+003,9.628642e-003
1.471444e+003,9.244745e-003
1.473372e+003,8.911501e-003
1.475301e+003,8.678143e-003
1.477229e+003,8.511787e-003
1.479158e+003,8.384067e-003
1.481086e+003,8.243009e-003
1.483015e+003,8.165338e-003
1.484943e+003,8.191256e-003
1.486872e+003,8.239259e-003
1.488800e+003,8.310147e-003
1.490729e+003,8.461113e-003
1.492657e+003,8.608798e-003
1.494586e+003,8.750776e-003
1.496514e+003,8.926116e-003
1.498443e+003,9.027611e-003
1.500371e+003,9.101928e-003
1.502300e+003,9.224945e-003
1.504228e+003,9.286547e-003
1.506157e+003,9.310170e-003
1.508085e+003,9.345597e-003
1.510014e+003,9.378868e-003
1.511942e+003,9.365194e-003
1.513871e+003,9.326043e-003
1.515799e+003,9.230400e-003
1.517728e+003,9.036155e-003
1.519656e+003,8.784551e-003
1.521585e+003,8.529274e-003
1.523513e+003,8.329069e-003
1.525442e+003,8.195053e-003
1.527370e+003,8.141911e-003
1.529299e+003,8.063692e-003
1.531227e+003,8.012584e-003
1.533156e+003,8.014061e-003
1.535084e+003,8.034553e-003
1.537013e+003,8.007470e-003
1.538941e+003,7.954522e-003
1.540870e+003,7.955144e-003
1.542798e+003,7.972888e-003
1.544727e+003,7.955243e-003
1.546655e+003,7.932616e-003
1.548584e+003,7.918134e-003
1.550512e+003,7.964908e-003
1.552441e+003,8.002374e-003
1.554369e+003,7.996022e-003
1.556298e+003,7.992638e-003
1.558226e+003,7.992533e-003
1.560155e+003,8.055137e-003
1.562083e+003,8.096005e-003
1.564012e+003,8.103919e-003
1.565940e+003,8.158779e-003
1.567869e+003,8.224424e-003
1.569797e+003,8.302300e-003
1.571726e+003,8.411021e-003
1.573654e+003,8.503213e-003
1.575583e+003,8.621103e-003
1.577511e+003,8.742520e-003
1.579440e+003,8.866332e-003
1.581368e+003,9.069344e-003
1.583297e+003,9.239566e-003
1.585225e+003,9.393909e-003
1.587154e+003,9.540754e-003
1.589082e+003,9.694587e-003
1.591010e+003,9.828428e-003
1.592939e+003,9.868189e-003
1.594868e+003,9.893313e-003
1.596796e+003,9.888843e-003
1.598724e+003,9.887991e-003
1.600653e+003,9.913733e-003
1.602582e+003,9.939874e-003
1.604510e+003,9.897955e-003
1.606438e+003,9.858874e-003
1.608367e+003,9.837383e-003
1.610296e+003,9.772599e-003
1.612224e+003,9.787808e-003
1.614152e+003,9.831582e-003
1.616081e+003,9.874824e-003
1.618010e+003,9.956387e-003
1.619938e+003,1.001950e-002
1.621866e+003,1.007813e-002
1.623795e+003,1.015216e-002
1.625724e+003,1.022198e-002
1.627652e+003,1.027276e-002
1.629580e+003,1.025153e-002
1.631509e+003,1.023754e-002
1.633438e+003,1.025008e-002
1.635366e+003,1.021611e-002
1.637294e+003,1.015386e-002
1.639223e+003,1.009194e-002
1.641151e+003,1.002581e-002
1.643080e+003,1.000718e-002
1.645008e+003,1.000630e-002
1.646937e+003,9.993563e-003
1.648865e+003,9.990376e-003
1.650794e+003,9.967879e-003
1.652722e+003,9.906883e-003
1.654651e+003,9.859563e-003
1.656579e+003,9.758123e-003
1.658508e+003,9.627448e-003
1.660436e+003,9.455990e-003
1.662365e+003,9.228530e-003
1.664293e+003,9.066899e-003
1.666222e+003,8.940017e-003
1.668150e+003,8.775871e-003
1.670079e+003,8.654546e-003
1.672007e+003,8.592698e-003
1.673936e+003,8.504446e-003
1.675864e+003,8.449253e-003
1.677793e+003,8.382414e-003
1.679721e+003,8.267423e-003
1.681650e+003,8.209066e-003
1.683578e+003,8.197991e-003
1.685507e+003,8.179622e-003
1.687435e+003,8.104110e-003
1.689364e+003,8.074305e-003
1.691292e+003,8.059928e-003
1.693221e+003,8.052842e-003
1.695149e+003,8.104910e-003
1.697078e+003,8.105061e-003
1.699006e+003,8.053282e-003
1.700935e+003,8.051140e-003
1.702863e+003,8.090235e-003
1.704792e+003,8.158542e-003
1.706720e+003,8.266175e-003
1.708649e+003,8.361291e-003
1.710577e+003,8.411075e-003
1.712506e+003,8.508435e-003
1.714434e+003,8.635880e-003
1.716363e+003,8.752779e-003
1.718291e+003,8.861438e-003
1.720220e+003,8.944463e-003
1.722148e+003,8.993581e-003
1.724077e+003,9.031998e-003
1.726005e+003,9.060568e-003
1.727934e+003,9.067976e-003
1.729862e+003,9.064683e-003
1.731791e+003,9.028579e-003
1.733719e+003,8.948103e-003
1.735648e+003,8.854605e-003
1.737576e+003,8.709301e-003
1.739505e+003,8.541197e-003
1.741433e+003,8.312789e-003
1.743362e+003,8.042153e-003
1.745290e+003,7.814516e-003
1.747219e+003,7.572831e-003
1.749147e+003,7.366516e-003
1.751076e+003,7.140136e-003
1.753004e+003,6.945895e-003
1.754933e+003,6.798690e-003
1.756861e+003,6.654610e-003
1.758790e+003,6.534752e-003
1.760718e+003,6.398747e-003
1.762647e+003,6.276187e-003
1.764575e+003,6.230738e-003
1.766504e+003,6.196237e-003
1.768432e+003,6.079164e-003
1.770361e+003,6.037093e-003
1.772289e+003,6.015775e-003
1.774218e+003,5.974960e-003
1.776146e+003,5.942310e-003
1.778075e+003,5.919718e-003
1.780003e+003,5.877224e-003
1.781932e+003,5.864553e-003
1.783860e+003,5.848602e-003
1.785789e+003,5.848155e-003
1.787717e+003,5.790941e-003
1.789646e+003,5.786506e-003
1.791574e+003,5.831114e-003
1.793503e+003,5.815688e-003
1.795431e+003,5.782984e-003
1.797360e+003,5.783126e-003
1.799288e+003,5.807916e-003
1.801217e+003,5.860198e-003
1.803145e+003,5.871903e-003
1.805074e+003,5.783482e-003
1.807002e+003,5.801917e-003
1.808931e+003,5.865570e-003
1.810859e+003,5.751811e-003
1.812788e+003,5.689260e-003
1.814716e+003,5.659271e-003
1.816645e+003,5.688675e-003
1.818573e+003,5.724314e-003
1.820502e+003,5.779079e-003
1.822430e+003,5.736070e-003
1.824359e+003,5.641172e-003
1.826287e+003,5.642656e-003
1.828216e+003,5.606167e-003
1.830144e+003,5.584310e-003
1.832073e+003,5.616379e-003
1.834001e+003,5.632066e-003
1.835930e+003,5.639535e-003
1.837858e+003,5.648553e-003
1.839787e+003,5.656622e-003
1.841715e+003,5.717529e-003
1.843644e+003,5.789965e-003
1.845572e+003,5.697101e-003
1.847501e+003,5.691267e-003
1.849429e+003,5.725993e-003
1.851358e+003,5.727093e-003
1.853286e+003,5.736831e-003
1.855215e+003,5.823135e-003
1.857143e+003,5.748669e-003
1.859072e+003,5.677836e-003
1.861000e+003,5.705126e-003
1.862929e+003,5.750287e-003
1.864857e+003,5.591803e-003
1.866786e+003,5.624473e-003
1.868714e+003,5.675134e-003
1.870643e+003,5.580296e-003
1.872571e+003,5.617250e-003
1.874500e+003,5.650074e-003
1.876428e+003,5.674323e-003
1.878357e+003,5.676270e-003
1.880285e+003,5.670198e-003
1.882214e+003,5.665404e-003
1.884142e+003,5.607712e-003
1.886071e+003,5.565738e-003
1.887999e+003,5.568367e-003
1.889928e+003,5.522702e-003
1.891856e+003,5.437791e-003
1.893785e+003,5.651944e-003
1.895713e+003,5.615032e-003
1.897642e+003,5.495334e-003
1.899570e+003,5.490171e-003
1.901499e+003,5.223491e-003
1.903427e+003,5.157679e-003
1.905356e+003,5.202766e-003
1.907284e+003,5.405854e-003
1.909213e+003,5.371563e-003
1.911141e+003,5.199554e-003
1.913070e+003,4.996873e-003
1.914998e+003,5.127660e-003
1.916927e+003,5.101667e-003
1.918855e+003,4.896814e-003
1.920784e+003,4.878643e-003
1.922712e+003,4.898246e-003
1.924641e+003,4.865164e-003
1.926569e+003,4.777262e-003
1.928498e+003,4.591788e-003
1.930426e+003,4.742015e-003
1.932355e+003,4.696118e-003
1.934283e+003,4.149857e-003
1.936212e+003,3.812482e-003
1.938140e+003,3.664999e-003
1.940069e+003,3.579418e-003
1.941997e+003,3.830961e-003
1.943926e+003,3.796282e-003
1.945854e+003,4.018808e-003
1.947783e+003,3.802427e-003
1.949711e+003,3.350773e-003
1.951640e+003,3.171897e-003
1.953568e+003,3.369179e-003
1.955497e+003,2.901952e-003
1.957425e+003,2.065689e-003
1.959354e+003,2.024214e-003
1.961282e+003,2.072256e-003
1.963211e+003,2.486750e-003
1.965139e+003,1.996666e-003
1.967068e+003,1.734981e-003
1.968996e+003,2.254055e-003
1.970925e+003,1.893924e-003
1.972853e+003,1.205148e-003
1.974782e+003,7.958282e-004
1.976710e+003,1.127156e-003
1.978639e+003,8.262992e-004
1.980567e+003,3.075267e-004
1.982496e+003,1.295316e-003
1.984424e+003,1.507374e-003
1.986353e+003,1.392189e-003
1.988281e+003,1.561135e-003
1.990210e+003,1.992872e-003
1.992138e+003,2.571880e-003
1.994067e+003,2.367616e-003
1.995995e+003,1.466116e-003
1.997924e+003,1.476181e-003
1.999852e+003,9.958970e-004
2.001781e+003,1.251511e-003
2.003709e+003,1.839316e-003
2.005638e+003,1.109207e-003
2.007566e+003,8.679769e-004
2.009495e+003,8.970418e-004
2.011423e+003,8.069030e-005
2.013352e+003,1.638237e-004
2.015280e+003,4.935307e-004
2.017208e+003,5.335016e-004
2.019137e+003,1.123262e-003
2.021066e+003,1.671852e-003
2.022994e+003,1.077324e-003
2.024922e+003,1.095135e-003
2.026851e+003,9.587354e-004
2.028780e+003,1.793478e-004
2.030708e+003,8.941988e-004
2.032636e+003,1.832651e-003
2.034565e+003,2.169485e-003
2.036494e+003,1.756628e-003
2.038422e+003,2.168981e-003
2.040350e+003,2.771547e-003
2.042279e+003,2.770176e-003
2.044208e+003,2.519459e-003
2.046136e+003,2.683542e-003
2.048064e+003,3.552459e-003
2.049993e+003,4.258080e-003
2.051921e+003,4.056446e-003
2.053850e+003,4.081792e-003
2.055778e+003,4.425871e-003
2.057707e+003,4.270169e-003
2.059635e+003,4.475787e-003
2.061564e+003,4.955437e-003
2.063492e+003,4.796047e-003
2.065421e+003,4.205023e-003
2.067349e+003,4.532828e-003
2.069278e+003,4.385739e-003
2.071206e+003,4.060198e-003
2.073135e+003,4.406472e-003
2.075063e+003,4.444924e-003
2.076992e+003,4.629713e-003
2.078920e+003,4.804436e-003
2.080849e+003,4.979031e-003
2.082777e+003,4.958352e-003
2.084706e+003,4.781067e-003
2.086634e+003,4.738286e-003
2.088563e+003,4.704224e-003
2.090491e+003,4.784039e-003
2.092420e+003,4.665476e-003
2.094348e+003,4.378206e-003
2.096277e+003,4.342221e-003
2.098205e+003,4.391581e-003
2.100134e+003,4.713489e-003
2.102062e+003,4.527460e-003
2.103991e+003,4.380703e-003
2.105919e+003,4.281744e-003
2.107848e+003,4.432384e-003
2.109776e+003,4.432350e-003
2.111705e+003,4.206795e-003
2.113633e+003,4.348339e-003
2.115562e+003,4.521233e-003
2.117490e+003,4.435732e-003
2.119419e+003,4.601896e-003
2.121347e+003,4.546646e-003
2.123276e+003,4.222821e-003
2.125204e+003,4.100817e-003
2.127133e+003,3.978748e-003
2.129061e+003,3.722681e-003
2.130990e+003,3.514395e-003
2.132918e+003,3.018440e-003
2.134847e+003,3.114809e-003
2.136775e+003,3.098857e-003
2.138704e+003,2.939338e-003
2.140632e+003,2.771441e-003
2.142561e+003,2.203427e-003
2.144489e+003,2.093243e-003
2.146418e+003,1.698321e-003
2.148346e+003,9.665676e-004
2.150275e+003,9.810133e-004
2.152203e+003,1.113205e-003
2.154132e+003,8.062364e-004
2.156060e+003,1.201275e-004
2.157989e+003,-1.857162e-003
2.159917e+003,-1.425338e-003
2.161846e+003,-1.636844e-004
2.163774e+003,1.310172e-003
2.165703e+003,2.680515e-003
2.167631e+003,2.382499e-003
2.169560e+003,2.254317e-003
2.171488e+003,2.653612e-003
2.173417e+003,2.897841e-003
2.175345e+003,3.160832e-003
2.177274e+003,2.745932e-003
2.179202e+003,2.002925e-003
2.181131e+003,2.128137e-003
2.183059e+003,2.851946e-003
2.184988e+003,3.412494e-003
2.186916e+003,3.956913e-003
2.188845e+003,4.102891e-003
2.190773e+003,4.289976e-003
2.192702e+003,4.016469e-003
2.194630e+003,4.006737e-003
2.196559e+003,4.406075e-003
2.198487e+003,4.531813e-003
2.200416e+003,3.597978e-003
2.202344e+003,3.252092e-003
2.204273e+003,3.593601e-003
2.206201e+003,4.401790e-003
2.208130e+003,4.473492e-003
2.210058e+003,4.690411e-003
2.211987e+003,4.886696e-003
2.213915e+003,4.559336e-003
2.215844e+003,4.416015e-003
2.217772e+003,4.984787e-003
2.219701e+003,5.350641e-003
2.221629e+003,5.364427e-003
2.223558e+003,5.426827e-003
2.225486e+003,5.336988e-003
2.227415e+003,5.640967e-003
2.229343e+003,5.562158e-003
2.231272e+003,5.742146e-003
2.233200e+003,5.842575e-003
2.235129e+003,5.801801e-003
2.237057e+003,5.697274e-003
2.238986e+003,5.521531e-003
2.240914e+003,5.593602e-003
2.242843e+003,5.683192e-003
2.244771e+003,6.087301e-003
2.246700e+003,5.834481e-003
2.248628e+003,5.682089e-003
2.250557e+003,6.088908e-003
2.252485e+003,5.920928e-003
2.254414e+003,5.935402e-003
2.256342e+003,6.328114e-003
2.258271e+003,6.300529e-003
2.260199e+003,6.454816e-003
2.262128e+003,6.675240e-003
2.264056e+003,6.643045e-003
2.265985e+003,6.412159e-003
2.267913e+003,6.310286e-003
2.269842e+003,6.380009e-003
2.271770e+003,6.327613e-003
2.273699e+003,6.265195e-003
2.275627e+003,6.203213e-003
2.277556e+003,6.216354e-003
2.279484e+003,6.421254e-003
2.281413e+003,6.433121e-003
2.283341e+003,6.377290e-003
2.285270e+003,6.455244e-003
2.287198e+003,6.332705e-003
2.289127e+003,6.326823e-003
2.291055e+003,6.311992e-003
2.292984e+003,6.327042e-003
2.294912e+003,6.354997e-003
2.296841e+003,6.213338e-003
2.298769e+003,6.049155e-003
2.300698e+003,5.868563e-003
2.302626e+003,6.012526e-003
2.304555e+003,6.151584e-003
2.306483e+003,6.120980e-003
2.308412e+003,5.826293e-003
2.310340e+003,5.668836e-003
2.312269e+003,5.873082e-003
2.314197e+003,6.299710e-003
2.316125e+003,6.308699e-003
2.318054e+003,6.002788e-003
2.319983e+003,5.695987e-003
2.321911e+003,5.701996e-003
2.323840e+003,5.840581e-003
2.325768e+003,5.879537e-003
2.327697e+003,6.117790e-003
2.329625e+003,6.204833e-003
2.331553e+003,5.851196e-003
2.333482e+003,6.011707e-003
2.335411e+003,6.325384e-003
2.337339e+003,6.404840e-003
2.339268e+003,6.469726e-003
2.341196e+003,6.801134e-003
2.343125e+003,6.605536e-003
2.345053e+003,6.808021e-003
2.346981e+003,6.684599e-003
2.348910e+003,6.846498e-003
2.350839e+003,6.851504e-003
2.352767e+003,6.621473e-003
2.354696e+003,7.024853e-003
2.356624e+003,7.067970e-003
2.358552e+003,6.750078e-003
2.360481e+003,6.866982e-003
2.362409e+003,7.215593e-003
2.364338e+003,7.742577e-003
2.366267e+003,7.513691e-003
2.368195e+003,7.196842e-003
2.370124e+003,7.255211e-003
2.372052e+003,7.355053e-003
2.373980e+003,7.500517e-003
2.375909e+003,7.679503e-003
2.377838e+003,7.622547e-003
2.379766e+003,7.341540e-003
2.381695e+003,7.140242e-003
2.383623e+003,7.037214e-003
2.385552e+003,7.023341e-003
2.387480e+003,7.054278e-003
2.389408e+003,7.063415e-003
2.391337e+003,7.058578e-003
2.393266e+003,6.944679e-003
2.395194e+003,6.793082e-003
2.397123e+003,6.704351e-003
2.399051e+003,6.639323e-003
2.400979e+003,6.577326e-003
2.402908e+003,6.517418e-003
2.404836e+003,6.526197e-003
2.406765e+003,6.461722e-003
2.408694e+003,6.431119e-003
2.410622e+003,6.364708e-003
2.412551e+003,6.270103e-003
2.414479e+003,6.161436e-003
2.416407e+003,6.096814e-003
2.418336e+003,6.053637e-003
2.420264e+003,5.984092e-003
2.422193e+003,6.222808e-003
2.424122e+003,6.370592e-003
2.426050e+003,6.268792e-003
2.427979e+003,6.225699e-003
2.429907e+003,6.245933e-003
2.431835e+003,6.312696e-003
2.433764e+003,6.285835e-003
2.435692e+003,6.270036e-003
2.437621e+003,6.469121e-003
2.439550e+003,6.484457e-003
2.441478e+003,6.311318e-003
2.443406e+003,6.253900e-003
2.445335e+003,6.374761e-003
2.447263e+003,6.363868e-003
2.449192e+003,6.214002e-003
2.451121e+003,6.104072e-003
2.453049e+003,6.138147e-003
2.454978e+003,6.304829e-003
2.456906e+003,6.335121e-003
2.458834e+003,6.261060e-003
2.460763e+003,6.201633e-003
2.462691e+003,6.265296e-003
2.464620e+003,6.379906e-003
2.466549e+003,6.288726e-003
2.468477e+003,6.188155e-003
2.470406e+003,6.211817e-003
2.472334e+003,6.342316e-003
2.474262e+003,6.307754e-003
2.476191e+003,6.259951e-003
2.478119e+003,6.348738e-003
2.480048e+003,6.389153e-003
2.481977e+003,6.408791e-003
2.483905e+003,6.344232e-003
2.485833e+003,6.160663e-003
2.487762e+003,6.178812e-003
2.489690e+003,6.384782e-003
2.491619e+003,6.355764e-003
2.493547e+003,6.444066e-003
2.495476e+003,6.380814e-003
2.497405e+003,6.383369e-003
2.499333e+003,6.418139e-003
2.501261e+003,6.418172e-003
2.503190e+003,6.409362e-003
2.505118e+003,6.346720e-003
2.507047e+003,6.318849e-003
2.508975e+003,6.255648e-003
2.510904e+003,6.353478e-003
2.512833e+003,6.442889e-003
2.514761e+003,6.531680e-003
2.516689e+003,6.459065e-003
2.518618e+003,6.330347e-003
2.520546e+003,6.265430e-003
2.522475e+003,6.312730e-003
2.524403e+003,6.275549e-003
2.526332e+003,6.219749e-003
2.528260e+003,6.320294e-003
2.530189e+003,6.251144e-003
2.532117e+003,6.130384e-003
2.534046e+003,6.224993e-003
2.535974e+003,6.308830e-003
2.537903e+003,6.224791e-003
2.539831e+003,6.178240e-003
2.541760e+003,6.246371e-003
2.543688e+003,6.330347e-003
2.545617e+003,6.274305e-003
2.547545e+003,6.251144e-003
2.549474e+003,6.340198e-003
2.551402e+003,6.386564e-003
2.553331e+003,6.456442e-003
2.555259e+003,6.411952e-003
2.557188e+003,6.358320e-003
2.559116e+003,6.326245e-003
2.561045e+003,6.333675e-003
2.562973e+003,6.400485e-003
2.564902e+003,6.445142e-003
2.566830e+003,6.380478e-003
2.568759e+003,6.464950e-003
2.570687e+003,6.447833e-003
2.572616e+003,6.366288e-003
2.574544e+003,6.483683e-003
2.576473e+003,6.552366e-003
2.578401e+003,6.574736e-003
2.580330e+003,6.589840e-003
2.582258e+003,6.675565e-003
2.584187e+003,6.684751e-003
2.586115e+003,6.739735e-003
2.588044e+003,6.785303e-003
2.589972e+003,6.903450e-003
2.591901e+003,6.932336e-003
2.593829e+003,6.855178e-003
2.595758e+003,6.921091e-003
2.597686e+003,6.977250e-003
2.599615e+003,7.086189e-003
2.601543e+003,7.162984e-003
2.603472e+003,7.193436e-003
2.605400e+003,7.241208e-003
2.607329e+003,7.213279e-003
2.609257e+003,7.301418e-003
2.611186e+003,7.333093e-003
2.613114e+003,7.186396e-003
2.615043e+003,7.246598e-003
2.616971e+003,7.327095e-003
2.618900e+003,7.354256e-003
2.620828e+003,7.432480e-003
2.622757e+003,7.561728e-003
2.624685e+003,7.561661e-003
2.626614e+003,7.584825e-003
2.628542e+003,7.558694e-003
2.630471e+003,7.625355e-003
2.632399e+003,7.629739e-003
2.634328e+003,7.597165e-003
2.636256e+003,7.618914e-003
2.638185e+003,7.657290e-003
2.640113e+003,7.681032e-003
2.642042e+003,7.689261e-003
2.643970e+003,7.667070e-003
2.645899e+003,7.677997e-003
2.647827e+003,7.707204e-003
2.649756e+003,7.703763e-003
2.651684e+003,7.671049e-003
2.653613e+003,7.718907e-003
2.655541e+003,7.690711e-003
2.657470e+003,7.648489e-003
2.659398e+003,7.647848e-003
2.661327e+003,7.630514e-003
2.663255e+003,7.612407e-003
2.665184e+003,7.584757e-003
2.667112e+003,7.582801e-003
2.669041e+003,7.587252e-003
2.670969e+003,7.526901e-003
2.672898e+003,7.495785e-003
2.674826e+003,7.478694e-003
2.676755e+003,7.419133e-003
2.678683e+003,7.455401e-003
2.680612e+003,7.486986e-003
2.682540e+003,7.452806e-003
2.684469e+003,7.444817e-003
2.686397e+003,7.430424e-003
2.688326e+003,7.453412e-003
2.690254e+003,7.463289e-003
2.692183e+003,7.441581e-003
2.694111e+003,7.423245e-003
2.696040e+003,7.488773e-003
2.697968e+003,7.470064e-003
2.699897e+003,7.455772e-003
2.701825e+003,7.527710e-003
2.703754e+003,7.508730e-003
2.705682e+003,7.504482e-003
2.707611e+003,7.533206e-003
2.709539e+003,7.544466e-003
2.711468e+003,7.534857e-003
2.713396e+003,7.560413e-003
2.715325e+003,7.573833e-003
2.717253e+003,7.590961e-003
2.719182e+003,7.667441e-003
2.721110e+003,7.638304e-003
2.723039e+003,7.538600e-003
2.724967e+003,7.562639e-003
2.726896e+003,7.602594e-003
2.728824e+003,7.605595e-003
2.730753e+003,7.605258e-003
2.732681e+003,7.600133e-003
2.734610e+003,7.605966e-003
2.736538e+003,7.613486e-003
2.738467e+003,7.659280e-003
2.740395e+003,7.698704e-003
2.742324e+003,7.686563e-003
2.744252e+003,7.674523e-003
2.746181e+003,7.695770e-003
2.748109e+003,7.709430e-003
2.750038e+003,7.709868e-003
2.751966e+003,7.693072e-003
2.753895e+003,7.718469e-003
2.755823e+003,7.739043e-003
2.757752e+003,7.742450e-003
2.759680e+003,7.821251e-003
2.761609e+003,7.828504e-003
2.763537e+003,7.819125e-003
2.765466e+003,7.841965e-003
2.767394e+003,7.849286e-003
2.769323e+003,7.839131e-003
2.771251e+003,7.839064e-003
2.773180e+003,7.831001e-003
2.775108e+003,7.879821e-003
2.777037e+003,7.914170e-003
2.778965e+003,7.946902e-003
2.780894e+003,7.941807e-003
2.782822e+003,7.915385e-003
2.784750e+003,7.925102e-003
2.786679e+003,7.946733e-003
2.788608e+003,7.944033e-003
2.790536e+003,7.941908e-003
2.792465e+003,7.936982e-003
2.794393e+003,7.995296e-003
2.796322e+003,8.045722e-003
2.798250e+003,8.030465e-003
2.800178e+003,8.028879e-003
2.802107e+003,8.010079e-003
2.804036e+003,8.082312e-003
2.805964e+003,8.166846e-003
2.807893e+003,8.137507e-003
2.809821e+003,8.114787e-003
2.811750e+003,8.112964e-003
2.813678e+003,8.086970e-003
2.815606e+003,8.128021e-003
2.817535e+003,8.161276e-003
2.819464e+003,8.183931e-003
2.821392e+003,8.223065e-003
2.823321e+003,8.235728e-003
2.825249e+003,8.257442e-003
2.827177e+003,8.296989e-003
2.829106e+003,8.278414e-003
2.831034e+003,8.331945e-003
2.832963e+003,8.394705e-003
2.834892e+003,8.460177e-003
2.836820e+003,8.498830e-003
2.838749e+003,8.520185e-003
2.840677e+003,8.567731e-003
2.842605e+003,8.655605e-003
2.844534e+003,8.696607e-003
2.846462e+003,8.721319e-003
2.848391e+003,8.742549e-003
2.850320e+003,8.808818e-003
2.852248e+003,8.882164e-003
2.854177e+003,8.907969e-003
2.856105e+003,8.944090e-003
2.858033e+003,9.012318e-003
2.859962e+003,9.063944e-003
2.861890e+003,9.110873e-003
2.863819e+003,9.124408e-003
2.865748e+003,9.182544e-003
2.867676e+003,9.269629e-003
2.869604e+003,9.196081e-003
2.871533e+003,9.196758e-003
2.873461e+003,9.259982e-003
2.875390e+003,9.222581e-003
2.877319e+003,9.205963e-003
2.879247e+003,9.264077e-003
2.881176e+003,9.290853e-003
2.883104e+003,9.256327e-003
2.885032e+003,9.244344e-003
2.886961e+003,9.311400e-003
2.888889e+003,9.373049e-003
2.890818e+003,9.357509e-003
2.892747e+003,9.322978e-003
2.894675e+003,9.297250e-003
2.896604e+003,9.267835e-003
2.898532e+003,9.207554e-003
2.900460e+003,9.250402e-003
2.902389e+003,9.258323e-003
2.904317e+003,9.239910e-003
2.906246e+003,9.188129e-003
2.908175e+003,9.139094e-003
2.910103e+003,9.106203e-003
2.912031e+003,9.082620e-003
2.913960e+003,9.061880e-003
2.915888e+003,9.013367e-003
2.917817e+003,9.055486e-003
2.919745e+003,9.051663e-003
2.921674e+003,8.996960e-003
2.923603e+003,8.923459e-003
2.925531e+003,8.888421e-003
2.927459e+003,8.883990e-003
2.929388e+003,8.829715e-003
2.931316e+003,8.761246e-003
2.933245e+003,8.719256e-003
2.935173e+003,8.663051e-003
2.937102e+003,8.585713e-003
2.939031e+003,8.569338e-003
2.940959e+003,8.531295e-003
2.942887e+003,8.458300e-003
2.944816e+003,8.385925e-003
2.946744e+003,8.300496e-003
2.948673e+003,8.185335e-003
2.950601e+003,8.155260e-003
2.952530e+003,8.104919e-003
2.954458e+003,8.007071e-003
2.956387e+003,7.935470e-003
2.958315e+003,7.953173e-003
2.960244e+003,7.922944e-003
2.962172e+003,7.798703e-003
2.964101e+003,7.691903e-003
2.966029e+003,7.731776e-003
2.967958e+003,7.746029e-003
2.969886e+003,7.696352e-003
2.971815e+003,7.640383e-003
2.973743e+003,7.637770e-003
2.975672e+003,7.656956e-003
2.977600e+003,7.653756e-003
2.979529e+003,7.675685e-003
2.981457e+003,7.656188e-003
2.983386e+003,7.649006e-003
2.985314e+003,7.618289e-003
2.987243e+003,7.545993e-003
2.989171e+003,7.522284e-003
2.991100e+003,7.489047e-003
2.993028e+003,7.479099e-003
2.994957e+003,7.482808e-003
2.996885e+003,7.523544e-003
2.998814e+003,7.512134e-003
3.000742e+003,7.544775e-003
3.002671e+003,7.527259e-003
3.004599e+003,7.524361e-003
3.006528e+003,7.521978e-003
3.008456e+003,7.525294e-003
3.010385e+003,7.553850e-003
3.012313e+003,7.594990e-003
3.014242e+003,7.556803e-003
3.016170e+003,7.517026e-003
3.018099e+003,7.506732e-003
3.020027e+003,7.555933e-003
3.021956e+003,7.566387e-003
3.023884e+003,7.602020e-003
3.025813e+003,7.589024e-003
3.027741e+003,7.588818e-003
3.029670e+003,7.635114e-003
3.031598e+003,7.685768e-003
3.033527e+003,7.688227e-003
3.035455e+003,7.659992e-003
3.037384e+003,7.657306e-003
3.039312e+003,7.687903e-003
3.041241e+003,7.736299e-003
3.043169e+003,7.742574e-003
3.045098e+003,7.750590e-003
3.047026e+003,7.766162e-003
3.048955e+003,7.794461e-003
3.050883e+003,7.804968e-003
3.052812e+003,7.898770e-003
3.054740e+003,7.976619e-003
3.056669e+003,7.964274e-003
3.058597e+003,7.984407e-003
3.060526e+003,7.984020e-003
3.062454e+003,7.973107e-003
3.064383e+003,7.998431e-003
3.066311e+003,8.095007e-003
3.068240e+003,8.070546e-003
3.070168e+003,8.109270e-003
3.072097e+003,8.136086e-003
3.074025e+003,8.107846e-003
3.075954e+003,8.115604e-003
3.077882e+003,8.183248e-003
3.079811e+003,8.220519e-003
3.081739e+003,8.266350e-003
3.083668e+003,8.181580e-003
3.085596e+003,8.164581e-003
3.087525e+003,8.196751e-003
3.089453e+003,8.239975e-003
3.091382e+003,8.300262e-003
3.093310e+003,8.371672e-003
3.095239e+003,8.441596e-003
3.097167e+003,8.505263e-003
3.099096e+003,8.475572e-003
3.101024e+003,8.380967e-003
3.102953e+003,8.355666e-003
3.104881e+003,8.409590e-003
3.106810e+003,8.501508e-003
3.108738e+003,8.547841e-003
3.110667e+003,8.586431e-003
3.112595e+003,8.592829e-003
3.114524e+003,8.593701e-003
3.116452e+003,8.586304e-003
3.118381e+003,8.613423e-003
3.120309e+003,8.661684e-003
3.122238e+003,8.699043e-003
3.124166e+003,8.681658e-003
3.126095e+003,8.738896e-003
3.128023e+003,8.853214e-003
3.129952e+003,8.858075e-003
3.131880e+003,8.842602e-003
3.133809e+003,8.899562e-003
3.135737e+003,8.945988e-003
3.137666e+003,8.892482e-003
3.139594e+003,8.945088e-003
3.141523e+003,9.022392e-003
3.143451e+003,9.054519e-003
3.145380e+003,9.062687e-003
3.147308e+003,9.118389e-003
3.149237e+003,9.114005e-003
3.151165e+003,9.102206e-003
3.153094e+003,9.237316e-003
3.155022e+003,9.332287e-003
3.156951e+003,9.325379e-003
3.158879e+003,9.308830e-003
3.160808e+003,9.286941e-003
3.162736e+003,9.357114e-003
3.164665e+003,9.427759e-003
3.166593e+003,9.470616e-003
3.168522e+003,9.480903e-003
3.170450e+003,9.447267e-003
3.172379e+003,9.494872e-003
3.174307e+003,9.592153e-003
3.176236e+003,9.665891e-003
3.178164e+003,9.606199e-003
3.180093e+003,9.651535e-003
3.182021e+003,9.734836e-003
3.183950e+003,9.766240e-003
3.185878e+003,9.795306e-003
3.187807e+003,9.891764e-003
3.189735e+003,9.937541e-003
3.191664e+003,9.943006e-003
3.193592e+003,9.998043e-003
3.195521e+003,1.004047e-002
3.197449e+003,1.008772e-002
3.199378e+003,1.009241e-002
3.201306e+003,1.013749e-002
3.203235e+003,1.021725e-002
3.205163e+003,1.024992e-002
3.207092e+003,1.030862e-002
3.209020e+003,1.042665e-002
3.210948e+003,1.050197e-002
3.212877e+003,1.058661e-002
3.214806e+003,1.060980e-002
3.216734e+003,1.056909e-002
3.218663e+003,1.059589e-002
3.220591e+003,1.069490e-002
3.222520e+003,1.074686e-002
3.224448e+003,1.082150e-002
3.226376e+003,1.084223e-002
3.228305e+003,1.085183e-002
3.230234e+003,1.092923e-002
3.232162e+003,1.098990e-002
3.234091e+003,1.104068e-002
3.236019e+003,1.111677e-002
3.237948e+003,1.116444e-002
3.239876e+003,1.119296e-002
3.241804e+003,1.124349e-002
3.243733e+003,1.130509e-002
3.245662e+003,1.141090e-002
3.247590e+003,1.150367e-002
3.249519e+003,1.154879e-002
3.251447e+003,1.151912e-002
3.253375e+003,1.155654e-002
3.255304e+003,1.158818e-002
3.257232e+003,1.169726e-002
3.259161e+003,1.184687e-002
3.261090e+003,1.191953e-002
3.263018e+003,1.195658e-002
3.264947e+003,1.199996e-002
3.266875e+003,1.207977e-002
3.268803e+003,1.211308e-002
3.270732e+003,1.214531e-002
3.272660e+003,1.217944e-002
3.274589e+003,1.215072e-002
3.276518e+003,1.210252e-002
3.278446e+003,1.217846e-002
3.280375e+003,1.224411e-002
3.282303e+003,1.229948e-002
3.284231e+003,1.231041e-002
3.286160e+003,1.226984e-002
3.288088e+003,1.224962e-002
3.290017e+003,1.226576e-002
3.291946e+003,1.232650e-002
3.293874e+003,1.242086e-002
3.295802e+003,1.247751e-002
3.297731e+003,1.241318e-002
3.299659e+003,1.239257e-002
3.301588e+003,1.239366e-002
3.303516e+003,1.239714e-002
3.305445e+003,1.240968e-002
3.307374e+003,1.245706e-002
3.309302e+003,1.249546e-002
3.311230e+003,1.248900e-002
3.313159e+003,1.252498e-002
3.315087e+003,1.253057e-002
3.317016e+003,1.254275e-002
3.318944e+003,1.260651e-002
3.320873e+003,1.260829e-002
3.322802e+003,1.261287e-002
3.324730e+003,1.266712e-002
3.326658e+003,1.271471e-002
3.328587e+003,1.278861e-002
3.330515e+003,1.282568e-002
3.332444e+003,1.274678e-002
3.334372e+003,1.268367e-002
3.336301e+003,1.271186e-002
3.338229e+003,1.266376e-002
3.340158e+003,1.268544e-002
3.342086e+003,1.277788e-002
3.344015e+003,1.271792e-002
3.345943e+003,1.259393e-002
3.347872e+003,1.255023e-002
3.349800e+003,1.253501e-002
3.351729e+003,1.250387e-002
3.353657e+003,1.241267e-002
3.355586e+003,1.236909e-002
3.357514e+003,1.237092e-002
3.359443e+003,1.235280e-002
3.361371e+003,1.234555e-002
3.363300e+003,1.221681e-002
3.365229e+003,1.221438e-002
3.367157e+003,1.213056e-002
3.369085e+003,1.198046e-002
3.371014e+003,1.194728e-002
3.372942e+003,1.198317e-002
3.374871e+003,1.202638e-002
3.376799e+003,1.193719e-002
3.378728e+003,1.186505e-002
3.380656e+003,1.191506e-002
3.382585e+003,1.184679e-002
3.384513e+003,1.175159e-002
3.386442e+003,1.172230e-002
3.388370e+003,1.179775e-002
3.390299e+003,1.172807e-002
3.392227e+003,1.170518e-002
3.394156e+003,1.163567e-002
3.396084e+003,1.154700e-002
3.398013e+003,1.149242e-002
3.399941e+003,1.147927e-002
3.401870e+003,1.135882e-002
3.403798e+003,1.127018e-002
3.405727e+003,1.120288e-002
3.407655e+003,1.112316e-002
3.409584e+003,1.110272e-002
3.411512e+003,1.110004e-002
3.413441e+003,1.110773e-002
3.415369e+003,1.104594e-002
3.417298e+003,1.089027e-002
3.419226e+003,1.083944e-002
3.421155e+003,1.076483e-002
3.423083e+003,1.071131e-002
3.425012e+003,1.061020e-002
3.426940e+003,1.055147e-002
3.428869e+003,1.056723e-002
3.430797e+003,1.045367e-002
3.432726e+003,1.034482e-002
3.434654e+003,1.029183e-002
3.436583e+003,1.017126e-002
3.438511e+003,1.014351e-002
3.440440e+003,1.005228e-002
3.442368e+003,9.892627e-003
3.444297e+003,9.851588e-003
3.446225e+003,9.827945e-003
3.448154e+003,9.750739e-003
3.450082e+003,9.622806e-003
3.452011e+003,9.534281e-003
3.453939e+003,9.508416e-003
3.455868e+003,9.469726e-003
3.457796e+003,9.413846e-003
3.459725e+003,9.302010e-003
3.461653e+003,9.191588e-003
3.463582e+003,9.186837e-003
3.465510e+003,9.063072e-003
3.467439e+003,8.976214e-003
3.469367e+003,8.914038e-003
3.471296e+003,8.836916e-003
3.473224e+003,8.747953e-003
3.475153e+003,8.699699e-003
3.477081e+003,8.650853e-003
3.479010e+003,8.609031e-003
3.480938e+003,8.495693e-003
3.482867e+003,8.402527e-003
3.484795e+003,8.425579e-003
3.486724e+003,8.319370e-003
3.488652e+003,8.197242e-003
3.490581e+003,8.197303e-003
3.492509e+003,8.106248e-003
3.494438e+003,8.067983e-003
3.496366e+003,8.011589e-003
3.498295e+003,7.891756e-003
3.500223e+003,7.821762e-003
3.502152e+003,7.821724e-003
3.504080e+003,7.759076e-003
3.506009e+003,7.582928e-003
3.507937e+003,7.564354e-003
3.509866e+003,7.605882e-003
3.511794e+003,7.509213e-003
3.513723e+003,7.425610e-003
3.515651e+003,7.354330e-003
3.517580e+003,7.264331e-003
3.519508e+003,7.247390e-003
3.521437e+003,7.227422e-003
3.523365e+003,7.151743e-003
3.525294e+003,7.075086e-003
3.527222e+003,6.974816e-003
3.529151e+003,6.847491e-003
3.531079e+003,6.791432e-003
3.533008e+003,6.812552e-003
3.534936e+003,6.726230e-003
3.536865e+003,6.663676e-003
3.538793e+003,6.578186e-003
3.540722e+003,6.598285e-003
3.542650e+003,6.585499e-003
3.544579e+003,6.486150e-003
3.546507e+003,6.432219e-003
3.548436e+003,6.415206e-003
3.550364e+003,6.377986e-003
3.552293e+003,6.259636e-003
3.554221e+003,6.197962e-003
3.556150e+003,6.128766e-003
3.558078e+003,6.039511e-003
3.560007e+003,6.010970e-003
3.561935e+003,5.975379e-003
3.563864e+003,5.896709e-003
3.565792e+003,5.796816e-003
3.567721e+003,5.714752e-003
3.569649e+003,5.691691e-003
3.571578e+003,5.653388e-003
3.573506e+003,5.730549e-003
3.575435e+003,5.639914e-003
3.577363e+003,5.452152e-003
3.579292e+003,5.488451e-003
3.581220e+003,5.529860e-003
3.583149e+003,5.512880e-003
3.585077e+003,5.523233e-003
3.587006e+003,5.456863e-003
3.588934e+003,5.448930e-003
3.590863e+003,5.486462e-003
3.592791e+003,5.480962e-003
3.594720e+003,5.428628e-003
3.596648e+003,5.445211e-003
3.598577e+003,5.518974e-003
3.600505e+003,5.505735e-003
3.602434e+003,5.461281e-003
3.604362e+003,5.467314e-003
3.606291e+003,5.435746e-003
3.608219e+003,5.313019e-003
3.610148e+003,5.150388e-003
3.612076e+003,5.019542e-003
3.614005e+003,5.000029e-003
3.615933e+003,4.998974e-003
3.617862e+003,5.113667e-003
3.619790e+003,5.240511e-003
3.621719e+003,5.249208e-003
3.623647e+003,5.293216e-003
3.625576e+003,5.223761e-003
3.627504e+003,5.151929e-003
3.629433e+003,5.153019e-003
3.631361e+003,5.111132e-003
3.633290e+003,4.997891e-003
3.635218e+003,4.947074e-003
3.637146e+003,4.889974e-003
3.639075e+003,4.785301e-003
3.641004e+003,4.730124e-003
3.642932e+003,4.750630e-003
3.644861e+003,4.631722e-003
3.646789e+003,4.576501e-003
3.648718e+003,4.620065e-003
3.650646e+003,4.628083e-003
3.652574e+003,4.584354e-003
3.654503e+003,4.490204e-003
3.656432e+003,4.435326e-003
3.658360e+003,4.478242e-003
3.660289e+003,4.583426e-003
3.662217e+003,4.564151e-003
3.664146e+003,4.473763e-003
3.666074e+003,4.400834e-003
3.668002e+003,4.327908e-003
3.669931e+003,4.411810e-003
3.671860e+003,4.486952e-003
3.673788e+003,4.436151e-003
3.675717e+003,4.391386e-003
3.677645e+003,4.377433e-003
3.679573e+003,4.465539e-003
3.681502e+003,4.539675e-003
3.683430e+003,4.679095e-003
3.685359e+003,4.646253e-003
3.687288e+003,4.570680e-003
3.689216e+003,4.593197e-003
3.691145e+003,4.687684e-003
3.693073e+003,4.738271e-003
3.695001e+003,4.769966e-003
3.696930e+003,4.792799e-003
3.698858e+003,4.749634e-003
3.700787e+003,4.844864e-003
3.702716e+003,4.890339e-003
3.704644e+003,4.926735e-003
3.706573e+003,4.925200e-003
3.708501e+003,4.879449e-003
3.710429e+003,4.769498e-003
3.712358e+003,4.725837e-003
3.714286e+003,4.652075e-003
3.716215e+003,4.634882e-003
3.718144e+003,4.844612e-003
3.720072e+003,5.054459e-003
3.722000e+003,5.039062e-003
3.723929e+003,5.129059e-003
3.725857e+003,5.216832e-003
3.727786e+003,5.289368e-003
3.729714e+003,5.367324e-003
3.731643e+003,5.329248e-003
3.733572e+003,5.312398e-003
3.735500e+003,5.298867e-003
3.737428e+003,5.220794e-003
3.739357e+003,5.136596e-003
3.741285e+003,5.087615e-003
3.743214e+003,5.028309e-003
3.745142e+003,4.926865e-003
3.747071e+003,4.907276e-003
3.749000e+003,4.815198e-003
3.750928e+003,4.747233e-003
3.752856e+003,4.775789e-003
3.754785e+003,4.837299e-003
3.756713e+003,4.835672e-003
3.758642e+003,4.802039e-003
3.760570e+003,4.786292e-003
3.762499e+003,4.824009e-003
3.764427e+003,4.743035e-003
3.766356e+003,4.654698e-003
3.768284e+003,4.717221e-003
3.770213e+003,4.793240e-003
3.772141e+003,4.854496e-003
3.774070e+003,4.829222e-003
3.775998e+003,4.759221e-003
3.777927e+003,4.694379e-003
3.779855e+003,4.725893e-003
3.781784e+003,4.707054e-003
3.783712e+003,4.709318e-003
3.785641e+003,4.704521e-003
3.787569e+003,4.681987e-003
3.789498e+003,4.780579e-003
3.791426e+003,4.841064e-003
3.793355e+003,4.854332e-003
3.795283e+003,4.759011e-003
3.797212e+003,4.728982e-003
3.799140e+003,4.780054e-003
3.801069e+003,4.747813e-003
3.802997e+003,4.707735e-003
3.804926e+003,4.812428e-003
3.806854e+003,4.877147e-003
3.808783e+003,4.766014e-003
3.810711e+003,4.718379e-003
3.812640e+003,4.783116e-003
3.814568e+003,4.803633e-003
3.816497e+003,4.774617e-003
3.818425e+003,4.755084e-003
3.820354e+003,4.781574e-003
3.822282e+003,4.749275e-003
3.824211e+003,4.739678e-003
3.826139e+003,4.788848e-003
3.828068e+003,4.769151e-003
3.829996e+003,4.736278e-003
3.831925e+003,4.805082e-003
3.833853e+003,4.835659e-003
3.835782e+003,4.869733e-003
3.837710e+003,4.869775e-003
3.839639e+003,4.769849e-003
3.841567e+003,4.731029e-003
3.843496e+003,4.823581e-003
3.845424e+003,4.851918e-003
3.847353e+003,4.787145e-003
3.849281e+003,4.786467e-003
3.851210e+003,4.783493e-003
3.853138e+003,4.901997e-003
3.855067e+003,4.904515e-003
3.856995e+003,4.864458e-003
3.858924e+003,4.807300e-003
3.860852e+003,4.779642e-003
3.862781e+003,4.866895e-003
3.864709e+003,4.916959e-003
3.866638e+003,4.838962e-003
3.868566e+003,4.820217e-003
3.870495e+003,4.852476e-003
3.872423e+003,4.911804e-003
3.874352e+003,4.948500e-003
3.876280e+003,4.949038e-003
3.878209e+003,4.911989e-003
3.880137e+003,4.851951e-003
3.882066e+003,4.840716e-003
3.883994e+003,4.848741e-003
3.885923e+003,4.868500e-003
3.887851e+003,4.866494e-003
3.889780e+003,4.875143e-003
3.891708e+003,4.933198e-003
3.893637e+003,4.941847e-003
3.895565e+003,4.854815e-003
3.897494e+003,4.849424e-003
3.899422e+003,4.851020e-003
3.901351e+003,4.918835e-003
3.903279e+003,4.982240e-003
3.905208e+003,4.934916e-003
3.907136e+003,4.902758e-003
3.909065e+003,4.869438e-003
3.910993e+003,4.836439e-003
3.912922e+003,4.831400e-003
3.914850e+003,4.858829e-003
3.916779e+003,4.886399e-003
3.918707e+003,4.900313e-003
3.920636e+003,4.761888e-003
3.922564e+003,4.798698e-003
3.924493e+003,4.918280e-003
3.926421e+003,4.968131e-003
3.928350e+003,4.896857e-003
3.930278e+003,4.941879e-003
3.932207e+003,4.990906e-003
3.934135e+003,5.050910e-003
3.936064e+003,4.971609e-003
3.937992e+003,4.844930e-003
3.939921e+003,4.863523e-003
3.941849e+003,4.908012e-003
3.943778e+003,4.850550e-003
3.945706e+003,4.848566e-003
3.947635e+003,4.909735e-003
3.949563e+003,4.916990e-003
3.951492e+003,4.905669e-003
3.953420e+003,4.919067e-003
3.955349e+003,4.966310e-003
3.957277e+003,4.902170e-003
3.959206e+003,4.776352e-003
3.961134e+003,4.854496e-003
3.963063e+003,4.889191e-003
3.964991e+003,4.825016e-003
3.966920e+003,4.834454e-003
3.968848e+003,4.790653e-003
3.970777e+003,4.819453e-003
3.972705e+003,4.854036e-003
3.974634e+003,4.864095e-003
3.976562e+003,4.822743e-003
3.978491e+003,4.823149e-003
3.980419e+003,4.845840e-003
3.982348e+003,4.902364e-003
3.984276e+003,4.893879e-003
3.986205e+003,4.898322e-003
3.988133e+003,4.816826e-003
3.990062e+003,4.814102e-003
3.991990e+003,4.843296e-003
3.993919e+003,4.830270e-003
3.995847e+003,4.818238e-003
3.997776e+003,4.837047e-003
3.999704e+003,4.837373e-003
4.001633e+003,0.000000e+000
