3.991989e+002,4.081212e-002
4.011274e+002,4.259717e-002
4.030559e+002,4.259717e-002
4.049844e+002,4.209838e-002
4.069129e+002,4.338430e-002
4.088414e+002,4.389721e-002
4.107699e+002,4.201086e-002
4.126984e+002,4.332278e-002
4.146269e+002,4.392573e-002
4.165554e+002,4.472911e-002
4.184839e+002,4.613689e-002
4.204124e+002,4.627857e-002
4.223409e+002,4.716676e-002
4.242694e+002,4.819848e-002
4.261979e+002,4.872369e-002
4.281264e+002,4.861826e-002
4.300549e+002,4.825927e-002
4.319834e+002,4.968999e-002
4.339119e+002,5.116557e-002
4.358404e+002,5.028758e-002
4.377689e+002,5.030388e-002
4.396974e+002,5.045004e-002
4.416259e+002,5.128793e-002
4.435544e+002,5.117026e-002
4.454829e+002,5.008449e-002
4.474114e+002,5.059795e-002
4.493399e+002,5.110536e-002
4.512684e+002,5.063948e-002
4.531969e+002,4.993782e-002
4.551254e+002,5.071570e-002
4.570539e+002,5.102420e-002
4.589824e+002,5.074628e-002
4.609109e+002,5.094018e-002
4.628394e+002,5.002816e-002
4.647679e+002,4.946477e-002
4.666964e+002,4.918803e-002
4.686249e+002,4.933216e-002
4.705533e+002,4.943226e-002
4.724819e+002,4.869484e-002
4.744103e+002,4.809165e-002
4.763389e+002,4.774902e-002
4.782673e+002,4.812282e-002
4.801959e+002,4.814690e-002
4.821243e+002,4.770516e-002
4.840529e+002,4.710898e-002
4.859813e+002,4.639821e-002
4.879099e+002,4.636194e-002
4.898383e+002,4.701132e-002
4.917668e+002,4.693395e-002
4.936953e+002,4.638662e-002
4.956238e+002,4.615760e-002
4.975523e+002,4.548653e-002
4.994808e+002,4.580721e-002
5.014093e+002,4.635768e-002
5.033378e+002,4.609927e-002
5.052663e+002,4.614091e-002
5.071948e+002,4.596994e-002
5.091233e+002,4.541804e-002
5.110518e+002,4.582889e-002
5.129803e+002,4.633954e-002
5.149088e+002,4.649865e-002
5.168373e+002,4.707690e-002
5.187658e+002,4.708859e-002
5.206943e+002,4.717693e-002
5.226228e+002,4.728711e-002
5.245513e+002,4.753277e-002
5.264798e+002,4.786968e-002
5.284083e+002,4.782993e-002
5.303368e+002,4.681387e-002
5.322653e+002,4.661682e-002
5.341938e+002,4.654066e-002
5.361223e+002,4.644068e-002
5.380508e+002,4.636878e-002
5.399792e+002,4.663458e-002
5.419078e+002,4.641904e-002
5.438363e+002,4.611109e-002
5.457648e+002,4.608289e-002
5.476932e+002,4.672324e-002
5.496218e+002,4.705153e-002
5.515503e+002,4.757648e-002
5.534788e+002,4.751819e-002
5.554072e+002,4.794477e-002
5.573358e+002,4.886688e-002
5.592643e+002,4.894467e-002
5.611927e+002,4.852421e-002
5.631212e+002,4.786382e-002
5.650497e+002,4.732034e-002
5.669783e+002,4.711138e-002
5.689067e+002,4.680507e-002
5.708352e+002,4.643358e-002
5.727637e+002,4.617960e-002
5.746923e+002,4.601165e-002
5.766207e+002,4.580135e-002
5.785492e+002,4.568117e-002
5.804777e+002,4.552592e-002
5.824063e+002,4.558268e-002
5.843347e+002,4.552357e-002
5.862632e+002,4.525595e-002
5.881917e+002,4.511687e-002
5.901202e+002,4.524174e-002
5.920487e+002,4.526854e-002
5.939772e+002,4.501007e-002
5.959057e+002,4.483932e-002
5.978342e+002,4.447651e-002
5.997627e+002,4.428979e-002
6.016912e+002,4.436972e-002
6.036197e+002,4.417426e-002
6.055482e+002,4.400541e-002
6.074767e+002,4.370491e-002
6.094052e+002,4.346108e-002
6.113337e+002,4.327505e-002
6.132622e+002,4.292451e-002
6.151907e+002,4.257759e-002
6.171192e+002,4.227668e-002
6.190477e+002,4.191505e-002
6.209762e+002,4.139629e-002
6.229047e+002,4.077339e-002
6.248332e+002,4.005243e-002
6.267617e+002,3.935742e-002
6.286902e+002,3.870260e-002
6.306187e+002,3.819372e-002
6.325472e+002,3.798005e-002
6.344756e+002,3.766327e-002
6.364042e+002,3.743371e-002
6.383326e+002,3.722269e-002
6.402612e+002,3.696873e-002
6.421896e+002,3.669817e-002
6.441182e+002,3.632883e-002
6.460466e+002,3.614247e-002
6.479752e+002,3.601416e-002
6.499036e+002,3.589947e-002
6.518322e+002,3.597288e-002
6.537606e+002,3.567313e-002
6.556891e+002,3.554504e-002
6.576177e+002,3.555607e-002
6.595461e+002,3.572710e-002
6.614746e+002,3.578383e-002
6.634031e+002,3.578595e-002
6.653317e+002,3.548244e-002
6.672601e+002,3.520272e-002
6.691886e+002,3.496139e-002
6.711171e+002,3.464865e-002
6.730457e+002,3.400109e-002
6.749741e+002,3.329587e-002
6.769026e+002,3.250954e-002
6.788311e+002,3.172472e-002
6.807596e+002,3.096105e-002
6.826881e+002,3.020385e-002
6.846166e+002,2.980860e-002
6.865451e+002,2.961602e-002
6.884736e+002,2.925522e-002
6.904021e+002,2.921405e-002
6.923306e+002,2.899479e-002
6.942591e+002,2.870911e-002
6.961876e+002,2.842028e-002
6.981161e+002,2.817635e-002
7.000446e+002,2.815369e-002
7.019731e+002,2.813718e-002
7.039016e+002,2.801854e-002
7.058301e+002,2.779554e-002
7.077585e+002,2.748263e-002
7.096871e+002,2.734991e-002
7.116156e+002,2.725486e-002
7.135441e+002,2.708830e-002
7.154725e+002,2.682872e-002
7.174011e+002,2.662625e-002
7.193296e+002,2.628654e-002
7.212581e+002,2.606566e-002
7.231865e+002,2.593847e-002
7.251151e+002,2.574078e-002
7.270436e+002,2.541344e-002
7.289720e+002,2.511227e-002
7.309005e+002,2.473647e-002
7.328290e+002,2.440965e-002
7.347576e+002,2.421184e-002
7.366860e+002,2.400291e-002
7.386145e+002,2.388784e-002
7.405430e+002,2.368668e-002
7.424716e+002,2.337868e-002
7.444000e+002,2.317355e-002
7.463285e+002,2.289334e-002
7.482570e+002,2.263306e-002
7.501855e+002,2.233044e-002
7.521140e+002,2.214807e-002
7.540425e+002,2.202484e-002
7.559710e+002,2.171151e-002
7.578995e+002,2.142331e-002
7.598280e+002,2.133317e-002
7.617565e+002,2.128107e-002
7.636850e+002,2.129705e-002
7.656135e+002,2.114260e-002
7.675420e+002,2.099582e-002
7.694705e+002,2.089589e-002
7.713990e+002,2.097339e-002
7.733275e+002,2.092005e-002
7.752560e+002,2.094133e-002
7.771844e+002,2.088181e-002
7.791130e+002,2.077867e-002
7.810415e+002,2.057743e-002
7.829700e+002,2.039029e-002
7.848984e+002,2.024776e-002
7.868270e+002,2.021301e-002
7.887555e+002,2.011006e-002
7.906840e+002,1.993737e-002
7.926124e+002,1.984216e-002
7.945410e+002,1.968961e-002
7.964695e+002,1.963283e-002
7.983979e+002,1.964576e-002
8.003264e+002,1.956936e-002
8.022549e+002,1.962641e-002
8.041835e+002,1.962929e-002
8.061119e+002,1.972609e-002
8.080404e+002,1.971392e-002
8.099689e+002,1.974551e-002
8.118975e+002,1.984490e-002
8.138259e+002,1.975962e-002
8.157545e+002,1.965931e-002
8.176830e+002,1.961404e-002
8.196115e+002,1.952697e-002
8.215399e+002,1.948691e-002
8.234684e+002,1.940589e-002
8.253970e+002,1.945343e-002
8.273254e+002,1.947648e-002
8.292539e+002,1.943500e-002
8.311824e+002,1.942349e-002
8.331110e+002,1.940433e-002
8.350394e+002,1.942353e-002
8.369679e+002,1.950119e-002
8.388964e+002,1.958703e-002
8.408250e+002,1.955719e-002
8.427534e+002,1.946147e-002
8.446819e+002,1.938153e-002
8.466104e+002,1.934405e-002
8.485389e+002,1.936383e-002
8.504674e+002,1.930529e-002
8.523959e+002,1.930161e-002
8.543244e+002,1.927134e-002
8.562529e+002,1.939706e-002
8.581814e+002,1.934734e-002
8.601099e+002,1.945669e-002
8.620384e+002,1.963196e-002
8.639669e+002,1.963411e-002
8.658954e+002,1.975272e-002
8.678239e+002,2.000117e-002
8.697524e+002,2.020766e-002
8.716809e+002,2.032365e-002
8.736094e+002,2.039730e-002
8.755378e+002,2.063900e-002
8.774664e+002,2.091167e-002
8.793949e+002,2.125647e-002
8.813234e+002,2.160224e-002
8.832518e+002,2.208510e-002
8.851804e+002,2.257278e-002
8.871089e+002,2.315188e-002
8.890374e+002,2.389324e-002
8.909658e+002,2.465698e-002
8.928943e+002,2.533474e-002
8.948229e+002,2.584350e-002
8.967513e+002,2.599980e-002
8.986798e+002,2.591577e-002
9.006083e+002,2.560929e-002
9.025369e+002,2.506977e-002
9.044653e+002,2.444339e-002
9.063938e+002,2.404691e-002
9.083223e+002,2.366781e-002
9.102509e+002,2.347167e-002
9.121793e+002,2.335392e-002
9.141078e+002,2.328400e-002
9.160364e+002,2.328348e-002
9.179648e+002,2.340459e-002
9.198933e+002,2.349870e-002
9.218218e+002,2.360105e-002
9.237504e+002,2.380440e-002
9.256788e+002,2.410253e-002
9.276073e+002,2.441514e-002
9.295358e+002,2.480661e-002
9.314644e+002,2.514437e-002
9.333928e+002,2.553671e-002
9.353213e+002,2.595836e-002
9.372498e+002,2.635796e-002
9.391783e+002,2.687736e-002
9.411068e+002,2.749989e-002
9.430353e+002,2.813569e-002
9.449637e+002,2.888444e-002
9.468923e+002,2.960012e-002
9.488208e+002,3.036107e-002
9.507493e+002,3.124469e-002
9.526777e+002,3.221699e-002
9.546063e+002,3.326455e-002
9.565348e+002,3.427650e-002
9.584633e+002,3.527851e-002
9.603917e+002,3.629718e-002
9.623203e+002,3.728957e-002
9.642488e+002,3.834468e-002
9.661772e+002,3.940598e-002
9.681057e+002,4.031076e-002
9.700343e+002,4.127463e-002
9.719628e+002,4.234699e-002
9.738912e+002,4.335926e-002
9.758197e+002,4.457819e-002
9.777483e+002,4.596857e-002
9.796768e+002,4.750144e-002
9.816052e+002,4.919624e-002
9.835337e+002,5.093021e-002
9.854623e+002,5.251161e-002
9.873907e+002,5.373559e-002
9.893192e+002,5.457328e-002
9.912477e+002,5.506961e-002
9.931763e+002,5.529873e-002
9.951047e+002,5.549342e-002
9.970332e+002,5.572115e-002
9.989617e+002,5.617524e-002
1.000890e+003,5.696729e-002
1.002819e+003,5.783373e-002
1.004747e+003,5.859176e-002
1.006676e+003,5.933183e-002
1.008604e+003,6.008743e-002
1.010533e+003,6.086329e-002
1.012461e+003,6.181857e-002
1.014390e+003,6.285352e-002
1.016318e+003,6.413634e-002
1.018247e+003,6.556805e-002
1.020175e+003,6.703698e-002
1.022104e+003,6.851826e-002
1.024032e+003,7.007220e-002
1.025961e+003,7.166665e-002
1.027889e+003,7.326730e-002
1.029818e+003,7.467517e-002
1.031746e+003,7.575346e-002
1.033675e+003,7.644656e-002
1.035603e+003,7.665381e-002
1.037532e+003,7.616940e-002
1.039460e+003,7.515441e-002
1.041389e+003,7.411510e-002
1.043317e+003,7.335944e-002
1.045246e+003,7.270732e-002
1.047174e+003,7.230724e-002
1.049103e+003,7.194564e-002
1.051031e+003,7.147689e-002
1.052960e+003,7.100470e-002
1.054888e+003,7.026369e-002
1.056817e+003,6.914271e-002
1.058745e+003,6.794716e-002
1.060674e+003,6.658924e-002
1.062602e+003,6.492921e-002
1.064531e+003,6.310246e-002
1.066459e+003,6.134801e-002
1.068388e+003,5.964456e-002
1.070316e+003,5.808754e-002
1.072245e+003,5.665316e-002
1.074173e+003,5.535681e-002
1.076102e+003,5.409580e-002
1.078030e+003,5.284109e-002
1.079959e+003,5.155258e-002
1.081887e+003,5.033514e-002
1.083816e+003,4.931230e-002
1.085744e+003,4.847931e-002
1.087673e+003,4.782326e-002
1.089601e+003,4.727880e-002
1.091530e+003,4.678051e-002
1.093458e+003,4.637754e-002
1.095387e+003,4.601435e-002
1.097315e+003,4.575882e-002
1.099244e+003,4.570065e-002
1.101172e+003,4.563189e-002
1.103101e+003,4.553621e-002
1.105029e+003,4.528934e-002
1.106958e+003,4.477210e-002
1.108886e+003,4.399070e-002
1.110815e+003,4.298381e-002
1.112743e+003,4.169368e-002
1.114672e+003,4.018952e-002
1.116600e+003,3.871168e-002
1.118529e+003,3.743268e-002
1.120457e+003,3.638076e-002
1.122386e+003,3.531582e-002
1.124314e+003,3.412736e-002
1.126243e+003,3.283986e-002
1.128171e+003,3.151285e-002
1.130100e+003,3.028660e-002
1.132028e+003,2.911019e-002
1.133957e+003,2.800388e-002
1.135885e+003,2.717578e-002
1.137814e+003,2.654924e-002
1.139742e+003,2.614736e-002
1.141671e+003,2.607227e-002
1.143599e+003,2.623464e-002
1.145528e+003,2.656090e-002
1.147456e+003,2.705735e-002
1.149385e+003,2.759450e-002
1.151313e+003,2.821332e-002
1.153242e+003,2.894649e-002
1.155170e+003,2.963375e-002
1.157099e+003,3.013866e-002
1.159027e+003,3.051101e-002
1.160956e+003,3.066211e-002
1.162884e+003,3.045603e-002
1.164813e+003,2.984576e-002
1.166741e+003,2.885307e-002
1.168670e+003,2.757251e-002
1.170598e+003,2.607752e-002
1.172526e+003,2.456286e-002
1.174455e+003,2.309247e-002
1.176384e+003,2.178040e-002
1.178312e+003,2.066284e-002
1.180240e+003,1.973105e-002
1.182169e+003,1.895847e-002
1.184098e+003,1.834705e-002
1.186026e+003,1.788463e-002
1.187954e+003,1.764488e-002
1.189883e+003,1.756850e-002
1.191812e+003,1.762992e-002
1.193740e+003,1.779415e-002
1.195668e+003,1.803115e-002
1.197597e+003,1.831655e-002
1.199526e+003,1.858435e-002
1.201454e+003,1.876558e-002
1.203382e+003,1.879443e-002
1.205311e+003,1.874185e-002
1.207240e+003,1.864443e-002
1.209168e+003,1.853742e-002
1.211096e+003,1.841417e-002
1.213025e+003,1.846275e-002
1.214953e+003,1.866795e-002
1.216882e+003,1.892907e-002
1.218810e+003,1.919382e-002
1.220739e+003,1.950417e-002
1.222667e+003,1.984407e-002
1.224596e+003,2.023133e-002
1.226524e+003,2.065414e-002
1.228453e+003,2.109138e-002
1.230381e+003,2.147833e-002
1.232310e+003,2.174383e-002
1.234238e+003,2.201148e-002
1.236167e+003,2.222367e-002
1.238095e+003,2.237927e-002
1.240024e+003,2.249007e-002
1.241952e+003,2.250605e-002
1.243881e+003,2.244407e-002
1.245809e+003,2.233019e-002
1.247738e+003,2.214738e-002
1.249666e+003,2.194340e-002
1.251595e+003,2.170036e-002
1.253523e+003,2.140520e-002
1.255452e+003,2.108087e-002
1.257380e+003,2.065759e-002
1.259309e+003,2.023893e-002
1.261237e+003,1.983021e-002
1.263166e+003,1.942261e-002
1.265094e+003,1.905529e-002
1.267023e+003,1.872814e-002
1.268951e+003,1.842214e-002
1.270880e+003,1.810985e-002
1.272808e+003,1.781244e-002
1.274737e+003,1.750608e-002
1.276665e+003,1.718065e-002
1.278594e+003,1.693493e-002
1.280522e+003,1.673851e-002
1.282451e+003,1.657575e-002
1.284379e+003,1.640599e-002
1.286308e+003,1.621081e-002
1.288236e+003,1.603210e-002
1.290165e+003,1.594426e-002
1.292093e+003,1.598531e-002
1.294022e+003,1.606835e-002
1.295950e+003,1.619668e-002
1.297879e+003,1.639980e-002
1.299807e+003,1.664993e-002
1.301736e+003,1.691740e-002
1.303664e+003,1.716654e-002
1.305593e+003,1.753807e-002
1.307521e+003,1.792678e-002
1.309450e+003,1.828453e-002
1.311378e+003,1.859737e-002
1.313307e+003,1.882991e-002
1.315235e+003,1.900023e-002
1.317164e+003,1.898512e-002
1.319092e+003,1.883063e-002
1.321021e+003,1.865951e-002
1.322949e+003,1.847101e-002
1.324878e+003,1.827607e-002
1.326806e+003,1.808342e-002
1.328735e+003,1.800202e-002
1.330663e+003,1.798603e-002
1.332592e+003,1.797212e-002
1.334520e+003,1.793900e-002
1.336449e+003,1.785478e-002
1.338377e+003,1.771751e-002
1.340306e+003,1.761525e-002
1.342234e+003,1.755280e-002
1.344163e+003,1.748411e-002
1.346091e+003,1.744303e-002
1.348020e+003,1.743543e-002
1.349948e+003,1.756424e-002
1.351877e+003,1.772750e-002
1.353805e+003,1.791345e-002
1.355734e+003,1.814044e-002
1.357662e+003,1.834972e-002
1.359591e+003,1.855095e-002
1.361519e+003,1.876951e-002
1.363448e+003,1.896344e-002
1.365376e+003,1.913511e-002
1.367305e+003,1.922021e-002
1.369233e+003,1.920842e-002
1.371162e+003,1.909675e-002
1.373090e+003,1.888075e-002
1.375019e+003,1.860713e-002
1.376947e+003,1.832114e-002
1.378876e+003,1.797405e-002
1.380804e+003,1.756261e-002
1.382733e+003,1.708859e-002
1.384661e+003,1.661255e-002
1.386590e+003,1.623267e-002
1.388518e+003,1.593143e-002
1.390447e+003,1.563966e-002
1.392375e+003,1.545812e-002
1.394304e+003,1.535165e-002
1.396232e+003,1.527699e-002
1.398161e+003,1.519919e-002
1.400089e+003,1.516400e-002
1.402018e+003,1.517091e-002
1.403946e+003,1.517774e-002
1.405875e+003,1.523979e-002
1.407803e+003,1.536192e-002
1.409732e+003,1.545518e-002
1.411660e+003,1.556278e-002
1.413589e+003,1.575619e-002
1.415517e+003,1.595617e-002
1.417446e+003,1.611420e-002
1.419374e+003,1.630105e-002
1.421303e+003,1.650152e-002
1.423231e+003,1.656990e-002
1.425160e+003,1.660728e-002
1.427088e+003,1.662832e-002
1.429017e+003,1.653028e-002
1.430945e+003,1.641316e-002
1.432874e+003,1.622094e-002
1.434802e+003,1.598752e-002
1.436731e+003,1.579414e-002
1.438659e+003,1.560281e-002
1.440588e+003,1.543300e-002
1.442516e+003,1.530610e-002
1.444445e+003,1.525124e-002
1.446373e+003,1.528312e-002
1.448302e+003,1.528109e-002
1.450230e+003,1.524605e-002
1.452159e+003,1.516473e-002
1.454087e+003,1.506385e-002
1.456016e+003,1.500685e-002
1.457944e+003,1.486406e-002
1.459873e+003,1.470827e-002
1.461801e+003,1.460600e-002
1.463730e+003,1.442230e-002
1.465658e+003,1.416117e-002
1.467587e+003,1.375826e-002
1.469515e+003,1.328793e-002
1.471444e+003,1.274096e-002
1.473372e+003,1.225293e-002
1.475301e+003,1.188478e-002
1.477229e+003,1.162564e-002
1.479158e+003,1.143565e-002
1.481086e+003,1.127019e-002
1.483015e+003,1.120707e-002
1.484943e+003,1.123608e-002
1.486872e+003,1.128012e-002
1.488800e+003,1.141794e-002
1.490729e+003,1.163766e-002
1.492657e+003,1.184058e-002
1.494586e+003,1.209258e-002
1.496514e+003,1.238199e-002
1.498443e+003,1.252935e-002
1.500371e+003,1.264001e-002
1.502300e+003,1.280722e-002
1.504228e+003,1.295397e-002
1.506157e+003,1.307748e-002
1.508085e+003,1.327654e-002
1.510014e+003,1.348761e-002
1.511942e+003,1.364129e-002
1.513871e+003,1.375124e-002
1.515799e+003,1.370165e-002
1.517728e+003,1.350756e-002
1.519656e+003,1.327754e-002
1.521585e+003,1.304536e-002
1.523513e+003,1.283669e-002
1.525442e+003,1.266849e-002
1.527370e+003,1.260736e-002
1.529299e+003,1.255017e-002
1.531227e+003,1.246579e-002
1.533156e+003,1.239939e-002
1.535084e+003,1.239527e-002
1.537013e+003,1.235560e-002
1.538941e+003,1.232482e-002
1.540870e+003,1.220763e-002
1.542798e+003,1.211935e-002
1.544727e+003,1.205730e-002
1.546655e+003,1.198701e-002
1.548584e+003,1.191035e-002
1.550512e+003,1.185293e-002
1.552441e+003,1.179363e-002
1.554369e+003,1.173925e-002
1.556298e+003,1.163218e-002
1.558226e+003,1.155056e-002
1.560155e+003,1.160694e-002
1.562083e+003,1.157701e-002
1.564012e+003,1.150936e-002
1.565940e+003,1.152487e-002
1.567869e+003,1.157891e-002
1.569797e+003,1.165009e-002
1.571726e+003,1.173555e-002
1.573654e+003,1.183515e-002
1.575583e+003,1.202400e-002
1.577511e+003,1.219190e-002
1.579440e+003,1.228433e-002
1.581368e+003,1.246149e-002
1.583297e+003,1.265870e-002
1.585225e+003,1.290374e-002
1.587154e+003,1.308890e-002
1.589082e+003,1.328565e-002
1.591010e+003,1.347956e-002
1.592939e+003,1.363363e-002
1.594868e+003,1.373413e-002
1.596796e+003,1.382294e-002
1.598724e+003,1.389908e-002
1.600653e+003,1.398115e-002
1.602582e+003,1.406588e-002
1.604510e+003,1.418252e-002
1.606438e+003,1.429248e-002
1.608367e+003,1.437644e-002
1.610296e+003,1.453125e-002
1.612224e+003,1.475316e-002
1.614152e+003,1.500725e-002
1.616081e+003,1.528027e-002
1.618010e+003,1.557827e-002
1.619938e+003,1.582309e-002
1.621866e+003,1.604622e-002
1.623795e+003,1.624653e-002
1.625724e+003,1.635307e-002
1.627652e+003,1.639548e-002
1.629580e+003,1.640232e-002
1.631509e+003,1.629758e-002
1.633438e+003,1.618021e-002
1.635366e+003,1.611004e-002
1.637294e+003,1.604219e-002
1.639223e+003,1.590407e-002
1.641151e+003,1.579115e-002
1.643080e+003,1.570004e-002
1.645008e+003,1.564460e-002
1.646937e+003,1.558448e-002
1.648865e+003,1.554461e-002
1.650794e+003,1.550013e-002
1.652722e+003,1.538495e-002
1.654651e+003,1.527920e-002
1.656579e+003,1.505449e-002
1.658508e+003,1.475810e-002
1.660436e+003,1.441964e-002
1.662365e+003,1.405227e-002
1.664293e+003,1.371420e-002
1.666222e+003,1.340873e-002
1.668150e+003,1.309188e-002
1.670079e+003,1.281445e-002
1.672007e+003,1.259537e-002
1.673936e+003,1.236870e-002
1.675864e+003,1.213992e-002
1.677793e+003,1.194289e-002
1.679721e+003,1.176807e-002
1.681650e+003,1.156713e-002
1.683578e+003,1.141521e-002
1.685507e+003,1.130100e-002
1.687435e+003,1.109091e-002
1.689364e+003,1.097662e-002
1.691292e+003,1.087950e-002
1.693221e+003,1.082018e-002
1.695149e+003,1.081121e-002
1.697078e+003,1.066995e-002
1.699006e+003,1.048616e-002
1.700935e+003,1.041190e-002
1.702863e+003,1.034407e-002
1.704792e+003,1.033961e-002
1.706720e+003,1.045612e-002
1.708649e+003,1.061089e-002
1.710577e+003,1.064888e-002
1.712506e+003,1.080609e-002
1.714434e+003,1.097508e-002
1.716363e+003,1.117818e-002
1.718291e+003,1.133655e-002
1.720220e+003,1.145091e-002
1.722148e+003,1.149689e-002
1.724077e+003,1.164215e-002
1.726005e+003,1.176478e-002
1.727934e+003,1.175804e-002
1.729862e+003,1.167619e-002
1.731791e+003,1.162848e-002
1.733719e+003,1.151514e-002
1.735648e+003,1.136430e-002
1.737576e+003,1.106598e-002
1.739505e+003,1.068955e-002
1.741433e+003,1.029887e-002
1.743362e+003,9.888125e-003
1.745290e+003,9.557283e-003
1.747219e+003,9.231328e-003
1.749147e+003,8.916412e-003
1.751076e+003,8.683822e-003
1.753004e+003,8.414155e-003
1.754933e+003,8.208062e-003
1.756861e+003,7.996491e-003
1.758790e+003,7.832772e-003
1.760718e+003,7.677568e-003
1.762647e+003,7.529144e-003
1.764575e+003,7.396417e-003
1.766504e+003,7.306769e-003
1.768432e+003,7.182471e-003
1.770361e+003,7.117453e-003
1.772289e+003,7.118206e-003
1.774218e+003,7.121654e-003
1.776146e+003,7.091916e-003
1.778075e+003,7.062169e-003
1.780003e+003,6.976116e-003
1.781932e+003,6.915208e-003
1.783860e+003,6.825698e-003
1.785789e+003,6.828435e-003
1.787717e+003,6.855478e-003
1.789646e+003,6.854364e-003
1.791574e+003,6.848501e-003
1.793503e+003,6.872077e-003
1.795431e+003,6.867102e-003
1.797360e+003,6.869776e-003
1.799288e+003,6.888284e-003
1.801217e+003,6.904859e-003
1.803145e+003,6.946553e-003
1.805074e+003,6.933866e-003
1.807002e+003,6.911455e-003
1.808931e+003,6.877747e-003
1.810859e+003,6.871608e-003
1.812788e+003,6.892816e-003
1.814716e+003,6.832633e-003
1.816645e+003,6.745809e-003
1.818573e+003,6.698181e-003
1.820502e+003,6.737904e-003
1.822430e+003,6.706732e-003
1.824359e+003,6.627134e-003
1.826287e+003,6.632949e-003
1.828216e+003,6.601216e-003
1.830144e+003,6.638534e-003
1.832073e+003,6.562579e-003
1.834001e+003,6.549692e-003
1.835930e+003,6.635904e-003
1.837858e+003,6.607607e-003
1.839787e+003,6.615938e-003
1.841715e+003,6.560638e-003
1.843644e+003,6.588262e-003
1.845572e+003,6.662237e-003
1.847501e+003,6.671545e-003
1.849429e+003,6.575446e-003
1.851358e+003,6.566791e-003
1.853286e+003,6.715721e-003
1.855215e+003,6.743721e-003
1.857143e+003,6.559474e-003
1.859072e+003,6.409409e-003
1.861000e+003,6.498571e-003
1.862929e+003,6.477657e-003
1.864857e+003,6.353745e-003
1.866786e+003,6.373105e-003
1.868714e+003,6.415335e-003
1.870643e+003,6.360514e-003
1.872571e+003,6.322361e-003
1.874500e+003,6.428089e-003
1.876428e+003,6.384599e-003
1.878357e+003,6.375965e-003
1.880285e+003,6.277943e-003
1.882214e+003,6.249109e-003
1.884142e+003,6.453332e-003
1.886071e+003,6.322384e-003
1.887999e+003,6.220641e-003
1.889928e+003,6.273572e-003
1.891856e+003,6.127785e-003
1.893785e+003,5.960759e-003
1.895713e+003,5.834491e-003
1.897642e+003,5.717525e-003
1.899570e+003,5.622338e-003
1.901499e+003,5.628908e-003
1.903427e+003,5.683071e-003
1.905356e+003,5.491531e-003
1.907284e+003,5.472997e-003
1.909213e+003,5.534039e-003
1.911141e+003,5.452945e-003
1.913070e+003,5.233984e-003
1.914998e+003,5.229888e-003
1.916927e+003,4.944020e-003
1.918855e+003,4.666414e-003
1.920784e+003,4.768370e-003
1.922712e+003,4.825579e-003
1.924641e+003,4.744811e-003
1.926569e+003,4.703228e-003
1.928498e+003,4.679976e-003
1.930426e+003,4.627833e-003
1.932355e+003,4.221449e-003
1.934283e+003,4.065068e-003
1.936212e+003,3.863045e-003
1.938140e+003,3.658241e-003
1.940069e+003,3.406432e-003
1.941997e+003,3.185316e-003
1.943926e+003,2.823818e-003
1.945854e+003,2.329876e-003
1.947783e+003,2.264641e-003
1.949711e+003,2.331501e-003
1.951640e+003,2.010787e-003
1.953568e+003,1.623821e-003
1.955497e+003,9.513067e-004
1.957425e+003,6.152165e-004
1.959354e+003,3.921865e-004
1.961282e+003,-3.820354e-004
1.963211e+003,-5.440405e-004
1.965139e+003,-1.511882e-003
1.967068e+003,-2.228552e-003
1.968996e+003,-2.085349e-003
1.970925e+003,-3.250614e-003
1.972853e+003,-4.335841e-003
1.974782e+003,-4.993152e-003
1.976710e+003,-5.045763e-003
1.978639e+003,-3.837066e-003
1.980567e+003,-2.319722e-003
1.982496e+003,-9.103769e-004
1.984424e+003,-9.153788e-004
1.986353e+003,-7.878893e-004
1.988281e+003,-3.597478e-004
1.990210e+003,-8.636893e-005
1.992138e+003,7.883160e-005
1.994067e+003,6.455503e-004
1.995995e+003,4.972828e-004
1.997924e+003,-5.659492e-004
1.999852e+003,-1.072221e-003
2.001781e+003,-1.026997e-003
2.003709e+003,-1.164426e-003
2.005638e+003,-1.789087e-003
2.007566e+003,-2.597990e-003
2.009495e+003,-3.494384e-003
2.011423e+003,-3.244929e-003
2.013352e+003,-3.123049e-003
2.015280e+003,-3.740404e-003
2.017208e+003,-4.506810e-003
2.019137e+003,-4.630964e-003
2.021066e+003,-4.728821e-003
2.022994e+003,-4.358707e-003
2.024922e+003,-4.311372e-003
2.026851e+003,-4.112653e-003
2.028780e+003,-4.320963e-003
2.030708e+003,-4.058091e-003
2.032636e+003,-3.107907e-003
2.034565e+003,-3.323938e-003
2.036494e+003,-3.165521e-003
2.038422e+003,-2.989016e-003
2.040350e+003,-2.141625e-003
2.042279e+003,-1.548848e-003
2.044208e+003,-1.398501e-003
2.046136e+003,-8.907305e-004
2.048064e+003,5.009026e-005
2.049993e+003,8.524174e-004
2.051921e+003,1.856799e-003
2.053850e+003,2.596851e-003
2.055778e+003,2.829727e-003
2.057707e+003,2.161251e-003
2.059635e+003,2.067028e-003
2.061564e+003,2.561035e-003
2.063492e+003,2.742476e-003
2.065421e+003,2.198937e-003
2.067349e+003,2.276358e-003
2.069278e+003,2.566996e-003
2.071206e+003,2.804152e-003
2.073135e+003,2.992755e-003
2.075063e+003,3.066602e-003
2.076992e+003,3.207657e-003
2.078920e+003,3.525734e-003
2.080849e+003,3.511816e-003
2.082777e+003,3.703174e-003
2.084706e+003,3.774428e-003
2.086634e+003,3.888747e-003
2.088563e+003,3.889592e-003
2.090491e+003,3.677223e-003
2.092420e+003,3.424373e-003
2.094348e+003,3.359081e-003
2.096277e+003,3.525679e-003
2.098205e+003,3.412226e-003
2.100134e+003,3.201953e-003
2.102062e+003,3.132930e-003
2.103991e+003,3.444655e-003
2.105919e+003,3.616320e-003
2.107848e+003,3.477820e-003
2.109776e+003,3.380001e-003
2.111705e+003,3.524049e-003
2.113633e+003,3.628014e-003
2.115562e+003,3.527155e-003
2.117490e+003,3.675930e-003
2.119419e+003,3.672054e-003
2.121347e+003,3.237504e-003
2.123276e+003,3.340299e-003
2.125204e+003,3.215539e-003
2.127133e+003,2.916054e-003
2.129061e+003,2.644344e-003
2.130990e+003,2.099502e-003
2.132918e+003,1.176824e-003
2.134847e+003,7.074243e-004
2.136775e+003,5.575729e-004
2.138704e+003,-2.098866e-004
2.140632e+003,-8.277274e-004
2.142561e+003,-1.484516e-003
2.144489e+003,-1.936008e-003
2.146418e+003,-3.282282e-003
2.148346e+003,-4.622133e-003
2.150275e+003,-5.057801e-003
2.152203e+003,-5.027833e-003
2.154132e+003,-6.755893e-003
2.156060e+003,-9.186768e-003
2.157989e+003,-1.125827e-002
2.159917e+003,-1.150048e-002
2.161846e+003,-9.876618e-003
2.163774e+003,-7.925663e-003
2.165703e+003,-5.184167e-003
2.167631e+003,-4.810367e-003
2.169560e+003,-4.048080e-003
2.171488e+003,-3.035413e-003
2.173417e+003,-3.042981e-003
2.175345e+003,-3.093089e-003
2.177274e+003,-3.177006e-003
2.179202e+003,-3.027055e-003
2.181131e+003,-2.413491e-003
2.183059e+003,-1.758965e-003
2.184988e+003,-1.964243e-003
2.186916e+003,-1.925914e-003
2.188845e+003,-1.086364e-003
2.190773e+003,1.901936e-005
2.192702e+003,3.780251e-004
2.194630e+003,3.379993e-004
2.196559e+003,7.874149e-004
2.198487e+003,6.590057e-004
2.200416e+003,1.730936e-004
2.202344e+003,5.545871e-004
2.204273e+003,1.371062e-003
2.206201e+003,1.283386e-003
2.208130e+003,1.192639e-003
2.210058e+003,1.389975e-003
2.211987e+003,1.831397e-003
2.213915e+003,2.133031e-003
2.215844e+003,2.039776e-003
2.217772e+003,2.399690e-003
2.219701e+003,2.405454e-003
2.221629e+003,2.787547e-003
2.223558e+003,3.037792e-003
2.225486e+003,3.060916e-003
2.227415e+003,3.204089e-003
2.229343e+003,3.354456e-003
2.231272e+003,3.864392e-003
2.233200e+003,4.428606e-003
2.235129e+003,4.345392e-003
2.237057e+003,4.115836e-003
2.238986e+003,4.019789e-003
2.240914e+003,4.435877e-003
2.242843e+003,4.673391e-003
2.244771e+003,4.824102e-003
2.246700e+003,4.878957e-003
2.248628e+003,4.909769e-003
2.250557e+003,4.954422e-003
2.252485e+003,5.011867e-003
2.254414e+003,5.120541e-003
2.256342e+003,5.582808e-003
2.258271e+003,5.909708e-003
2.260199e+003,6.131926e-003
2.262128e+003,6.425301e-003
2.264056e+003,6.460797e-003
2.265985e+003,6.145268e-003
2.267913e+003,6.188453e-003
2.269842e+003,6.185693e-003
2.271770e+003,6.200595e-003
2.273699e+003,6.267344e-003
2.275627e+003,6.363357e-003
2.277556e+003,6.538388e-003
2.279484e+003,6.391918e-003
2.281413e+003,6.528756e-003
2.283341e+003,6.791952e-003
2.285270e+003,6.985486e-003
2.287198e+003,6.937222e-003
2.289127e+003,6.970106e-003
2.291055e+003,7.054955e-003
2.292984e+003,7.215654e-003
2.294912e+003,7.250161e-003
2.296841e+003,7.155121e-003
2.298769e+003,7.098046e-003
2.300698e+003,7.117494e-003
2.302626e+003,7.317350e-003
2.304555e+003,7.397980e-003
2.306483e+003,7.246334e-003
2.308412e+003,6.910603e-003
2.310340e+003,6.826054e-003
2.312269e+003,6.981081e-003
2.314197e+003,7.396504e-003
2.316125e+003,7.472677e-003
2.318054e+003,7.243148e-003
2.319983e+003,7.001206e-003
2.321911e+003,6.853359e-003
2.323840e+003,7.046065e-003
2.325768e+003,7.107564e-003
2.327697e+003,7.000955e-003
2.329625e+003,7.193956e-003
2.331553e+003,6.949709e-003
2.333482e+003,7.006735e-003
2.335411e+003,7.381943e-003
2.337339e+003,7.540540e-003
2.339268e+003,7.489789e-003
2.341196e+003,7.764108e-003
2.343125e+003,7.795604e-003
2.345053e+003,8.034095e-003
2.346981e+003,8.007201e-003
2.348910e+003,8.189425e-003
2.350839e+003,8.247923e-003
2.352767e+003,8.172568e-003
2.354696e+003,8.606042e-003
2.356624e+003,8.630655e-003
2.358552e+003,8.409544e-003
2.360481e+003,8.470831e-003
2.362409e+003,8.643662e-003
2.364338e+003,9.257463e-003
2.366267e+003,9.281627e-003
2.368195e+003,8.908470e-003
2.370124e+003,8.665613e-003
2.372052e+003,8.874675e-003
2.373980e+003,8.954639e-003
2.375909e+003,9.081624e-003
2.377838e+003,9.131161e-003
2.379766e+003,9.062314e-003
2.381695e+003,8.834654e-003
2.383623e+003,8.799560e-003
2.385552e+003,8.993700e-003
2.387480e+003,9.061872e-003
2.389408e+003,8.941825e-003
2.391337e+003,8.966305e-003
2.393266e+003,8.975520e-003
2.395194e+003,8.877238e-003
2.397123e+003,8.701206e-003
2.399051e+003,8.547581e-003
2.400979e+003,8.439939e-003
2.402908e+003,8.231305e-003
2.404836e+003,8.135819e-003
2.406765e+003,8.096895e-003
2.408694e+003,8.137980e-003
2.410622e+003,8.102566e-003
2.412551e+003,7.954529e-003
2.414479e+003,7.760294e-003
2.416407e+003,7.764949e-003
2.418336e+003,7.797535e-003
2.420264e+003,7.817236e-003
2.422193e+003,7.916431e-003
2.424122e+003,7.940626e-003
2.426050e+003,7.998941e-003
2.427979e+003,7.997457e-003
2.429907e+003,7.954225e-003
2.431835e+003,7.951424e-003
2.433764e+003,7.920919e-003
2.435692e+003,7.891832e-003
2.437621e+003,7.967319e-003
2.439550e+003,7.955609e-003
2.441478e+003,7.788460e-003
2.443406e+003,7.798715e-003
2.445335e+003,7.901820e-003
2.447263e+003,7.975486e-003
2.449192e+003,7.868450e-003
2.451121e+003,7.830866e-003
2.453049e+003,7.884106e-003
2.454978e+003,7.946801e-003
2.456906e+003,7.862411e-003
2.458834e+003,7.830090e-003
2.460763e+003,7.967656e-003
2.462691e+003,8.066379e-003
2.464620e+003,8.019361e-003
2.466549e+003,7.829853e-003
2.468477e+003,7.868990e-003
2.470406e+003,7.999043e-003
2.472334e+003,8.028440e-003
2.474262e+003,8.084641e-003
2.476191e+003,8.014940e-003
2.478119e+003,7.953921e-003
2.480048e+003,7.986016e-003
2.481977e+003,8.009573e-003
2.483905e+003,7.888391e-003
2.485833e+003,7.749938e-003
2.487762e+003,7.854718e-003
2.489690e+003,7.933134e-003
2.491619e+003,7.897771e-003
2.493547e+003,8.031882e-003
2.495476e+003,7.885017e-003
2.497405e+003,7.787246e-003
2.499333e+003,7.808971e-003
2.501261e+003,7.816932e-003
2.503190e+003,7.841560e-003
2.505118e+003,7.814571e-003
2.507047e+003,7.889774e-003
2.508975e+003,7.913968e-003
2.510904e+003,7.752738e-003
2.512833e+003,7.808600e-003
2.514761e+003,7.916059e-003
2.516689e+003,7.843213e-003
2.518618e+003,7.818450e-003
2.520546e+003,7.827323e-003
2.522475e+003,7.801144e-003
2.524403e+003,7.820407e-003
2.526332e+003,7.930468e-003
2.528260e+003,7.897602e-003
2.530189e+003,7.827289e-003
2.532117e+003,7.936677e-003
2.534046e+003,8.076809e-003
2.535974e+003,8.150978e-003
2.537903e+003,8.061586e-003
2.539831e+003,8.112120e-003
2.541760e+003,8.260042e-003
2.543688e+003,8.132106e-003
2.545617e+003,8.142740e-003
2.547545e+003,8.237450e-003
2.549474e+003,8.195884e-003
2.551402e+003,8.247041e-003
2.553331e+003,8.369742e-003
2.555259e+003,8.405211e-003
2.557188e+003,8.418149e-003
2.559116e+003,8.469637e-003
2.561045e+003,8.448825e-003
2.562973e+003,8.471529e-003
2.564902e+003,8.590711e-003
2.566830e+003,8.586520e-003
2.568759e+003,8.577025e-003
2.570687e+003,8.610787e-003
2.572616e+003,8.651447e-003
2.574544e+003,8.699852e-003
2.576473e+003,8.807499e-003
2.578401e+003,8.892040e-003
2.580330e+003,9.044694e-003
2.582258e+003,9.056670e-003
2.584187e+003,8.989992e-003
2.586115e+003,9.087019e-003
2.588044e+003,9.183999e-003
2.589972e+003,9.209280e-003
2.591901e+003,9.236559e-003
2.593829e+003,9.231686e-003
2.595758e+003,9.270271e-003
2.597686e+003,9.348706e-003
2.599615e+003,9.468434e-003
2.601543e+003,9.539149e-003
2.603472e+003,9.643548e-003
2.605400e+003,9.731640e-003
2.607329e+003,9.709277e-003
2.609257e+003,9.679969e-003
2.611186e+003,9.695419e-003
2.613114e+003,9.679698e-003
2.615043e+003,9.750650e-003
2.616971e+003,9.840527e-003
2.618900e+003,9.884861e-003
2.620828e+003,9.893674e-003
2.622757e+003,9.906556e-003
2.624685e+003,9.927777e-003
2.626614e+003,1.005129e-002
2.628542e+003,1.009321e-002
2.630471e+003,1.010999e-002
2.632399e+003,1.007791e-002
2.634328e+003,1.008388e-002
2.636256e+003,1.011254e-002
2.638185e+003,1.017606e-002
2.640113e+003,1.020039e-002
2.642042e+003,1.018817e-002
2.643970e+003,1.021433e-002
2.645899e+003,1.022501e-002
2.647827e+003,1.027393e-002
2.649756e+003,1.033738e-002
2.651684e+003,1.032194e-002
2.653613e+003,1.032330e-002
2.655541e+003,1.032018e-002
2.657470e+003,1.032079e-002
2.659398e+003,1.033630e-002
2.661327e+003,1.036453e-002
2.663255e+003,1.043186e-002
2.665184e+003,1.048868e-002
2.667112e+003,1.043203e-002
2.669041e+003,1.034315e-002
2.670969e+003,1.037196e-002
2.672898e+003,1.043627e-002
2.674826e+003,1.043033e-002
2.676755e+003,1.033321e-002
2.678683e+003,1.029772e-002
2.680612e+003,1.039806e-002
2.682540e+003,1.038818e-002
2.684469e+003,1.033684e-002
2.686397e+003,1.036453e-002
2.688326e+003,1.038285e-002
2.690254e+003,1.036880e-002
2.692183e+003,1.036863e-002
2.694111e+003,1.035757e-002
2.696040e+003,1.036836e-002
2.697968e+003,1.037267e-002
2.699897e+003,1.040583e-002
2.701825e+003,1.041893e-002
2.703754e+003,1.036874e-002
2.705682e+003,1.038044e-002
2.707611e+003,1.041218e-002
2.709539e+003,1.040736e-002
2.711468e+003,1.041554e-002
2.713396e+003,1.045837e-002
2.715325e+003,1.049795e-002
2.717253e+003,1.054690e-002
2.719182e+003,1.054252e-002
2.721110e+003,1.052490e-002
2.723039e+003,1.047089e-002
2.724967e+003,1.047996e-002
2.726896e+003,1.051787e-002
2.728824e+003,1.052931e-002
2.730753e+003,1.053440e-002
2.732681e+003,1.055759e-002
2.734610e+003,1.056489e-002
2.736538e+003,1.058923e-002
2.738467e+003,1.059898e-002
2.740395e+003,1.056421e-002
2.742324e+003,1.055226e-002
2.744252e+003,1.058621e-002
2.746181e+003,1.063364e-002
2.748109e+003,1.060746e-002
2.750038e+003,1.060302e-002
2.751966e+003,1.063748e-002
2.753895e+003,1.070387e-002
2.755823e+003,1.068733e-002
2.757752e+003,1.064614e-002
2.759680e+003,1.070098e-002
2.761609e+003,1.073552e-002
2.763537e+003,1.074904e-002
2.765466e+003,1.080529e-002
2.767394e+003,1.083583e-002
2.769323e+003,1.082533e-002
2.771251e+003,1.082975e-002
2.773180e+003,1.082156e-002
2.775108e+003,1.080896e-002
2.777037e+003,1.084279e-002
2.778965e+003,1.091682e-002
2.780894e+003,1.090690e-002
2.782822e+003,1.092528e-002
2.784750e+003,1.097340e-002
2.786679e+003,1.097781e-002
2.788608e+003,1.096055e-002
2.790536e+003,1.095433e-002
2.792465e+003,1.099559e-002
2.794393e+003,1.106529e-002
2.796322e+003,1.111179e-002
2.798250e+003,1.112950e-002
2.800178e+003,1.116959e-002
2.802107e+003,1.119726e-002
2.804036e+003,1.121909e-002
2.805964e+003,1.125469e-002
2.807893e+003,1.127638e-002
2.809821e+003,1.126550e-002
2.811750e+003,1.132760e-002
2.813678e+003,1.137875e-002
2.815606e+003,1.142233e-002
2.817535e+003,1.144022e-002
2.819464e+003,1.146179e-002
2.821392e+003,1.151653e-002
2.823321e+003,1.157281e-002
2.825249e+003,1.159592e-002
2.827177e+003,1.165275e-002
2.829106e+003,1.175466e-002
2.831034e+003,1.185616e-002
2.832963e+003,1.191487e-002
2.834892e+003,1.201657e-002
2.836820e+003,1.208395e-002
2.838749e+003,1.214552e-002
2.840677e+003,1.222345e-002
2.842605e+003,1.234493e-002
2.844534e+003,1.247306e-002
2.846462e+003,1.253250e-002
2.848391e+003,1.266058e-002
2.850320e+003,1.282377e-002
2.852248e+003,1.293211e-002
2.854177e+003,1.298482e-002
2.856105e+003,1.296512e-002
2.858033e+003,1.302712e-002
2.859962e+003,1.317361e-002
2.861890e+003,1.321040e-002
2.863819e+003,1.326543e-002
2.865748e+003,1.328562e-002
2.867676e+003,1.322010e-002
2.869604e+003,1.324323e-002
2.871533e+003,1.330499e-002
2.873461e+003,1.336936e-002
2.875390e+003,1.341157e-002
2.877319e+003,1.341779e-002
2.879247e+003,1.338905e-002
2.881176e+003,1.340446e-002
2.883104e+003,1.339978e-002
2.885032e+003,1.348245e-002
2.886961e+003,1.350979e-002
2.888889e+003,1.356230e-002
2.890818e+003,1.356804e-002
2.892747e+003,1.354056e-002
2.894675e+003,1.348867e-002
2.896604e+003,1.349058e-002
2.898532e+003,1.347872e-002
2.900460e+003,1.346884e-002
2.902389e+003,1.343446e-002
2.904317e+003,1.343354e-002
2.906246e+003,1.341779e-002
2.908175e+003,1.343320e-002
2.910103e+003,1.345555e-002
2.912031e+003,1.347035e-002
2.913960e+003,1.344557e-002
2.915888e+003,1.337675e-002
2.917817e+003,1.338177e-002
2.919745e+003,1.341461e-002
2.921674e+003,1.337804e-002
2.923603e+003,1.324357e-002
2.925531e+003,1.316583e-002
2.927459e+003,1.315350e-002
2.929388e+003,1.309889e-002
2.931316e+003,1.301295e-002
2.933245e+003,1.292661e-002
2.935173e+003,1.280986e-002
2.937102e+003,1.267628e-002
2.939031e+003,1.264441e-002
2.940959e+003,1.248118e-002
2.942887e+003,1.232627e-002
2.944816e+003,1.224814e-002
2.946744e+003,1.215133e-002
2.948673e+003,1.201556e-002
2.950601e+003,1.184765e-002
2.952530e+003,1.170123e-002
2.954458e+003,1.162463e-002
2.956387e+003,1.157604e-002
2.958315e+003,1.149418e-002
2.960244e+003,1.142617e-002
2.962172e+003,1.133959e-002
2.964101e+003,1.121518e-002
2.966029e+003,1.116353e-002
2.967958e+003,1.113767e-002
2.969886e+003,1.111662e-002
2.971815e+003,1.105264e-002
2.973743e+003,1.101178e-002
2.975672e+003,1.097836e-002
2.977600e+003,1.091562e-002
2.979529e+003,1.093657e-002
2.981457e+003,1.086915e-002
2.983386e+003,1.081948e-002
2.985314e+003,1.077922e-002
2.987243e+003,1.070573e-002
2.989171e+003,1.071282e-002
2.991100e+003,1.065563e-002
2.993028e+003,1.067283e-002
2.994957e+003,1.070018e-002
2.996885e+003,1.065185e-002
2.998814e+003,1.063435e-002
3.000742e+003,1.067996e-002
3.002671e+003,1.068005e-002
3.004599e+003,1.065166e-002
3.006528e+003,1.068803e-002
3.008456e+003,1.073157e-002
3.010385e+003,1.073458e-002
3.012313e+003,1.073647e-002
3.014242e+003,1.068574e-002
3.016170e+003,1.064906e-002
3.018099e+003,1.068092e-002
3.020027e+003,1.075989e-002
3.021956e+003,1.080977e-002
3.023884e+003,1.086273e-002
3.025813e+003,1.082419e-002
3.027741e+003,1.083241e-002
3.029670e+003,1.086417e-002
3.031598e+003,1.089685e-002
3.033527e+003,1.095768e-002
3.035455e+003,1.092234e-002
3.037384e+003,1.092862e-002
3.039312e+003,1.102530e-002
3.041241e+003,1.108037e-002
3.043169e+003,1.110910e-002
3.045098e+003,1.120497e-002
3.047026e+003,1.126436e-002
3.048955e+003,1.132349e-002
3.050883e+003,1.134924e-002
3.052812e+003,1.134813e-002
3.054740e+003,1.137953e-002
3.056669e+003,1.144719e-002
3.058597e+003,1.150043e-002
3.060526e+003,1.151173e-002
3.062454e+003,1.143779e-002
3.064383e+003,1.145235e-002
3.066311e+003,1.150872e-002
3.068240e+003,1.152520e-002
3.070168e+003,1.164978e-002
3.072097e+003,1.170987e-002
3.074025e+003,1.168992e-002
3.075954e+003,1.172432e-002
3.077882e+003,1.181013e-002
3.079811e+003,1.179201e-002
3.081739e+003,1.185594e-002
3.083668e+003,1.186377e-002
3.085596e+003,1.180388e-002
3.087525e+003,1.188360e-002
3.089453e+003,1.195928e-002
3.091382e+003,1.205653e-002
3.093310e+003,1.210804e-002
3.095239e+003,1.211818e-002
3.097167e+003,1.214293e-002
3.099096e+003,1.215209e-002
3.101024e+003,1.207400e-002
3.102953e+003,1.209697e-002
3.104881e+003,1.213647e-002
3.106810e+003,1.220625e-002
3.108738e+003,1.223062e-002
3.110667e+003,1.225685e-002
3.112595e+003,1.233398e-002
3.114524e+003,1.240375e-002
3.116452e+003,1.240110e-002
3.118381e+003,1.247327e-002
3.120309e+003,1.253847e-002
3.122238e+003,1.254380e-002
3.124166e+003,1.261297e-002
3.126095e+003,1.269368e-002
3.128023e+003,1.276871e-002
3.129952e+003,1.285140e-002
3.131880e+003,1.289341e-002
3.133809e+003,1.293877e-002
3.135737e+003,1.294334e-002
3.137666e+003,1.290511e-002
3.139594e+003,1.295726e-002
3.141523e+003,1.302334e-002
3.143451e+003,1.309948e-002
3.145380e+003,1.316515e-002
3.147308e+003,1.318597e-002
3.149237e+003,1.317571e-002
3.151165e+003,1.328244e-002
3.153094e+003,1.341374e-002
3.155022e+003,1.347856e-002
3.156951e+003,1.351898e-002
3.158879e+003,1.358905e-002
3.160808e+003,1.361282e-002
3.162736e+003,1.359845e-002
3.164665e+003,1.367836e-002
3.166593e+003,1.378037e-002
3.168522e+003,1.385444e-002
3.170450e+003,1.389572e-002
3.172379e+003,1.397263e-002
3.174307e+003,1.404514e-002
3.176236e+003,1.410654e-002
3.178164e+003,1.420016e-002
3.180093e+003,1.423662e-002
3.182021e+003,1.427595e-002
3.183950e+003,1.435787e-002
3.185878e+003,1.444795e-002
3.187807e+003,1.450896e-002
3.189735e+003,1.458351e-002
3.191664e+003,1.470600e-002
3.193592e+003,1.480345e-002
3.195521e+003,1.484992e-002
3.197449e+003,1.485750e-002
3.199378e+003,1.487469e-002
3.201306e+003,1.492455e-002
3.203235e+003,1.500340e-002
3.205163e+003,1.506662e-002
3.207092e+003,1.520326e-002
3.209020e+003,1.530692e-002
3.210948e+003,1.539132e-002
3.212877e+003,1.545796e-002
3.214806e+003,1.546479e-002
3.216734e+003,1.550682e-002
3.218663e+003,1.560033e-002
3.220591e+003,1.570272e-002
3.222520e+003,1.579734e-002
3.224448e+003,1.590909e-002
3.226376e+003,1.600884e-002
3.228305e+003,1.607096e-002
3.230234e+003,1.612077e-002
3.232162e+003,1.619616e-002
3.234091e+003,1.638778e-002
3.236019e+003,1.650054e-002
3.237948e+003,1.651707e-002
3.239876e+003,1.655659e-002
3.241804e+003,1.673963e-002
3.243733e+003,1.679901e-002
3.245662e+003,1.686308e-002
3.247590e+003,1.697045e-002
3.249519e+003,1.704787e-002
3.251447e+003,1.712057e-002
3.253375e+003,1.724092e-002
3.255304e+003,1.731228e-002
3.257232e+003,1.734929e-002
3.259161e+003,1.752513e-002
3.261090e+003,1.760089e-002
3.263018e+003,1.766114e-002
3.264947e+003,1.770292e-002
3.266875e+003,1.778702e-002
3.268803e+003,1.787815e-002
3.270732e+003,1.790808e-002
3.272660e+003,1.790581e-002
3.274589e+003,1.792188e-002
3.276518e+003,1.798582e-002
3.278446e+003,1.810565e-002
3.280375e+003,1.811390e-002
3.282303e+003,1.809009e-002
3.284231e+003,1.815355e-002
3.286160e+003,1.820627e-002
3.288088e+003,1.816706e-002
3.290017e+003,1.810871e-002
3.291946e+003,1.806402e-002
3.293874e+003,1.813038e-002
3.295802e+003,1.821261e-002
3.297731e+003,1.821213e-002
3.299659e+003,1.820600e-002
3.301588e+003,1.827284e-002
3.303516e+003,1.826034e-002
3.305445e+003,1.821674e-002
3.307374e+003,1.824871e-002
3.309302e+003,1.830404e-002
3.311230e+003,1.828401e-002
3.313159e+003,1.827986e-002
3.315087e+003,1.821924e-002
3.317016e+003,1.828455e-002
3.318944e+003,1.836545e-002
3.320873e+003,1.840037e-002
3.322802e+003,1.846698e-002
3.324730e+003,1.851483e-002
3.326658e+003,1.848395e-002
3.328587e+003,1.852674e-002
3.330515e+003,1.858370e-002
3.332444e+003,1.853295e-002
3.334372e+003,1.849242e-002
3.336301e+003,1.848023e-002
3.338229e+003,1.843904e-002
3.340158e+003,1.838484e-002
3.342086e+003,1.839823e-002
3.344015e+003,1.834814e-002
3.345943e+003,1.822238e-002
3.347872e+003,1.820118e-002
3.349800e+003,1.817784e-002
3.351729e+003,1.810621e-002
3.353657e+003,1.798784e-002
3.355586e+003,1.798408e-002
3.357514e+003,1.789027e-002
3.359443e+003,1.782478e-002
3.361371e+003,1.775583e-002
3.363300e+003,1.769089e-002
3.365229e+003,1.764330e-002
3.367157e+003,1.759314e-002
3.369085e+003,1.747538e-002
3.371014e+003,1.741749e-002
3.372942e+003,1.738199e-002
3.374871e+003,1.734402e-002
3.376799e+003,1.728185e-002
3.378728e+003,1.718753e-002
3.380656e+003,1.717217e-002
3.382585e+003,1.713547e-002
3.384513e+003,1.702221e-002
3.386442e+003,1.689445e-002
3.388370e+003,1.685284e-002
3.390299e+003,1.689554e-002
3.392227e+003,1.684448e-002
3.394156e+003,1.673728e-002
3.396084e+003,1.666487e-002
3.398013e+003,1.659892e-002
3.399941e+003,1.652274e-002
3.401870e+003,1.638849e-002
3.403798e+003,1.632880e-002
3.405727e+003,1.625021e-002
3.407655e+003,1.611926e-002
3.409584e+003,1.610406e-002
3.411512e+003,1.604306e-002
3.413441e+003,1.591957e-002
3.415369e+003,1.580012e-002
3.417298e+003,1.573375e-002
3.419226e+003,1.572149e-002
3.421155e+003,1.559908e-002
3.423083e+003,1.553411e-002
3.425012e+003,1.538477e-002
3.426940e+003,1.522990e-002
3.428869e+003,1.511918e-002
3.430797e+003,1.498750e-002
3.432726e+003,1.481698e-002
3.434654e+003,1.474523e-002
3.436583e+003,1.460298e-002
3.438511e+003,1.445357e-002
3.440440e+003,1.430786e-002
3.442368e+003,1.415418e-002
3.444297e+003,1.416870e-002
3.446225e+003,1.415284e-002
3.448154e+003,1.401575e-002
3.450082e+003,1.384152e-002
3.452011e+003,1.375098e-002
3.453939e+003,1.365314e-002
3.455868e+003,1.351966e-002
3.457796e+003,1.346103e-002
3.459725e+003,1.329024e-002
3.461653e+003,1.319756e-002
3.463582e+003,1.314475e-002
3.465510e+003,1.297943e-002
3.467439e+003,1.282264e-002
3.469367e+003,1.272685e-002
3.471296e+003,1.255053e-002
3.473224e+003,1.236728e-002
3.475153e+003,1.220341e-002
3.477081e+003,1.215879e-002
3.479010e+003,1.214791e-002
3.480938e+003,1.199267e-002
3.482867e+003,1.182997e-002
3.484795e+003,1.178960e-002
3.486724e+003,1.177420e-002
3.488652e+003,1.162629e-002
3.490581e+003,1.155895e-002
3.492509e+003,1.144621e-002
3.494438e+003,1.132688e-002
3.496366e+003,1.122056e-002
3.498295e+003,1.110833e-002
3.500223e+003,1.107760e-002
3.502152e+003,1.103595e-002
3.504080e+003,1.093078e-002
3.506009e+003,1.074822e-002
3.507937e+003,1.063310e-002
3.509866e+003,1.061123e-002
3.511794e+003,1.051629e-002
3.513723e+003,1.039128e-002
3.515651e+003,1.022588e-002
3.517580e+003,1.007474e-002
3.519508e+003,1.003135e-002
3.521437e+003,9.965473e-003
3.523365e+003,9.917769e-003
3.525294e+003,9.867514e-003
3.527222e+003,9.780476e-003
3.529151e+003,9.602061e-003
3.531079e+003,9.459319e-003
3.533008e+003,9.372037e-003
3.534936e+003,9.295261e-003
3.536865e+003,9.296547e-003
3.538793e+003,9.204916e-003
3.540722e+003,9.117346e-003
3.542650e+003,8.977730e-003
3.544579e+003,8.892022e-003
3.546507e+003,8.807858e-003
3.548436e+003,8.752336e-003
3.550364e+003,8.740452e-003
3.552293e+003,8.618467e-003
3.554221e+003,8.468943e-003
3.556150e+003,8.436890e-003
3.558078e+003,8.441802e-003
3.560007e+003,8.316776e-003
3.561935e+003,8.148777e-003
3.563864e+003,8.072575e-003
3.565792e+003,8.042856e-003
3.567721e+003,8.048786e-003
3.569649e+003,7.996077e-003
3.571578e+003,7.920797e-003
3.573506e+003,7.933082e-003
3.575435e+003,7.839918e-003
3.577363e+003,7.741059e-003
3.579292e+003,7.845064e-003
3.581220e+003,7.823166e-003
3.583149e+003,7.913543e-003
3.585077e+003,7.822216e-003
3.587006e+003,7.864055e-003
3.588934e+003,8.030195e-003
3.590863e+003,8.216118e-003
3.592791e+003,8.258415e-003
3.594720e+003,8.197631e-003
3.596648e+003,8.128599e-003
3.598577e+003,8.118499e-003
3.600505e+003,8.132943e-003
3.602434e+003,8.111663e-003
3.604362e+003,8.007467e-003
3.606291e+003,7.757531e-003
3.608219e+003,7.556380e-003
3.610148e+003,7.281781e-003
3.612076e+003,6.864268e-003
3.614005e+003,6.870179e-003
3.615933e+003,7.172398e-003
3.617862e+003,7.343632e-003
3.619790e+003,7.490252e-003
3.621719e+003,7.737861e-003
3.623647e+003,7.962951e-003
3.625576e+003,8.041508e-003
3.627504e+003,7.994392e-003
3.629433e+003,7.846668e-003
3.631361e+003,7.710840e-003
3.633290e+003,7.474322e-003
3.635218e+003,7.189124e-003
3.637146e+003,6.841853e-003
3.639075e+003,6.656538e-003
3.641004e+003,6.528707e-003
3.642932e+003,6.397275e-003
3.644861e+003,6.189232e-003
3.646789e+003,5.997173e-003
3.648718e+003,6.007730e-003
3.650646e+003,6.111479e-003
3.652574e+003,6.185496e-003
3.654503e+003,6.016172e-003
3.656432e+003,5.901849e-003
3.658360e+003,5.952308e-003
3.660289e+003,6.054230e-003
3.662217e+003,6.032032e-003
3.664146e+003,6.029952e-003
3.666074e+003,6.027974e-003
3.668002e+003,5.973079e-003
3.669931e+003,6.020896e-003
3.671860e+003,6.027346e-003
3.673788e+003,5.988213e-003
3.675717e+003,6.078562e-003
3.677645e+003,6.153541e-003
3.679573e+003,6.192937e-003
3.681502e+003,6.373395e-003
3.683430e+003,6.666191e-003
3.685359e+003,6.803090e-003
3.687288e+003,6.811297e-003
3.689216e+003,6.936959e-003
3.691145e+003,7.162131e-003
3.693073e+003,7.232095e-003
3.695001e+003,7.397426e-003
3.696930e+003,7.653963e-003
3.698858e+003,7.690398e-003
3.700787e+003,7.738641e-003
3.702716e+003,7.808398e-003
3.704644e+003,7.930788e-003
3.706573e+003,7.899930e-003
3.708501e+003,7.598876e-003
3.710429e+003,7.257337e-003
3.712358e+003,6.963726e-003
3.714286e+003,6.633828e-003
3.716215e+003,6.769502e-003
3.718144e+003,7.270085e-003
3.720072e+003,7.820867e-003
3.722000e+003,8.228664e-003
3.723929e+003,8.512924e-003
3.725857e+003,8.742836e-003
3.727786e+003,8.886407e-003
3.729714e+003,8.867662e-003
3.731643e+003,8.725572e-003
3.733572e+003,8.398710e-003
3.735500e+003,8.213137e-003
3.737428e+003,7.939846e-003
3.739357e+003,7.521333e-003
3.741285e+003,7.230157e-003
3.743214e+003,7.118559e-003
3.745142e+003,6.947796e-003
3.747071e+003,6.689149e-003
3.749000e+003,6.603067e-003
3.750928e+003,6.501859e-003
3.752856e+003,6.494111e-003
3.754785e+003,6.508503e-003
3.756713e+003,6.472559e-003
3.758642e+003,6.443078e-003
3.760570e+003,6.534016e-003
3.762499e+003,6.576564e-003
3.764427e+003,6.515032e-003
3.766356e+003,6.421420e-003
3.768284e+003,6.488180e-003
3.770213e+003,6.565862e-003
3.772141e+003,6.642434e-003
3.774070e+003,6.574117e-003
3.775998e+003,6.484324e-003
3.777927e+003,6.454211e-003
3.779855e+003,6.523792e-003
3.781784e+003,6.527892e-003
3.783712e+003,6.510819e-003
3.785641e+003,6.483831e-003
3.787569e+003,6.431140e-003
3.789498e+003,6.536858e-003
3.791426e+003,6.583802e-003
3.793355e+003,6.551728e-003
3.795283e+003,6.508128e-003
3.797212e+003,6.473586e-003
3.799140e+003,6.538586e-003
3.801069e+003,6.611522e-003
3.802997e+003,6.577128e-003
3.804926e+003,6.591023e-003
3.806854e+003,6.614831e-003
3.808783e+003,6.585857e-003
3.810711e+003,6.588434e-003
3.812640e+003,6.605719e-003
3.814568e+003,6.623804e-003
3.816497e+003,6.667334e-003
3.818425e+003,6.526814e-003
3.820354e+003,6.476586e-003
3.822282e+003,6.597389e-003
3.824211e+003,6.564447e-003
3.826139e+003,6.561231e-003
3.828068e+003,6.677021e-003
3.829996e+003,6.605521e-003
3.831925e+003,6.587389e-003
3.833853e+003,6.638508e-003
3.835782e+003,6.685785e-003
3.837710e+003,6.764207e-003
3.839639e+003,6.580958e-003
3.841567e+003,6.504755e-003
3.843496e+003,6.598596e-003
3.845424e+003,6.646557e-003
3.847353e+003,6.674730e-003
3.849281e+003,6.692342e-003
3.851210e+003,6.692688e-003
3.853138e+003,6.780707e-003
3.855067e+003,6.827702e-003
3.856995e+003,6.678265e-003
3.858924e+003,6.686918e-003
3.860852e+003,6.657371e-003
3.862781e+003,6.670643e-003
3.864709e+003,6.733692e-003
3.866638e+003,6.747497e-003
3.868566e+003,6.642062e-003
3.870495e+003,6.681262e-003
3.872423e+003,6.691480e-003
3.874352e+003,6.766232e-003
3.876280e+003,6.789656e-003
3.878209e+003,6.718861e-003
3.880137e+003,6.658632e-003
3.882066e+003,6.742227e-003
3.883994e+003,6.761856e-003
3.885923e+003,6.805866e-003
3.887851e+003,6.817285e-003
3.889780e+003,6.791888e-003
3.891708e+003,6.785854e-003
3.893637e+003,6.750169e-003
3.895565e+003,6.679750e-003
3.897494e+003,6.702182e-003
3.899422e+003,6.747121e-003
3.901351e+003,6.837059e-003
3.903279e+003,6.795730e-003
3.905208e+003,6.768789e-003
3.907136e+003,6.840973e-003
3.909065e+003,6.844507e-003
3.910993e+003,6.750681e-003
3.912922e+003,6.722606e-003
3.914850e+003,6.762038e-003
3.916779e+003,6.808805e-003
3.918707e+003,6.776266e-003
3.920636e+003,6.654969e-003
3.922564e+003,6.662018e-003
3.924493e+003,6.732635e-003
3.926421e+003,6.810490e-003
3.928350e+003,6.770025e-003
3.930278e+003,6.785925e-003
3.932207e+003,6.806519e-003
3.934135e+003,6.851781e-003
3.936064e+003,6.876511e-003
3.937992e+003,6.834076e-003
3.939921e+003,6.801231e-003
3.941849e+003,6.762022e-003
3.943778e+003,6.751964e-003
3.945706e+003,6.764698e-003
3.947635e+003,6.794767e-003
3.949563e+003,6.792110e-003
3.951492e+003,6.868002e-003
3.953420e+003,6.824026e-003
3.955349e+003,6.878417e-003
3.957277e+003,6.790393e-003
3.959206e+003,6.624303e-003
3.961134e+003,6.709270e-003
3.963063e+003,6.723386e-003
3.964991e+003,6.773385e-003
3.966920e+003,6.849917e-003
3.968848e+003,6.869487e-003
3.970777e+003,6.843562e-003
3.972705e+003,6.862491e-003
3.974634e+003,6.906058e-003
3.976562e+003,6.872257e-003
3.978491e+003,6.829597e-003
3.980419e+003,6.875706e-003
3.982348e+003,6.786976e-003
3.984276e+003,6.759751e-003
3.986205e+003,6.846471e-003
3.988133e+003,6.799177e-003
3.990062e+003,6.775312e-003
3.991990e+003,6.828857e-003
3.993919e+003,6.797264e-003
3.995847e+003,6.698690e-003
3.997776e+003,6.651499e-003
3.999704e+003,6.651777e-003
4.001633e+003,0.000000e+000
