3.991989e+002,8.111546e-003
4.011274e+002,1.189294e-002
4.030559e+002,1.189294e-002
4.049844e+002,9.298164e-003
4.069129e+002,9.577220e-003
4.088414e+002,1.108450e-002
4.107699e+002,1.256483e-002
4.126984e+002,1.255289e-002
4.146269e+002,1.205564e-002
4.165554e+002,1.277975e-002
4.184839e+002,1.556166e-002
4.204124e+002,1.340336e-002
4.223409e+002,1.331487e-002
4.242694e+002,1.518158e-002
4.261979e+002,1.672452e-002
4.281264e+002,1.604750e-002
4.300549e+002,1.524706e-002
4.319834e+002,1.606700e-002
4.339119e+002,1.704457e-002
4.358404e+002,1.504168e-002
4.377689e+002,1.472371e-002
4.396974e+002,1.508641e-002
4.416259e+002,1.605025e-002
4.435544e+002,1.646179e-002
4.454829e+002,1.572138e-002
4.474114e+002,1.577890e-002
4.493399e+002,1.690362e-002
4.512684e+002,1.672917e-002
4.531969e+002,1.668936e-002
4.551254e+002,1.666491e-002
4.570539e+002,1.665707e-002
4.589824e+002,1.693466e-002
4.609109e+002,1.702152e-002
4.628394e+002,1.592653e-002
4.647679e+002,1.664040e-002
4.666964e+002,1.669187e-002
4.686249e+002,1.680951e-002
4.705533e+002,1.628408e-002
4.724819e+002,1.616995e-002
4.744103e+002,1.560727e-002
4.763389e+002,1.622110e-002
4.782673e+002,1.684151e-002
4.801959e+002,1.730344e-002
4.821243e+002,1.631095e-002
4.840529e+002,1.565347e-002
4.859813e+002,1.545102e-002
4.879099e+002,1.590117e-002
4.898383e+002,1.612501e-002
4.917668e+002,1.617037e-002
4.936953e+002,1.544803e-002
4.956238e+002,1.580171e-002
4.975523e+002,1.628869e-002
4.994808e+002,1.616153e-002
5.014093e+002,1.604816e-002
5.033378e+002,1.641878e-002
5.052663e+002,1.672617e-002
5.071948e+002,1.721208e-002
5.091233e+002,1.657341e-002
5.110518e+002,1.701800e-002
5.129803e+002,1.711822e-002
5.149088e+002,1.731913e-002
5.168373e+002,1.726576e-002
5.187658e+002,1.722449e-002
5.206943e+002,1.740249e-002
5.226228e+002,1.785494e-002
5.245513e+002,1.747819e-002
5.264798e+002,1.758800e-002
5.284083e+002,1.729834e-002
5.303368e+002,1.719136e-002
5.322653e+002,1.746212e-002
5.341938e+002,1.752611e-002
5.361223e+002,1.691530e-002
5.380508e+002,1.684826e-002
5.399792e+002,1.692212e-002
5.419078e+002,1.722194e-002
5.438363e+002,1.678158e-002
5.457648e+002,1.670506e-002
5.476932e+002,1.661472e-002
5.496218e+002,1.665417e-002
5.515503e+002,1.690537e-002
5.534788e+002,1.724811e-002
5.554072e+002,1.714403e-002
5.573358e+002,1.729131e-002
5.592643e+002,1.727476e-002
5.611927e+002,1.737824e-002
5.631212e+002,1.684413e-002
5.650497e+002,1.660208e-002
5.669783e+002,1.664099e-002
5.689067e+002,1.696336e-002
5.708352e+002,1.679691e-002
5.727637e+002,1.677252e-002
5.746923e+002,1.679622e-002
5.766207e+002,1.674714e-002
5.785492e+002,1.677514e-002
5.804777e+002,1.690251e-002
5.824063e+002,1.636919e-002
5.843347e+002,1.633334e-002
5.862632e+002,1.626155e-002
5.881917e+002,1.633238e-002
5.901202e+002,1.637095e-002
5.920487e+002,1.626047e-002
5.939772e+002,1.630032e-002
5.959057e+002,1.642761e-002
5.978342e+002,1.608169e-002
5.997627e+002,1.624106e-002
6.016912e+002,1.609326e-002
6.036197e+002,1.602660e-002
6.055482e+002,1.591423e-002
6.074767e+002,1.589947e-002
6.094052e+002,1.582381e-002
6.113337e+002,1.570735e-002
6.132622e+002,1.532078e-002
6.151907e+002,1.541846e-002
6.171192e+002,1.518969e-002
6.190477e+002,1.514673e-002
6.209762e+002,1.516036e-002
6.229047e+002,1.503704e-002
6.248332e+002,1.444108e-002
6.267617e+002,1.414867e-002
6.286902e+002,1.374469e-002
6.306187e+002,1.347964e-002
6.325472e+002,1.335104e-002
6.344756e+002,1.354344e-002
6.364042e+002,1.344411e-002
6.383326e+002,1.329991e-002
6.402612e+002,1.307902e-002
6.421896e+002,1.319297e-002
6.441182e+002,1.295273e-002
6.460466e+002,1.271240e-002
6.479752e+002,1.251479e-002
6.499036e+002,1.271682e-002
6.518322e+002,1.290344e-002
6.537606e+002,1.272436e-002
6.556891e+002,1.251011e-002
6.576177e+002,1.246821e-002
6.595461e+002,1.239073e-002
6.614746e+002,1.238829e-002
6.634031e+002,1.233130e-002
6.653317e+002,1.219147e-002
6.672601e+002,1.215472e-002
6.691886e+002,1.221573e-002
6.711171e+002,1.209665e-002
6.730457e+002,1.198918e-002
6.749741e+002,1.174216e-002
6.769026e+002,1.163794e-002
6.788311e+002,1.142102e-002
6.807596e+002,1.125162e-002
6.826881e+002,1.097538e-002
6.846166e+002,1.093646e-002
6.865451e+002,1.078964e-002
6.884736e+002,1.078051e-002
6.904021e+002,1.078310e-002
6.923306e+002,1.074233e-002
6.942591e+002,1.053894e-002
6.961876e+002,1.040032e-002
6.981161e+002,1.022201e-002
7.000446e+002,1.025889e-002
7.019731e+002,1.020228e-002
7.039016e+002,1.031297e-002
7.058301e+002,1.026911e-002
7.077585e+002,1.017109e-002
7.096871e+002,1.010185e-002
7.116156e+002,1.018785e-002
7.135441e+002,1.009381e-002
7.154725e+002,1.006633e-002
7.174011e+002,9.868797e-003
7.193296e+002,9.614778e-003
7.212581e+002,9.669978e-003
7.231865e+002,9.848466e-003
7.251151e+002,9.696655e-003
7.270436e+002,9.581655e-003
7.289720e+002,9.450679e-003
7.309005e+002,9.433974e-003
7.328290e+002,9.369529e-003
7.347576e+002,9.378138e-003
7.366860e+002,9.207588e-003
7.386145e+002,9.058096e-003
7.405430e+002,8.907893e-003
7.424716e+002,8.830414e-003
7.444000e+002,8.688637e-003
7.463285e+002,8.714446e-003
7.482570e+002,8.736481e-003
7.501855e+002,8.603089e-003
7.521140e+002,8.495071e-003
7.540425e+002,8.548652e-003
7.559710e+002,8.394047e-003
7.578995e+002,8.417858e-003
7.598280e+002,8.277772e-003
7.617565e+002,8.238700e-003
7.636850e+002,8.230933e-003
7.656135e+002,8.189266e-003
7.675420e+002,8.065806e-003
7.694705e+002,8.109690e-003
7.713990e+002,8.030296e-003
7.733275e+002,7.955237e-003
7.752560e+002,7.897265e-003
7.771844e+002,7.941638e-003
7.791130e+002,8.025132e-003
7.810415e+002,8.000257e-003
7.829700e+002,7.797400e-003
7.848984e+002,7.728351e-003
7.868270e+002,7.672499e-003
7.887555e+002,7.547028e-003
7.906840e+002,7.352807e-003
7.926124e+002,7.292758e-003
7.945410e+002,7.120711e-003
7.964695e+002,7.156482e-003
7.983979e+002,7.127245e-003
8.003264e+002,7.134218e-003
8.022549e+002,7.161636e-003
8.041835e+002,7.215637e-003
8.061119e+002,7.312167e-003
8.080404e+002,7.328678e-003
8.099689e+002,7.399517e-003
8.118975e+002,7.615306e-003
8.138259e+002,7.617802e-003
8.157545e+002,7.556165e-003
8.176830e+002,7.528553e-003
8.196115e+002,7.594131e-003
8.215399e+002,7.513079e-003
8.234684e+002,7.667643e-003
8.253970e+002,7.752603e-003
8.273254e+002,7.711521e-003
8.292539e+002,7.686833e-003
8.311824e+002,7.857552e-003
8.331110e+002,7.834273e-003
8.350394e+002,7.823342e-003
8.369679e+002,7.824253e-003
8.388964e+002,7.893587e-003
8.408250e+002,7.796287e-003
8.427534e+002,7.708452e-003
8.446819e+002,7.730274e-003
8.466104e+002,7.841121e-003
8.485389e+002,7.745992e-003
8.504674e+002,7.703055e-003
8.523959e+002,7.633651e-003
8.543244e+002,7.625794e-003
8.562529e+002,7.683932e-003
8.581814e+002,7.695332e-003
8.601099e+002,7.691217e-003
8.620384e+002,7.764577e-003
8.639669e+002,7.732803e-003
8.658954e+002,7.832957e-003
8.678239e+002,7.842809e-003
8.697524e+002,7.994891e-003
8.716809e+002,8.008527e-003
8.736094e+002,7.981830e-003
8.755378e+002,7.965530e-003
8.774664e+002,8.060607e-003
8.793949e+002,8.104828e-003
8.813234e+002,8.247918e-003
8.832518e+002,8.425211e-003
8.851804e+002,8.643470e-003
8.871089e+002,8.814972e-003
8.890374e+002,8.994524e-003
8.909658e+002,9.290006e-003
8.928943e+002,9.593785e-003
8.948229e+002,9.657032e-003
8.967513e+002,9.659404e-003
8.986798e+002,9.618039e-003
9.006083e+002,9.536202e-003
9.025369e+002,9.387235e-003
9.044653e+002,9.207521e-003
9.063938e+002,9.131886e-003
9.083223e+002,9.043002e-003
9.102509e+002,8.868400e-003
9.121793e+002,8.876178e-003
9.141078e+002,8.797626e-003
9.160364e+002,8.845506e-003
9.179648e+002,8.904959e-003
9.198933e+002,8.923730e-003
9.218218e+002,8.876956e-003
9.237504e+002,8.924000e-003
9.256788e+002,8.964351e-003
9.276073e+002,9.142815e-003
9.295358e+002,9.201124e-003
9.314644e+002,9.341327e-003
9.333928e+002,9.494071e-003
9.353213e+002,9.635316e-003
9.372498e+002,9.745499e-003
9.391783e+002,9.886522e-003
9.411068e+002,1.001972e-002
9.430353e+002,1.022759e-002
9.449637e+002,1.042921e-002
9.468923e+002,1.071314e-002
9.488208e+002,1.102087e-002
9.507493e+002,1.127934e-002
9.526777e+002,1.150078e-002
9.546063e+002,1.185415e-002
9.565348e+002,1.229738e-002
9.584633e+002,1.267108e-002
9.603917e+002,1.290989e-002
9.623203e+002,1.319322e-002
9.642488e+002,1.350996e-002
9.661772e+002,1.388646e-002
9.681057e+002,1.412186e-002
9.700343e+002,1.441496e-002
9.719628e+002,1.477835e-002
9.738912e+002,1.518230e-002
9.758197e+002,1.554040e-002
9.777483e+002,1.588343e-002
9.796768e+002,1.628697e-002
9.816052e+002,1.679584e-002
9.835337e+002,1.730862e-002
9.854623e+002,1.777381e-002
9.873907e+002,1.811823e-002
9.893192e+002,1.833108e-002
9.912477e+002,1.841895e-002
9.931763e+002,1.856375e-002
9.951047e+002,1.868636e-002
9.970332e+002,1.868882e-002
9.989617e+002,1.870677e-002
1.000890e+003,1.892438e-002
1.002819e+003,1.914355e-002
1.004747e+003,1.936373e-002
1.006676e+003,1.953130e-002
1.008604e+003,1.964371e-002
1.010533e+003,1.978764e-002
1.012461e+003,2.003455e-002
1.014390e+003,2.024359e-002
1.016318e+003,2.062729e-002
1.018247e+003,2.105999e-002
1.020175e+003,2.148319e-002
1.022104e+003,2.185897e-002
1.024032e+003,2.240717e-002
1.025961e+003,2.293539e-002
1.027889e+003,2.351693e-002
1.029818e+003,2.396991e-002
1.031746e+003,2.430590e-002
1.033675e+003,2.456251e-002
1.035603e+003,2.470846e-002
1.037532e+003,2.457776e-002
1.039460e+003,2.433306e-002
1.041389e+003,2.404839e-002
1.043317e+003,2.380975e-002
1.045246e+003,2.359930e-002
1.047174e+003,2.352018e-002
1.049103e+003,2.340284e-002
1.051031e+003,2.330452e-002
1.052960e+003,2.313744e-002
1.054888e+003,2.292180e-002
1.056817e+003,2.258071e-002
1.058745e+003,2.219765e-002
1.060674e+003,2.172393e-002
1.062602e+003,2.125077e-002
1.064531e+003,2.068876e-002
1.066459e+003,2.014307e-002
1.068388e+003,1.959820e-002
1.070316e+003,1.905093e-002
1.072245e+003,1.857994e-002
1.074173e+003,1.830340e-002
1.076102e+003,1.791146e-002
1.078030e+003,1.738176e-002
1.079959e+003,1.690961e-002
1.081887e+003,1.656680e-002
1.083816e+003,1.621611e-002
1.085744e+003,1.597473e-002
1.087673e+003,1.575151e-002
1.089601e+003,1.557292e-002
1.091530e+003,1.543856e-002
1.093458e+003,1.536588e-002
1.095387e+003,1.514779e-002
1.097315e+003,1.501482e-002
1.099244e+003,1.500306e-002
1.101172e+003,1.498546e-002
1.103101e+003,1.494623e-002
1.105029e+003,1.492664e-002
1.106958e+003,1.481829e-002
1.108886e+003,1.463971e-002
1.110815e+003,1.439427e-002
1.112743e+003,1.403284e-002
1.114672e+003,1.366702e-002
1.116600e+003,1.324145e-002
1.118529e+003,1.283910e-002
1.120457e+003,1.259481e-002
1.122386e+003,1.228940e-002
1.124314e+003,1.193663e-002
1.126243e+003,1.158829e-002
1.128171e+003,1.122089e-002
1.130100e+003,1.076640e-002
1.132028e+003,1.034936e-002
1.133957e+003,9.951914e-003
1.135885e+003,9.691014e-003
1.137814e+003,9.481371e-003
1.139742e+003,9.294508e-003
1.141671e+003,9.193949e-003
1.143599e+003,9.301076e-003
1.145528e+003,9.413138e-003
1.147456e+003,9.605980e-003
1.149385e+003,9.760613e-003
1.151313e+003,9.969951e-003
1.153242e+003,1.020968e-002
1.155170e+003,1.044038e-002
1.157099e+003,1.061198e-002
1.159027e+003,1.070584e-002
1.160956e+003,1.075213e-002
1.162884e+003,1.070903e-002
1.164813e+003,1.048847e-002
1.166741e+003,1.017386e-002
1.168670e+003,9.715952e-003
1.170598e+003,9.252400e-003
1.172526e+003,8.777373e-003
1.174455e+003,8.259029e-003
1.176384e+003,7.812884e-003
1.178312e+003,7.512371e-003
1.180240e+003,7.194817e-003
1.182169e+003,6.925064e-003
1.184098e+003,6.740577e-003
1.186026e+003,6.604610e-003
1.187954e+003,6.498452e-003
1.189883e+003,6.488959e-003
1.191812e+003,6.560112e-003
1.193740e+003,6.612794e-003
1.195668e+003,6.698230e-003
1.197597e+003,6.856893e-003
1.199526e+003,6.953242e-003
1.201454e+003,7.018620e-003
1.203382e+003,7.080350e-003
1.205311e+003,7.099465e-003
1.207240e+003,7.086730e-003
1.209168e+003,7.138048e-003
1.211096e+003,7.164327e-003
1.213025e+003,7.229488e-003
1.214953e+003,7.312746e-003
1.216882e+003,7.440247e-003
1.218810e+003,7.554323e-003
1.220739e+003,7.686771e-003
1.222667e+003,7.866072e-003
1.224596e+003,8.007808e-003
1.226524e+003,8.119872e-003
1.228453e+003,8.264906e-003
1.230381e+003,8.415356e-003
1.232310e+003,8.526048e-003
1.234238e+003,8.630438e-003
1.236167e+003,8.726873e-003
1.238095e+003,8.735035e-003
1.240024e+003,8.759296e-003
1.241952e+003,8.763733e-003
1.243881e+003,8.728370e-003
1.245809e+003,8.619869e-003
1.247738e+003,8.555193e-003
1.249666e+003,8.457289e-003
1.251595e+003,8.339701e-003
1.253523e+003,8.214423e-003
1.255452e+003,8.080979e-003
1.257380e+003,7.880991e-003
1.259309e+003,7.691695e-003
1.261237e+003,7.506106e-003
1.263166e+003,7.346159e-003
1.265094e+003,7.286950e-003
1.267023e+003,7.213732e-003
1.268951e+003,7.124747e-003
1.270880e+003,7.051152e-003
1.272808e+003,6.940361e-003
1.274737e+003,6.861589e-003
1.276665e+003,6.784720e-003
1.278594e+003,6.730248e-003
1.280522e+003,6.667023e-003
1.282451e+003,6.585132e-003
1.284379e+003,6.476881e-003
1.286308e+003,6.408541e-003
1.288236e+003,6.379568e-003
1.290165e+003,6.355986e-003
1.292093e+003,6.311635e-003
1.294022e+003,6.300820e-003
1.295950e+003,6.318541e-003
1.297879e+003,6.362772e-003
1.299807e+003,6.427851e-003
1.301736e+003,6.517096e-003
1.303664e+003,6.622306e-003
1.305593e+003,6.771707e-003
1.307521e+003,6.876254e-003
1.309450e+003,6.949159e-003
1.311378e+003,7.032119e-003
1.313307e+003,7.125206e-003
1.315235e+003,7.189535e-003
1.317164e+003,7.201646e-003
1.319092e+003,7.129747e-003
1.321021e+003,7.118155e-003
1.322949e+003,7.076393e-003
1.324878e+003,7.021413e-003
1.326806e+003,6.982915e-003
1.328735e+003,6.962324e-003
1.330663e+003,6.935315e-003
1.332592e+003,6.935610e-003
1.334520e+003,6.926907e-003
1.336449e+003,6.901788e-003
1.338377e+003,6.842748e-003
1.340306e+003,6.786225e-003
1.342234e+003,6.731560e-003
1.344163e+003,6.715597e-003
1.346091e+003,6.645803e-003
1.348020e+003,6.622183e-003
1.349948e+003,6.661586e-003
1.351877e+003,6.734462e-003
1.353805e+003,6.780170e-003
1.355734e+003,6.858014e-003
1.357662e+003,6.891752e-003
1.359591e+003,6.927796e-003
1.361519e+003,6.990687e-003
1.363448e+003,7.061088e-003
1.365376e+003,7.155629e-003
1.367305e+003,7.200572e-003
1.369233e+003,7.212397e-003
1.371162e+003,7.186072e-003
1.373090e+003,7.100808e-003
1.375019e+003,6.998396e-003
1.376947e+003,6.929385e-003
1.378876e+003,6.829828e-003
1.380804e+003,6.667600e-003
1.382733e+003,6.492571e-003
1.384661e+003,6.319759e-003
1.386590e+003,6.169880e-003
1.388518e+003,6.083510e-003
1.390447e+003,6.039740e-003
1.392375e+003,5.970209e-003
1.394304e+003,5.907315e-003
1.396232e+003,5.870373e-003
1.398161e+003,5.845528e-003
1.400089e+003,5.858074e-003
1.402018e+003,5.869649e-003
1.403946e+003,5.840436e-003
1.405875e+003,5.887379e-003
1.407803e+003,5.964084e-003
1.409732e+003,6.028865e-003
1.411660e+003,6.081919e-003
1.413589e+003,6.152913e-003
1.415517e+003,6.183478e-003
1.417446e+003,6.224210e-003
1.419374e+003,6.301836e-003
1.421303e+003,6.407023e-003
1.423231e+003,6.389727e-003
1.425160e+003,6.395474e-003
1.427088e+003,6.389681e-003
1.429017e+003,6.337650e-003
1.430945e+003,6.279528e-003
1.432874e+003,6.225633e-003
1.434802e+003,6.130316e-003
1.436731e+003,6.046171e-003
1.438659e+003,6.009033e-003
1.440588e+003,5.943533e-003
1.442516e+003,5.897680e-003
1.444445e+003,5.904864e-003
1.446373e+003,5.935756e-003
1.448302e+003,5.948187e-003
1.450230e+003,5.942810e-003
1.452159e+003,5.945620e-003
1.454087e+003,5.929209e-003
1.456016e+003,5.926572e-003
1.457944e+003,5.861892e-003
1.459873e+003,5.815438e-003
1.461801e+003,5.821791e-003
1.463730e+003,5.711345e-003
1.465658e+003,5.585826e-003
1.467587e+003,5.472125e-003
1.469515e+003,5.315500e-003
1.471444e+003,5.105956e-003
1.473372e+003,4.950091e-003
1.475301e+003,4.818046e-003
1.477229e+003,4.738455e-003
1.479158e+003,4.703631e-003
1.481086e+003,4.616345e-003
1.483015e+003,4.571927e-003
1.484943e+003,4.583917e-003
1.486872e+003,4.617209e-003
1.488800e+003,4.621163e-003
1.490729e+003,4.706220e-003
1.492657e+003,4.826315e-003
1.494586e+003,4.921469e-003
1.496514e+003,5.031248e-003
1.498443e+003,5.048579e-003
1.500371e+003,5.090713e-003
1.502300e+003,5.160246e-003
1.504228e+003,5.231263e-003
1.506157e+003,5.250768e-003
1.508085e+003,5.294239e-003
1.510014e+003,5.333363e-003
1.511942e+003,5.380684e-003
1.513871e+003,5.360729e-003
1.515799e+003,5.247859e-003
1.517728e+003,5.165967e-003
1.519656e+003,5.102758e-003
1.521585e+003,4.994036e-003
1.523513e+003,4.900944e-003
1.525442e+003,4.821613e-003
1.527370e+003,4.795544e-003
1.529299e+003,4.795918e-003
1.531227e+003,4.741880e-003
1.533156e+003,4.710332e-003
1.535084e+003,4.784441e-003
1.537013e+003,4.797698e-003
1.538941e+003,4.759638e-003
1.540870e+003,4.703096e-003
1.542798e+003,4.711647e-003
1.544727e+003,4.732826e-003
1.546655e+003,4.749062e-003
1.548584e+003,4.679380e-003
1.550512e+003,4.645529e-003
1.552441e+003,4.638394e-003
1.554369e+003,4.653698e-003
1.556298e+003,4.590231e-003
1.558226e+003,4.553370e-003
1.560155e+003,4.701349e-003
1.562083e+003,4.633849e-003
1.564012e+003,4.564383e-003
1.565940e+003,4.622580e-003
1.567869e+003,4.666683e-003
1.569797e+003,4.691321e-003
1.571726e+003,4.761034e-003
1.573654e+003,4.785046e-003
1.575583e+003,4.882553e-003
1.577511e+003,4.931765e-003
1.579440e+003,4.932397e-003
1.581368e+003,5.016022e-003
1.583297e+003,5.074538e-003
1.585225e+003,5.180134e-003
1.587154e+003,5.276029e-003
1.589082e+003,5.326218e-003
1.591010e+003,5.344358e-003
1.592939e+003,5.396104e-003
1.594868e+003,5.443170e-003
1.596796e+003,5.456694e-003
1.598724e+003,5.448123e-003
1.600653e+003,5.450096e-003
1.602582e+003,5.466497e-003
1.604510e+003,5.474162e-003
1.606438e+003,5.464317e-003
1.608367e+003,5.406915e-003
1.610296e+003,5.438079e-003
1.612224e+003,5.489544e-003
1.614152e+003,5.535402e-003
1.616081e+003,5.607702e-003
1.618010e+003,5.734525e-003
1.619938e+003,5.729901e-003
1.621866e+003,5.757230e-003
1.623795e+003,5.845828e-003
1.625724e+003,5.901073e-003
1.627652e+003,5.914451e-003
1.629580e+003,5.961858e-003
1.631509e+003,5.981219e-003
1.633438e+003,5.933975e-003
1.635366e+003,5.917426e-003
1.637294e+003,5.955415e-003
1.639223e+003,5.840711e-003
1.641151e+003,5.810978e-003
1.643080e+003,5.830296e-003
1.645008e+003,5.833988e-003
1.646937e+003,5.801131e-003
1.648865e+003,5.785899e-003
1.650794e+003,5.832204e-003
1.652722e+003,5.852500e-003
1.654651e+003,5.818816e-003
1.656579e+003,5.681962e-003
1.658508e+003,5.617193e-003
1.660436e+003,5.516950e-003
1.662365e+003,5.411093e-003
1.664293e+003,5.385595e-003
1.666222e+003,5.312309e-003
1.668150e+003,5.182040e-003
1.670079e+003,5.102996e-003
1.672007e+003,5.042040e-003
1.673936e+003,4.972180e-003
1.675864e+003,4.960864e-003
1.677793e+003,4.893935e-003
1.679721e+003,4.820904e-003
1.681650e+003,4.717484e-003
1.683578e+003,4.736958e-003
1.685507e+003,4.826101e-003
1.687435e+003,4.680549e-003
1.689364e+003,4.618836e-003
1.691292e+003,4.594581e-003
1.693221e+003,4.564963e-003
1.695149e+003,4.649560e-003
1.697078e+003,4.657134e-003
1.699006e+003,4.523685e-003
1.700935e+003,4.540332e-003
1.702863e+003,4.525774e-003
1.704792e+003,4.494254e-003
1.706720e+003,4.551523e-003
1.708649e+003,4.639752e-003
1.710577e+003,4.688266e-003
1.712506e+003,4.726796e-003
1.714434e+003,4.715323e-003
1.716363e+003,4.767773e-003
1.718291e+003,4.830549e-003
1.720220e+003,4.829573e-003
1.722148e+003,4.833829e-003
1.724077e+003,4.870542e-003
1.726005e+003,4.872044e-003
1.727934e+003,4.868109e-003
1.729862e+003,4.859053e-003
1.731791e+003,4.798222e-003
1.733719e+003,4.789955e-003
1.735648e+003,4.822524e-003
1.737576e+003,4.667385e-003
1.739505e+003,4.578991e-003
1.741433e+003,4.482378e-003
1.743362e+003,4.338375e-003
1.745290e+003,4.209171e-003
1.747219e+003,4.099303e-003
1.749147e+003,4.022007e-003
1.751076e+003,3.957657e-003
1.753004e+003,3.862696e-003
1.754933e+003,3.770479e-003
1.756861e+003,3.722372e-003
1.758790e+003,3.644395e-003
1.760718e+003,3.565331e-003
1.762647e+003,3.570121e-003
1.764575e+003,3.514782e-003
1.766504e+003,3.493117e-003
1.768432e+003,3.422348e-003
1.770361e+003,3.358579e-003
1.772289e+003,3.359914e-003
1.774218e+003,3.336590e-003
1.776146e+003,3.311523e-003
1.778075e+003,3.331454e-003
1.780003e+003,3.265680e-003
1.781932e+003,3.216352e-003
1.783860e+003,3.194100e-003
1.785789e+003,3.255172e-003
1.787717e+003,3.271351e-003
1.789646e+003,3.247406e-003
1.791574e+003,3.291735e-003
1.793503e+003,3.305006e-003
1.795431e+003,3.241752e-003
1.797360e+003,3.238762e-003
1.799288e+003,3.257850e-003
1.801217e+003,3.309948e-003
1.803145e+003,3.295432e-003
1.805074e+003,3.187381e-003
1.807002e+003,3.188366e-003
1.808931e+003,3.237986e-003
1.810859e+003,3.230481e-003
1.812788e+003,3.245714e-003
1.814716e+003,3.169546e-003
1.816645e+003,3.098705e-003
1.818573e+003,3.069976e-003
1.820502e+003,3.099844e-003
1.822430e+003,3.164763e-003
1.824359e+003,3.134125e-003
1.826287e+003,3.051467e-003
1.828216e+003,3.006704e-003
1.830144e+003,3.010046e-003
1.832073e+003,3.058323e-003
1.834001e+003,3.091590e-003
1.835930e+003,3.008409e-003
1.837858e+003,2.967662e-003
1.839787e+003,3.059383e-003
1.841715e+003,3.025332e-003
1.843644e+003,3.055682e-003
1.845572e+003,3.100910e-003
1.847501e+003,3.014380e-003
1.849429e+003,2.992241e-003
1.851358e+003,3.004531e-003
1.853286e+003,3.083012e-003
1.855215e+003,3.155964e-003
1.857143e+003,3.006618e-003
1.859072e+003,2.855976e-003
1.861000e+003,2.838123e-003
1.862929e+003,2.893461e-003
1.864857e+003,2.965036e-003
1.866786e+003,2.945180e-003
1.868714e+003,2.746270e-003
1.870643e+003,2.646280e-003
1.872571e+003,2.616070e-003
1.874500e+003,2.565657e-003
1.876428e+003,2.521183e-003
1.878357e+003,2.481429e-003
1.880285e+003,2.438481e-003
1.882214e+003,2.555133e-003
1.884142e+003,2.608287e-003
1.886071e+003,2.563038e-003
1.887999e+003,2.564575e-003
1.889928e+003,2.508341e-003
1.891856e+003,2.495475e-003
1.893785e+003,2.513127e-003
1.895713e+003,2.193564e-003
1.897642e+003,1.962465e-003
1.899570e+003,2.043250e-003
1.901499e+003,2.104795e-003
1.903427e+003,2.045129e-003
1.905356e+003,2.093713e-003
1.907284e+003,2.158200e-003
1.909213e+003,2.143769e-003
1.911141e+003,2.093050e-003
1.913070e+003,1.836334e-003
1.914998e+003,1.791379e-003
1.916927e+003,1.687227e-003
1.918855e+003,1.685038e-003
1.920784e+003,1.819909e-003
1.922712e+003,1.633740e-003
1.924641e+003,1.468882e-003
1.926569e+003,1.431696e-003
1.928498e+003,1.378838e-003
1.930426e+003,1.380774e-003
1.932355e+003,1.289850e-003
1.934283e+003,9.959367e-004
1.936212e+003,1.140705e-003
1.938140e+003,7.797435e-004
1.940069e+003,3.498098e-004
1.941997e+003,4.758666e-004
1.943926e+003,5.245782e-004
1.945854e+003,4.023629e-004
1.947783e+003,4.113223e-004
1.949711e+003,3.186369e-004
1.951640e+003,-1.262317e-004
1.953568e+003,-6.055380e-004
1.955497e+003,-5.966040e-004
1.957425e+003,-1.081984e-003
1.959354e+003,-1.711820e-003
1.961282e+003,-1.434968e-003
1.963211e+003,-8.435280e-004
1.965139e+003,-1.469510e-003
1.967068e+003,-2.202195e-003
1.968996e+003,-2.740195e-003
1.970925e+003,-3.111276e-003
1.972853e+003,-3.547448e-003
1.974782e+003,-4.579219e-003
1.976710e+003,-5.236417e-003
1.978639e+003,-4.378938e-003
1.980567e+003,-3.540859e-003
1.982496e+003,-2.658323e-003
1.984424e+003,-2.330207e-003
1.986353e+003,-1.998509e-003
1.988281e+003,-1.647953e-003
1.990210e+003,-1.441265e-003
1.992138e+003,-2.365986e-003
1.994067e+003,-2.609470e-003
1.995995e+003,-2.296943e-003
1.997924e+003,-2.499380e-003
1.999852e+003,-3.111209e-003
2.001781e+003,-2.673666e-003
2.003709e+003,-2.604596e-003
2.005638e+003,-3.587201e-003
2.007566e+003,-3.941856e-003
2.009495e+003,-3.216366e-003
2.011423e+003,-3.691537e-003
2.013352e+003,-4.051636e-003
2.015280e+003,-4.172554e-003
2.017208e+003,-4.590526e-003
2.019137e+003,-4.493043e-003
2.021066e+003,-4.465912e-003
2.022994e+003,-4.175684e-003
2.024922e+003,-4.542194e-003
2.026851e+003,-5.001252e-003
2.028780e+003,-4.770486e-003
2.030708e+003,-4.372334e-003
2.032636e+003,-3.206322e-003
2.034565e+003,-3.034249e-003
2.036494e+003,-2.645288e-003
2.038422e+003,-2.662960e-003
2.040350e+003,-2.279949e-003
2.042279e+003,-2.398998e-003
2.044208e+003,-3.027625e-003
2.046136e+003,-2.488891e-003
2.048064e+003,-1.085833e-003
2.049993e+003,-4.240992e-004
2.051921e+003,-4.774155e-005
2.053850e+003,1.653364e-004
2.055778e+003,4.730364e-004
2.057707e+003,6.713501e-004
2.059635e+003,9.656673e-004
2.061564e+003,9.576969e-004
2.063492e+003,8.603354e-004
2.065421e+003,5.111931e-004
2.067349e+003,7.998099e-004
2.069278e+003,8.326246e-004
2.071206e+003,7.000432e-004
2.073135e+003,1.021886e-003
2.075063e+003,1.273707e-003
2.076992e+003,1.220689e-003
2.078920e+003,1.246304e-003
2.080849e+003,1.349239e-003
2.082777e+003,1.689632e-003
2.084706e+003,1.694304e-003
2.086634e+003,1.275402e-003
2.088563e+003,1.297997e-003
2.090491e+003,1.560766e-003
2.092420e+003,1.460286e-003
2.094348e+003,1.267247e-003
2.096277e+003,1.288749e-003
2.098205e+003,1.119483e-003
2.100134e+003,1.074274e-003
2.102062e+003,1.222343e-003
2.103991e+003,1.458688e-003
2.105919e+003,1.365777e-003
2.107848e+003,1.162737e-003
2.109776e+003,1.103970e-003
2.111705e+003,1.330412e-003
2.113633e+003,1.570341e-003
2.115562e+003,1.723137e-003
2.117490e+003,1.681856e-003
2.119419e+003,1.569809e-003
2.121347e+003,1.558769e-003
2.123276e+003,1.380934e-003
2.125204e+003,1.357534e-003
2.127133e+003,1.240885e-003
2.129061e+003,1.275909e-003
2.130990e+003,1.009242e-003
2.132918e+003,5.119243e-004
2.134847e+003,3.050065e-004
2.136775e+003,2.889384e-005
2.138704e+003,-3.837876e-004
2.140632e+003,-7.253276e-004
2.142561e+003,-6.477180e-004
2.144489e+003,-9.190597e-004
2.146418e+003,-1.667182e-003
2.148346e+003,-2.498363e-003
2.150275e+003,-2.991518e-003
2.152203e+003,-3.456173e-003
2.154132e+003,-4.041449e-003
2.156060e+003,-4.558004e-003
2.157989e+003,-5.971819e-003
2.159917e+003,-5.868108e-003
2.161846e+003,-4.102765e-003
2.163774e+003,-3.721365e-003
2.165703e+003,-3.459099e-003
2.167631e+003,-3.219632e-003
2.169560e+003,-2.088511e-003
2.171488e+003,-1.182698e-003
2.173417e+003,-5.524237e-004
2.175345e+003,-4.376457e-004
2.177274e+003,-1.128437e-003
2.179202e+003,-1.426956e-003
2.181131e+003,-2.113341e-003
2.183059e+003,-2.046862e-003
2.184988e+003,-1.786453e-003
2.186916e+003,-1.379727e-003
2.188845e+003,-1.013679e-003
2.190773e+003,-2.553552e-004
2.192702e+003,-3.496884e-004
2.194630e+003,-8.071237e-004
2.196559e+003,-5.044378e-004
2.198487e+003,-2.191926e-004
2.200416e+003,-1.031099e-003
2.202344e+003,-7.090195e-004
2.204273e+003,-3.498814e-005
2.206201e+003,3.707857e-005
2.208130e+003,1.324238e-004
2.210058e+003,6.455994e-004
2.211987e+003,6.715163e-004
2.213915e+003,4.826334e-004
2.215844e+003,7.523965e-004
2.217772e+003,6.190867e-004
2.219701e+003,5.060195e-004
2.221629e+003,1.035513e-003
2.223558e+003,1.150047e-003
2.225486e+003,8.713047e-004
2.227415e+003,1.102509e-003
2.229343e+003,1.636022e-003
2.231272e+003,2.096922e-003
2.233200e+003,2.135601e-003
2.235129e+003,1.836612e-003
2.237057e+003,1.830814e-003
2.238986e+003,1.923120e-003
2.240914e+003,1.948929e-003
2.242843e+003,1.728716e-003
2.244771e+003,2.216021e-003
2.246700e+003,2.518063e-003
2.248628e+003,2.387062e-003
2.250557e+003,2.187247e-003
2.252485e+003,2.232748e-003
2.254414e+003,2.417994e-003
2.256342e+003,2.588656e-003
2.258271e+003,2.446733e-003
2.260199e+003,2.237503e-003
2.262128e+003,2.454078e-003
2.264056e+003,2.703222e-003
2.265985e+003,2.759911e-003
2.267913e+003,2.871825e-003
2.269842e+003,2.838721e-003
2.271770e+003,2.638706e-003
2.273699e+003,2.437832e-003
2.275627e+003,2.392686e-003
2.277556e+003,2.641931e-003
2.279484e+003,2.696895e-003
2.281413e+003,2.649334e-003
2.283341e+003,2.750299e-003
2.285270e+003,2.811908e-003
2.287198e+003,2.884741e-003
2.289127e+003,3.118705e-003
2.291055e+003,3.095463e-003
2.292984e+003,3.064350e-003
2.294912e+003,3.139743e-003
2.296841e+003,3.050805e-003
2.298769e+003,2.882569e-003
2.300698e+003,2.918109e-003
2.302626e+003,3.022519e-003
2.304555e+003,2.908294e-003
2.306483e+003,2.790288e-003
2.308412e+003,2.528144e-003
2.310340e+003,2.474563e-003
2.312269e+003,2.843071e-003
2.314197e+003,3.210333e-003
2.316125e+003,3.302468e-003
2.318054e+003,3.014708e-003
2.319983e+003,2.793937e-003
2.321911e+003,2.606666e-003
2.323840e+003,2.477555e-003
2.325768e+003,2.257974e-003
2.327697e+003,1.988112e-003
2.329625e+003,1.881191e-003
2.331553e+003,1.903508e-003
2.333482e+003,2.055705e-003
2.335411e+003,2.379842e-003
2.337339e+003,2.498275e-003
2.339268e+003,2.495494e-003
2.341196e+003,2.708259e-003
2.343125e+003,2.928087e-003
2.345053e+003,3.214606e-003
2.346981e+003,3.205641e-003
2.348910e+003,3.511324e-003
2.350839e+003,3.552301e-003
2.352767e+003,3.425572e-003
2.354696e+003,4.221150e-003
2.356624e+003,4.447299e-003
2.358552e+003,4.182469e-003
2.360481e+003,4.046536e-003
2.362409e+003,3.732727e-003
2.364338e+003,4.485507e-003
2.366267e+003,4.741776e-003
2.368195e+003,4.430785e-003
2.370124e+003,4.303334e-003
2.372052e+003,4.265773e-003
2.373980e+003,4.181182e-003
2.375909e+003,4.195618e-003
2.377838e+003,4.266303e-003
2.379766e+003,4.307263e-003
2.381695e+003,4.137070e-003
2.383623e+003,4.167956e-003
2.385552e+003,4.331632e-003
2.387480e+003,4.289474e-003
2.389408e+003,4.209004e-003
2.391337e+003,4.298361e-003
2.393266e+003,4.355516e-003
2.395194e+003,4.285770e-003
2.397123e+003,4.213518e-003
2.399051e+003,3.987027e-003
2.400979e+003,3.912510e-003
2.402908e+003,3.862095e-003
2.404836e+003,3.816833e-003
2.406765e+003,3.847720e-003
2.408694e+003,3.845748e-003
2.410622e+003,3.760112e-003
2.412551e+003,3.639943e-003
2.414479e+003,3.475114e-003
2.416407e+003,3.403109e-003
2.418336e+003,3.422913e-003
2.420264e+003,3.530897e-003
2.422193e+003,3.588991e-003
2.424122e+003,3.646558e-003
2.426050e+003,3.708611e-003
2.427979e+003,3.816098e-003
2.429907e+003,3.830137e-003
2.431835e+003,3.929863e-003
2.433764e+003,3.942635e-003
2.435692e+003,3.975672e-003
2.437621e+003,4.092656e-003
2.439550e+003,4.108745e-003
2.441478e+003,4.075163e-003
2.443406e+003,3.929027e-003
2.445335e+003,3.986439e-003
2.447263e+003,4.153134e-003
2.449192e+003,4.041852e-003
2.451121e+003,4.144269e-003
2.453049e+003,4.181569e-003
2.454978e+003,4.142095e-003
2.456906e+003,4.061952e-003
2.458834e+003,3.983062e-003
2.460763e+003,4.058808e-003
2.462691e+003,3.994766e-003
2.464620e+003,3.935781e-003
2.466549e+003,3.884962e-003
2.468477e+003,3.902113e-003
2.470406e+003,3.825223e-003
2.472334e+003,3.840433e-003
2.474262e+003,4.050547e-003
2.476191e+003,4.076300e-003
2.478119e+003,4.002524e-003
2.480048e+003,4.002724e-003
2.481977e+003,3.997976e-003
2.483905e+003,3.926787e-003
2.485833e+003,3.841837e-003
2.487762e+003,3.797814e-003
2.489690e+003,3.910237e-003
2.491619e+003,3.956277e-003
2.493547e+003,4.091853e-003
2.495476e+003,4.028842e-003
2.497405e+003,3.948286e-003
2.499333e+003,3.983663e-003
2.501261e+003,3.966209e-003
2.503190e+003,3.908833e-003
2.505118e+003,3.833446e-003
2.507047e+003,3.829970e-003
2.508975e+003,3.747947e-003
2.510904e+003,3.663332e-003
2.512833e+003,3.778027e-003
2.514761e+003,3.847453e-003
2.516689e+003,3.730167e-003
2.518618e+003,3.721411e-003
2.520546e+003,3.822616e-003
2.522475e+003,3.815663e-003
2.524403e+003,3.683448e-003
2.526332e+003,3.728162e-003
2.528260e+003,3.793235e-003
2.530189e+003,3.774952e-003
2.532117e+003,3.804934e-003
2.534046e+003,3.816499e-003
2.535974e+003,3.832945e-003
2.537903e+003,3.825424e-003
2.539831e+003,3.829903e-003
2.541760e+003,3.823585e-003
2.543688e+003,3.814961e-003
2.545617e+003,3.869884e-003
2.547545e+003,3.823819e-003
2.549474e+003,3.771743e-003
2.551402e+003,3.858017e-003
2.553331e+003,4.124098e-003
2.555259e+003,4.075464e-003
2.557188e+003,3.928626e-003
2.559116e+003,3.899605e-003
2.561045e+003,3.916589e-003
2.562973e+003,3.992525e-003
2.564902e+003,3.959454e-003
2.566830e+003,3.895158e-003
2.568759e+003,3.958886e-003
2.570687e+003,3.960825e-003
2.572616e+003,4.000818e-003
2.574544e+003,4.059410e-003
2.576473e+003,4.121255e-003
2.578401e+003,4.197528e-003
2.580330e+003,4.175046e-003
2.582258e+003,4.084562e-003
2.584187e+003,4.097038e-003
2.586115e+003,4.206026e-003
2.588044e+003,4.274349e-003
2.589972e+003,4.393623e-003
2.591901e+003,4.499136e-003
2.593829e+003,4.535496e-003
2.595758e+003,4.469843e-003
2.597686e+003,4.379867e-003
2.599615e+003,4.434660e-003
2.601543e+003,4.486615e-003
2.603472e+003,4.571323e-003
2.605400e+003,4.678186e-003
2.607329e+003,4.614286e-003
2.609257e+003,4.507104e-003
2.611186e+003,4.573533e-003
2.613114e+003,4.660669e-003
2.615043e+003,4.680396e-003
2.616971e+003,4.629088e-003
2.618900e+003,4.605110e-003
2.620828e+003,4.612042e-003
2.622757e+003,4.697478e-003
2.624685e+003,4.756801e-003
2.626614e+003,4.841260e-003
2.628542e+003,4.817170e-003
2.630471e+003,4.820386e-003
2.632399e+003,4.756867e-003
2.634328e+003,4.744272e-003
2.636256e+003,4.797671e-003
2.638185e+003,4.801357e-003
2.640113e+003,4.762764e-003
2.642042e+003,4.753082e-003
2.643970e+003,4.770134e-003
2.645899e+003,4.802730e-003
2.647827e+003,4.831208e-003
2.649756e+003,4.822196e-003
2.651684e+003,4.816634e-003
2.653613e+003,4.841494e-003
2.655541e+003,4.819415e-003
2.657470e+003,4.822531e-003
2.659398e+003,4.820219e-003
2.661327e+003,4.848665e-003
2.663255e+003,4.831945e-003
2.665184e+003,4.824407e-003
2.667112e+003,4.819716e-003
2.669041e+003,4.771473e-003
2.670969e+003,4.762998e-003
2.672898e+003,4.776699e-003
2.674826e+003,4.852484e-003
2.676755e+003,4.841293e-003
2.678683e+003,4.745109e-003
2.680612e+003,4.774120e-003
2.682540e+003,4.815595e-003
2.684469e+003,4.809163e-003
2.686397e+003,4.840657e-003
2.688326e+003,4.868869e-003
2.690254e+003,4.838345e-003
2.692183e+003,4.824105e-003
2.694111e+003,4.824775e-003
2.696040e+003,4.906332e-003
2.697968e+003,4.949462e-003
2.699897e+003,4.945172e-003
2.701825e+003,4.984385e-003
2.703754e+003,4.992899e-003
2.705682e+003,5.012406e-003
2.707611e+003,5.009523e-003
2.709539e+003,4.989513e-003
2.711468e+003,5.023936e-003
2.713396e+003,5.043814e-003
2.715325e+003,5.053468e-003
2.717253e+003,5.092791e-003
2.719182e+003,5.096009e-003
2.721110e+003,5.084209e-003
2.723039e+003,5.046898e-003
2.724967e+003,5.023769e-003
2.726896e+003,5.045322e-003
2.728824e+003,5.099865e-003
2.730753e+003,5.074621e-003
2.732681e+003,5.033222e-003
2.734610e+003,5.021356e-003
2.736538e+003,5.029903e-003
2.738467e+003,5.061580e-003
2.740395e+003,5.019378e-003
2.742324e+003,5.013344e-003
2.744252e+003,5.036909e-003
2.746181e+003,4.984988e-003
2.748109e+003,4.982676e-003
2.750038e+003,5.067849e-003
2.751966e+003,5.098759e-003
2.753895e+003,5.085550e-003
2.755823e+003,5.052228e-003
2.757752e+003,5.065067e-003
2.759680e+003,5.110694e-003
2.761609e+003,5.110627e-003
2.763537e+003,5.122428e-003
2.765466e+003,5.106637e-003
2.767394e+003,5.105196e-003
2.769323e+003,5.092925e-003
2.771251e+003,5.075559e-003
2.773180e+003,5.072040e-003
2.775108e+003,5.067950e-003
2.777037e+003,5.112504e-003
2.778965e+003,5.132251e-003
2.780894e+003,5.120987e-003
2.782822e+003,5.117533e-003
2.784750e+003,5.093595e-003
2.786679e+003,5.083471e-003
2.788608e+003,5.041199e-003
2.790536e+003,5.035367e-003
2.792465e+003,5.093059e-003
2.794393e+003,5.082399e-003
2.796322e+003,5.066978e-003
2.798250e+003,5.088500e-003
2.800178e+003,5.140533e-003
2.802107e+003,5.122361e-003
2.804036e+003,5.138354e-003
2.805964e+003,5.136778e-003
2.807893e+003,5.138555e-003
2.809821e+003,5.145126e-003
2.811750e+003,5.128228e-003
2.813678e+003,5.124808e-003
2.815606e+003,5.184223e-003
2.817535e+003,5.200084e-003
2.819464e+003,5.193947e-003
2.821392e+003,5.235832e-003
2.823321e+003,5.240057e-003
2.825249e+003,5.238615e-003
2.827177e+003,5.229125e-003
2.829106e+003,5.257530e-003
2.831034e+003,5.316158e-003
2.832963e+003,5.361878e-003
2.834892e+003,5.342254e-003
2.836820e+003,5.320954e-003
2.838749e+003,5.361777e-003
2.840677e+003,5.373049e-003
2.842605e+003,5.406630e-003
2.844534e+003,5.479975e-003
2.846462e+003,5.520376e-003
2.848391e+003,5.488531e-003
2.850320e+003,5.498531e-003
2.852248e+003,5.597399e-003
2.854177e+003,5.640766e-003
2.856105e+003,5.620793e-003
2.858033e+003,5.609985e-003
2.859962e+003,5.674367e-003
2.861890e+003,5.724725e-003
2.863819e+003,5.704178e-003
2.865748e+003,5.720260e-003
2.867676e+003,5.717977e-003
2.869604e+003,5.657650e-003
2.871533e+003,5.645599e-003
2.873461e+003,5.723349e-003
2.875390e+003,5.777976e-003
2.877319e+003,5.784121e-003
2.879247e+003,5.766627e-003
2.881176e+003,5.740102e-003
2.883104e+003,5.728788e-003
2.885032e+003,5.715123e-003
2.886961e+003,5.761255e-003
2.888889e+003,5.846984e-003
2.890818e+003,5.822503e-003
2.892747e+003,5.776264e-003
2.894675e+003,5.764176e-003
2.896604e+003,5.752626e-003
2.898532e+003,5.686386e-003
2.900460e+003,5.695215e-003
2.902389e+003,5.678967e-003
2.904317e+003,5.677523e-003
2.906246e+003,5.726907e-003
2.908175e+003,5.734932e-003
2.910103e+003,5.717775e-003
2.912031e+003,5.719421e-003
2.913960e+003,5.729022e-003
2.915888e+003,5.712907e-003
2.917817e+003,5.737450e-003
2.919745e+003,5.770052e-003
2.921674e+003,5.751753e-003
2.923603e+003,5.655737e-003
2.925531e+003,5.619988e-003
2.927459e+003,5.608878e-003
2.929388e+003,5.622438e-003
2.931316e+003,5.619316e-003
2.933245e+003,5.659261e-003
2.935173e+003,5.626651e-003
2.937102e+003,5.586527e-003
2.939031e+003,5.569966e-003
2.940959e+003,5.503437e-003
2.942887e+003,5.411270e-003
2.944816e+003,5.353648e-003
2.946744e+003,5.403280e-003
2.948673e+003,5.402627e-003
2.950601e+003,5.314097e-003
2.952530e+003,5.254330e-003
2.954458e+003,5.218283e-003
2.956387e+003,5.173890e-003
2.958315e+003,5.137024e-003
2.960244e+003,5.170584e-003
2.962172e+003,5.165593e-003
2.964101e+003,5.104798e-003
2.966029e+003,5.058621e-003
2.967958e+003,5.055960e-003
2.969886e+003,5.069569e-003
2.971815e+003,5.041967e-003
2.973743e+003,4.988978e-003
2.975672e+003,5.025823e-003
2.977600e+003,5.017422e-003
2.979529e+003,5.055936e-003
2.981457e+003,5.099806e-003
2.983386e+003,5.088447e-003
2.985314e+003,5.125088e-003
2.987243e+003,5.128453e-003
2.989171e+003,5.048089e-003
2.991100e+003,4.927180e-003
2.993028e+003,4.904955e-003
2.994957e+003,5.017587e-003
2.996885e+003,5.038979e-003
2.998814e+003,5.038321e-003
3.000742e+003,5.057056e-003
3.002671e+003,5.050335e-003
3.004599e+003,5.020169e-003
3.006528e+003,5.018924e-003
3.008456e+003,4.993770e-003
3.010385e+003,4.994520e-003
3.012313e+003,5.051441e-003
3.014242e+003,5.052165e-003
3.016170e+003,5.046929e-003
3.018099e+003,5.072435e-003
3.020027e+003,5.118766e-003
3.021956e+003,5.100282e-003
3.023884e+003,5.115158e-003
3.025813e+003,5.115024e-003
3.027741e+003,5.073773e-003
3.029670e+003,5.095070e-003
3.031598e+003,5.098347e-003
3.033527e+003,5.088348e-003
3.035455e+003,5.055578e-003
3.037384e+003,5.062966e-003
3.039312e+003,5.101824e-003
3.041241e+003,5.117283e-003
3.043169e+003,5.098935e-003
3.045098e+003,5.123467e-003
3.047026e+003,5.113998e-003
3.048955e+003,5.185619e-003
3.050883e+003,5.302296e-003
3.052812e+003,5.353885e-003
3.054740e+003,5.319183e-003
3.056669e+003,5.320124e-003
3.058597e+003,5.353359e-003
3.060526e+003,5.369041e-003
3.062454e+003,5.356005e-003
3.064383e+003,5.318899e-003
3.066311e+003,5.294563e-003
3.068240e+003,5.327935e-003
3.070168e+003,5.411736e-003
3.072097e+003,5.436737e-003
3.074025e+003,5.368331e-003
3.075954e+003,5.341705e-003
3.077882e+003,5.338170e-003
3.079811e+003,5.374613e-003
3.081739e+003,5.498086e-003
3.083668e+003,5.495536e-003
3.085596e+003,5.409285e-003
3.087525e+003,5.422497e-003
3.089453e+003,5.471359e-003
3.091382e+003,5.561391e-003
3.093310e+003,5.511716e-003
3.095239e+003,5.541443e-003
3.097167e+003,5.550641e-003
3.099096e+003,5.564945e-003
3.101024e+003,5.498485e-003
3.102953e+003,5.443352e-003
3.104881e+003,5.431309e-003
3.106810e+003,5.505617e-003
3.108738e+003,5.546528e-003
3.110667e+003,5.571861e-003
3.112595e+003,5.542504e-003
3.114524e+003,5.551750e-003
3.116452e+003,5.553365e-003
3.118381e+003,5.560450e-003
3.120309e+003,5.597047e-003
3.122238e+003,5.656146e-003
3.124166e+003,5.690474e-003
3.126095e+003,5.738132e-003
3.128023e+003,5.741705e-003
3.129952e+003,5.719753e-003
3.131880e+003,5.666120e-003
3.133809e+003,5.723346e-003
3.135737e+003,5.748948e-003
3.137666e+003,5.745896e-003
3.139594e+003,5.850624e-003
3.141523e+003,5.896352e-003
3.143451e+003,5.838103e-003
3.145380e+003,5.854447e-003
3.147308e+003,5.837750e-003
3.149237e+003,5.826737e-003
3.151165e+003,5.823505e-003
3.153094e+003,5.862670e-003
3.155022e+003,5.900227e-003
3.156951e+003,5.874974e-003
3.158879e+003,5.915190e-003
3.160808e+003,5.909320e-003
3.162736e+003,5.932458e-003
3.164665e+003,5.998612e-003
3.166593e+003,5.995284e-003
3.168522e+003,5.955390e-003
3.170450e+003,5.940389e-003
3.172379e+003,5.950419e-003
3.174307e+003,6.026897e-003
3.176236e+003,6.059418e-003
3.178164e+003,6.076699e-003
3.180093e+003,6.169499e-003
3.182021e+003,6.228192e-003
3.183950e+003,6.216647e-003
3.185878e+003,6.129160e-003
3.187807e+003,6.153812e-003
3.189735e+003,6.168481e-003
3.191664e+003,6.191080e-003
3.193592e+003,6.272998e-003
3.195521e+003,6.369755e-003
3.197449e+003,6.342365e-003
3.199378e+003,6.331619e-003
3.201306e+003,6.370632e-003
3.203235e+003,6.396248e-003
3.205163e+003,6.389179e-003
3.207092e+003,6.435072e-003
3.209020e+003,6.470595e-003
3.210948e+003,6.486160e-003
3.212877e+003,6.453685e-003
3.214806e+003,6.523631e-003
3.216734e+003,6.527419e-003
3.218663e+003,6.519722e-003
3.220591e+003,6.539603e-003
3.222520e+003,6.513358e-003
3.224448e+003,6.610322e-003
3.226376e+003,6.684207e-003
3.228305e+003,6.613316e-003
3.230234e+003,6.621797e-003
3.232162e+003,6.640838e-003
3.234091e+003,6.644252e-003
3.236019e+003,6.688297e-003
3.237948e+003,6.779040e-003
3.239876e+003,6.876437e-003
3.241804e+003,6.906605e-003
3.243733e+003,6.925403e-003
3.245662e+003,6.948836e-003
3.247590e+003,6.894226e-003
3.249519e+003,6.902863e-003
3.251447e+003,6.925866e-003
3.253375e+003,7.008537e-003
3.255304e+003,7.053175e-003
3.257232e+003,7.149590e-003
3.259161e+003,7.211155e-003
3.261090e+003,7.205062e-003
3.263018e+003,7.160371e-003
3.264947e+003,7.173525e-003
3.266875e+003,7.258244e-003
3.268803e+003,7.268853e-003
3.270732e+003,7.239161e-003
3.272660e+003,7.203193e-003
3.274589e+003,7.233820e-003
3.276518e+003,7.275374e-003
3.278446e+003,7.260972e-003
3.280375e+003,7.212803e-003
3.282303e+003,7.270026e-003
3.284231e+003,7.330223e-003
3.286160e+003,7.352582e-003
3.288088e+003,7.307026e-003
3.290017e+003,7.311383e-003
3.291946e+003,7.369750e-003
3.293874e+003,7.325531e-003
3.295802e+003,7.304970e-003
3.297731e+003,7.343669e-003
3.299659e+003,7.352651e-003
3.301588e+003,7.336116e-003
3.303516e+003,7.395932e-003
3.305445e+003,7.399429e-003
3.307374e+003,7.437415e-003
3.309302e+003,7.415055e-003
3.311230e+003,7.423825e-003
3.313159e+003,7.466535e-003
3.315087e+003,7.447677e-003
3.317016e+003,7.508087e-003
3.318944e+003,7.574596e-003
3.320873e+003,7.540251e-003
3.322802e+003,7.501960e-003
3.324730e+003,7.498053e-003
3.326658e+003,7.552287e-003
3.328587e+003,7.595559e-003
3.330515e+003,7.596072e-003
3.332444e+003,7.544782e-003
3.334372e+003,7.507879e-003
3.336301e+003,7.537463e-003
3.338229e+003,7.598768e-003
3.340158e+003,7.547974e-003
3.342086e+003,7.530355e-003
3.344015e+003,7.562936e-003
3.345943e+003,7.579410e-003
3.347872e+003,7.627423e-003
3.349800e+003,7.640045e-003
3.351729e+003,7.551879e-003
3.353657e+003,7.451915e-003
3.355586e+003,7.461946e-003
3.357514e+003,7.528014e-003
3.359443e+003,7.435098e-003
3.361371e+003,7.477285e-003
3.363300e+003,7.398739e-003
3.365229e+003,7.367971e-003
3.367157e+003,7.334432e-003
3.369085e+003,7.299491e-003
3.371014e+003,7.256382e-003
3.372942e+003,7.221979e-003
3.374871e+003,7.262856e-003
3.376799e+003,7.315928e-003
3.378728e+003,7.276504e-003
3.380656e+003,7.351645e-003
3.382585e+003,7.320722e-003
3.384513e+003,7.311657e-003
3.386442e+003,7.324229e-003
3.388370e+003,7.258848e-003
3.390299e+003,7.197028e-003
3.392227e+003,7.265422e-003
3.394156e+003,7.316091e-003
3.396084e+003,7.278624e-003
3.398013e+003,7.183804e-003
3.399941e+003,7.147042e-003
3.401870e+003,7.081907e-003
3.403798e+003,7.062404e-003
3.405727e+003,7.068599e-003
3.407655e+003,7.038203e-003
3.409584e+003,7.037525e-003
3.411512e+003,6.987630e-003
3.413441e+003,7.024058e-003
3.415369e+003,6.978771e-003
3.417298e+003,6.863390e-003
3.419226e+003,6.859763e-003
3.421155e+003,6.786237e-003
3.423083e+003,6.800117e-003
3.425012e+003,6.809943e-003
3.426940e+003,6.750084e-003
3.428869e+003,6.783987e-003
3.430797e+003,6.807630e-003
3.432726e+003,6.751259e-003
3.434654e+003,6.726747e-003
3.436583e+003,6.630794e-003
3.438511e+003,6.576458e-003
3.440440e+003,6.540522e-003
3.442368e+003,6.455152e-003
3.444297e+003,6.466975e-003
3.446225e+003,6.474888e-003
3.448154e+003,6.379229e-003
3.450082e+003,6.375241e-003
3.452011e+003,6.359822e-003
3.453939e+003,6.348222e-003
3.455868e+003,6.325464e-003
3.457796e+003,6.214188e-003
3.459725e+003,6.203302e-003
3.461653e+003,6.307454e-003
3.463582e+003,6.330846e-003
3.465510e+003,6.232912e-003
3.467439e+003,6.157524e-003
3.469367e+003,6.127542e-003
3.471296e+003,5.995856e-003
3.473224e+003,5.899355e-003
3.475153e+003,5.878236e-003
3.477081e+003,5.909884e-003
3.479010e+003,5.895461e-003
3.480938e+003,5.882241e-003
3.482867e+003,5.818271e-003
3.484795e+003,5.872227e-003
3.486724e+003,5.895435e-003
3.488652e+003,5.785291e-003
3.490581e+003,5.737030e-003
3.492509e+003,5.754271e-003
3.494438e+003,5.802673e-003
3.496366e+003,5.799304e-003
3.498295e+003,5.692513e-003
3.500223e+003,5.697484e-003
3.502152e+003,5.704038e-003
3.504080e+003,5.702856e-003
3.506009e+003,5.601187e-003
3.507937e+003,5.549272e-003
3.509866e+003,5.579309e-003
3.511794e+003,5.576710e-003
3.513723e+003,5.515143e-003
3.515651e+003,5.524570e-003
3.517580e+003,5.422552e-003
3.519508e+003,5.395079e-003
3.521437e+003,5.435874e-003
3.523365e+003,5.474495e-003
3.525294e+003,5.437500e-003
3.527222e+003,5.301472e-003
3.529151e+003,5.263220e-003
3.531079e+003,5.283856e-003
3.533008e+003,5.360138e-003
3.534936e+003,5.435871e-003
3.536865e+003,5.389171e-003
3.538793e+003,5.226200e-003
3.540722e+003,5.100859e-003
3.542650e+003,5.026136e-003
3.544579e+003,4.986591e-003
3.546507e+003,5.126163e-003
3.548436e+003,5.183436e-003
3.550364e+003,5.096566e-003
3.552293e+003,5.079250e-003
3.554221e+003,5.059603e-003
3.556150e+003,5.044488e-003
3.558078e+003,5.048053e-003
3.560007e+003,5.010800e-003
3.561935e+003,5.063188e-003
3.563864e+003,5.019256e-003
3.565792e+003,4.936357e-003
3.567721e+003,4.970183e-003
3.569649e+003,5.110239e-003
3.571578e+003,5.149056e-003
3.573506e+003,5.177244e-003
3.575435e+003,5.156931e-003
3.577363e+003,5.126816e-003
3.579292e+003,5.169121e-003
3.581220e+003,5.298162e-003
3.583149e+003,5.429099e-003
3.585077e+003,5.473077e-003
3.587006e+003,5.536476e-003
3.588934e+003,5.839615e-003
3.590863e+003,6.032972e-003
3.592791e+003,6.094762e-003
3.594720e+003,6.078924e-003
3.596648e+003,6.244523e-003
3.598577e+003,6.445649e-003
3.600505e+003,6.432001e-003
3.602434e+003,6.226708e-003
3.604362e+003,6.178675e-003
3.606291e+003,6.020237e-003
3.608219e+003,5.629739e-003
3.610148e+003,5.176556e-003
3.612076e+003,4.784517e-003
3.614005e+003,4.854818e-003
3.615933e+003,5.235540e-003
3.617862e+003,5.570067e-003
3.619790e+003,5.945838e-003
3.621719e+003,6.390802e-003
3.623647e+003,6.633212e-003
3.625576e+003,6.738462e-003
3.627504e+003,6.639504e-003
3.629433e+003,6.472816e-003
3.631361e+003,6.263732e-003
3.633290e+003,5.908587e-003
3.635218e+003,5.675295e-003
3.637146e+003,5.319622e-003
3.639075e+003,5.091456e-003
3.641004e+003,4.904925e-003
3.642932e+003,4.840163e-003
3.644861e+003,4.575226e-003
3.646789e+003,4.431067e-003
3.648718e+003,4.406281e-003
3.650646e+003,4.315170e-003
3.652574e+003,4.358942e-003
3.654503e+003,4.340122e-003
3.656432e+003,4.345885e-003
3.658360e+003,4.384287e-003
3.660289e+003,4.473685e-003
3.662217e+003,4.481524e-003
3.664146e+003,4.302676e-003
3.666074e+003,4.319392e-003
3.668002e+003,4.229381e-003
3.669931e+003,4.333551e-003
3.671860e+003,4.432078e-003
3.673788e+003,4.379010e-003
3.675717e+003,4.496129e-003
3.677645e+003,4.525342e-003
3.679573e+003,4.651027e-003
3.681502e+003,4.899539e-003
3.683430e+003,5.203441e-003
3.685359e+003,5.346103e-003
3.687288e+003,5.383573e-003
3.689216e+003,5.512120e-003
3.691145e+003,5.791464e-003
3.693073e+003,5.955084e-003
3.695001e+003,6.116363e-003
3.696930e+003,6.388341e-003
3.698858e+003,6.530244e-003
3.700787e+003,6.677868e-003
3.702716e+003,6.856923e-003
3.704644e+003,6.937637e-003
3.706573e+003,6.712539e-003
3.708501e+003,6.366487e-003
3.710429e+003,5.967320e-003
3.712358e+003,5.537895e-003
3.714286e+003,5.122964e-003
3.716215e+003,5.164424e-003
3.718144e+003,5.809676e-003
3.720072e+003,6.533250e-003
3.722000e+003,7.060178e-003
3.723929e+003,7.474679e-003
3.725857e+003,7.684258e-003
3.727786e+003,7.814782e-003
3.729714e+003,7.800490e-003
3.731643e+003,7.648094e-003
3.733572e+003,7.395767e-003
3.735500e+003,7.028165e-003
3.737428e+003,6.616380e-003
3.739357e+003,6.100238e-003
3.741285e+003,5.551313e-003
3.743214e+003,5.265696e-003
3.745142e+003,5.134965e-003
3.747071e+003,4.849195e-003
3.749000e+003,4.731359e-003
3.750928e+003,4.582400e-003
3.752856e+003,4.576198e-003
3.754785e+003,4.589964e-003
3.756713e+003,4.581212e-003
3.758642e+003,4.454468e-003
3.760570e+003,4.421387e-003
3.762499e+003,4.514119e-003
3.764427e+003,4.461428e-003
3.766356e+003,4.388073e-003
3.768284e+003,4.391355e-003
3.770213e+003,4.432973e-003
3.772141e+003,4.529628e-003
3.774070e+003,4.559068e-003
3.775998e+003,4.534716e-003
3.777927e+003,4.400733e-003
3.779855e+003,4.351341e-003
3.781784e+003,4.406681e-003
3.783712e+003,4.470166e-003
3.785641e+003,4.515248e-003
3.787569e+003,4.490129e-003
3.789498e+003,4.578450e-003
3.791426e+003,4.504751e-003
3.793355e+003,4.434366e-003
3.795283e+003,4.417413e-003
3.797212e+003,4.374077e-003
3.799140e+003,4.448284e-003
3.801069e+003,4.553853e-003
3.802997e+003,4.555999e-003
3.804926e+003,4.602982e-003
3.806854e+003,4.647034e-003
3.808783e+003,4.635860e-003
3.810711e+003,4.608230e-003
3.812640e+003,4.620220e-003
3.814568e+003,4.672690e-003
3.816497e+003,4.683484e-003
3.818425e+003,4.514722e-003
3.820354e+003,4.471801e-003
3.822282e+003,4.564286e-003
3.824211e+003,4.594254e-003
3.826139e+003,4.604103e-003
3.828068e+003,4.637609e-003
3.829996e+003,4.562707e-003
3.831925e+003,4.533936e-003
3.833853e+003,4.575187e-003
3.835782e+003,4.637680e-003
3.837710e+003,4.709976e-003
3.839639e+003,4.602536e-003
3.841567e+003,4.485591e-003
3.843496e+003,4.490373e-003
3.845424e+003,4.560275e-003
3.847353e+003,4.558565e-003
3.849281e+003,4.582038e-003
3.851210e+003,4.570369e-003
3.853138e+003,4.728746e-003
3.855067e+003,4.859370e-003
3.856995e+003,4.698399e-003
3.858924e+003,4.615938e-003
3.860852e+003,4.563836e-003
3.862781e+003,4.589587e-003
3.864709e+003,4.606436e-003
3.866638e+003,4.621627e-003
3.868566e+003,4.607517e-003
3.870495e+003,4.601628e-003
3.872423e+003,4.545596e-003
3.874352e+003,4.574657e-003
3.876280e+003,4.631185e-003
3.878209e+003,4.578553e-003
3.880137e+003,4.535009e-003
3.882066e+003,4.659017e-003
3.883994e+003,4.707899e-003
3.885923e+003,4.674341e-003
3.887851e+003,4.560974e-003
3.889780e+003,4.579258e-003
3.891708e+003,4.679204e-003
3.893637e+003,4.682919e-003
3.895565e+003,4.602059e-003
3.897494e+003,4.575281e-003
3.899422e+003,4.563185e-003
3.901351e+003,4.626022e-003
3.903279e+003,4.614490e-003
3.905208e+003,4.608097e-003
3.907136e+003,4.651798e-003
3.909065e+003,4.689287e-003
3.910993e+003,4.593751e-003
3.912922e+003,4.579144e-003
3.914850e+003,4.630656e-003
3.916779e+003,4.590911e-003
3.918707e+003,4.628029e-003
3.920636e+003,4.620283e-003
3.922564e+003,4.610878e-003
3.924493e+003,4.638178e-003
3.926421e+003,4.722904e-003
3.928350e+003,4.653797e-003
3.930278e+003,4.547116e-003
3.932207e+003,4.582085e-003
3.934135e+003,4.627688e-003
3.936064e+003,4.638333e-003
3.937992e+003,4.659618e-003
3.939921e+003,4.684202e-003
3.941849e+003,4.676447e-003
3.943778e+003,4.593409e-003
3.945706e+003,4.538653e-003
3.947635e+003,4.553455e-003
3.949563e+003,4.594033e-003
3.951492e+003,4.629293e-003
3.953420e+003,4.600335e-003
3.955349e+003,4.642367e-003
3.957277e+003,4.637714e-003
3.959206e+003,4.593645e-003
3.961134e+003,4.621016e-003
3.963063e+003,4.621665e-003
3.964991e+003,4.638684e-003
3.966920e+003,4.679897e-003
3.968848e+003,4.643855e-003
3.970777e+003,4.637002e-003
3.972705e+003,4.670782e-003
3.974634e+003,4.742306e-003
3.976562e+003,4.710688e-003
3.978491e+003,4.677959e-003
3.980419e+003,4.621769e-003
3.982348e+003,4.600181e-003
3.984276e+003,4.719425e-003
3.986205e+003,4.710258e-003
3.988133e+003,4.549316e-003
3.990062e+003,4.538247e-003
3.991990e+003,4.594596e-003
3.993919e+003,4.646321e-003
3.995847e+003,4.616659e-003
3.997776e+003,4.648880e-003
3.999704e+003,4.649349e-003
4.001633e+003,0.000000e+000
