3.991989e+002,2.731002e-002
4.011274e+002,3.416249e-002
4.030559e+002,3.416249e-002
4.049844e+002,3.170810e-002
4.069129e+002,3.097599e-002
4.088414e+002,3.239260e-002
4.107699e+002,3.482256e-002
4.126984e+002,3.538557e-002
4.146269e+002,3.499551e-002
4.165554e+002,3.569543e-002
4.184839e+002,3.711135e-002
4.204124e+002,3.717968e-002
4.223409e+002,3.842324e-002
4.242694e+002,3.935885e-002
4.261979e+002,4.046207e-002
4.281264e+002,3.955616e-002
4.300549e+002,3.838031e-002
4.319834e+002,3.966973e-002
4.339119e+002,4.171632e-002
4.358404e+002,4.139686e-002
4.377689e+002,4.092838e-002
4.396974e+002,4.125958e-002
4.416259e+002,4.122816e-002
4.435544e+002,4.098887e-002
4.454829e+002,4.039522e-002
4.474114e+002,4.023888e-002
4.493399e+002,4.184259e-002
4.512684e+002,4.152491e-002
4.531969e+002,4.105549e-002
4.551254e+002,4.078512e-002
4.570539e+002,3.989295e-002
4.589824e+002,4.086903e-002
4.609109e+002,4.100328e-002
4.628394e+002,4.104392e-002
4.647679e+002,4.182953e-002
4.666964e+002,4.112381e-002
4.686249e+002,4.082068e-002
4.705533e+002,4.111758e-002
4.724819e+002,4.075492e-002
4.744103e+002,4.063812e-002
4.763389e+002,4.067601e-002
4.782673e+002,4.160797e-002
4.801959e+002,4.152997e-002
4.821243e+002,4.084146e-002
4.840529e+002,4.063759e-002
4.859813e+002,4.110334e-002
4.879099e+002,4.132652e-002
4.898383e+002,4.203004e-002
4.917668e+002,4.281853e-002
4.936953e+002,4.215554e-002
4.956238e+002,4.278333e-002
4.975523e+002,4.326261e-002
4.994808e+002,4.306823e-002
5.014093e+002,4.324943e-002
5.033378e+002,4.343143e-002
5.052663e+002,4.355908e-002
5.071948e+002,4.405007e-002
5.091233e+002,4.399671e-002
5.110518e+002,4.445761e-002
5.129803e+002,4.466952e-002
5.149088e+002,4.462267e-002
5.168373e+002,4.473518e-002
5.187658e+002,4.535598e-002
5.206943e+002,4.548554e-002
5.226228e+002,4.576374e-002
5.245513e+002,4.539736e-002
5.264798e+002,4.566187e-002
5.284083e+002,4.577562e-002
5.303368e+002,4.566617e-002
5.322653e+002,4.544473e-002
5.341938e+002,4.530170e-002
5.361223e+002,4.493074e-002
5.380508e+002,4.515975e-002
5.399792e+002,4.531123e-002
5.419078e+002,4.539884e-002
5.438363e+002,4.532193e-002
5.457648e+002,4.601174e-002
5.476932e+002,4.592805e-002
5.496218e+002,4.571892e-002
5.515503e+002,4.656266e-002
5.534788e+002,4.751138e-002
5.554072e+002,4.798184e-002
5.573358e+002,4.832591e-002
5.592643e+002,4.845732e-002
5.611927e+002,4.856323e-002
5.631212e+002,4.846246e-002
5.650497e+002,4.773915e-002
5.669783e+002,4.719650e-002
5.689067e+002,4.709290e-002
5.708352e+002,4.636617e-002
5.727637e+002,4.610886e-002
5.746923e+002,4.594120e-002
5.766207e+002,4.589267e-002
5.785492e+002,4.581193e-002
5.804777e+002,4.559520e-002
5.824063e+002,4.523519e-002
5.843347e+002,4.501883e-002
5.862632e+002,4.471722e-002
5.881917e+002,4.454790e-002
5.901202e+002,4.456959e-002
5.920487e+002,4.473093e-002
5.939772e+002,4.468022e-002
5.959057e+002,4.431301e-002
5.978342e+002,4.400181e-002
5.997627e+002,4.445685e-002
6.016912e+002,4.442176e-002
6.036197e+002,4.436105e-002
6.055482e+002,4.426343e-002
6.074767e+002,4.394754e-002
6.094052e+002,4.371965e-002
6.113337e+002,4.322449e-002
6.132622e+002,4.248336e-002
6.151907e+002,4.211068e-002
6.171192e+002,4.172503e-002
6.190477e+002,4.134619e-002
6.209762e+002,4.080125e-002
6.229047e+002,4.010747e-002
6.248332e+002,3.924913e-002
6.267617e+002,3.846110e-002
6.286902e+002,3.783026e-002
6.306187e+002,3.748174e-002
6.325472e+002,3.715333e-002
6.344756e+002,3.680775e-002
6.364042e+002,3.654207e-002
6.383326e+002,3.625455e-002
6.402612e+002,3.588384e-002
6.421896e+002,3.568121e-002
6.441182e+002,3.555518e-002
6.460466e+002,3.537973e-002
6.479752e+002,3.497146e-002
6.499036e+002,3.494364e-002
6.518322e+002,3.495215e-002
6.537606e+002,3.469788e-002
6.556891e+002,3.465549e-002
6.576177e+002,3.467960e-002
6.595461e+002,3.463126e-002
6.614746e+002,3.468034e-002
6.634031e+002,3.473693e-002
6.653317e+002,3.462798e-002
6.672601e+002,3.426679e-002
6.691886e+002,3.406663e-002
6.711171e+002,3.366506e-002
6.730457e+002,3.318162e-002
6.749741e+002,3.254997e-002
6.769026e+002,3.208538e-002
6.788311e+002,3.137236e-002
6.807596e+002,3.066159e-002
6.826881e+002,2.994870e-002
6.846166e+002,2.971032e-002
6.865451e+002,2.946260e-002
6.884736e+002,2.931138e-002
6.904021e+002,2.925821e-002
6.923306e+002,2.906347e-002
6.942591e+002,2.881749e-002
6.961876e+002,2.876957e-002
6.981161e+002,2.871664e-002
7.000446e+002,2.854665e-002
7.019731e+002,2.841920e-002
7.039016e+002,2.825320e-002
7.058301e+002,2.795044e-002
7.077585e+002,2.774846e-002
7.096871e+002,2.752972e-002
7.116156e+002,2.729548e-002
7.135441e+002,2.708521e-002
7.154725e+002,2.692113e-002
7.174011e+002,2.668067e-002
7.193296e+002,2.643760e-002
7.212581e+002,2.622487e-002
7.231865e+002,2.595695e-002
7.251151e+002,2.562054e-002
7.270436e+002,2.534126e-002
7.289720e+002,2.502431e-002
7.309005e+002,2.470572e-002
7.328290e+002,2.449085e-002
7.347576e+002,2.433237e-002
7.366860e+002,2.415946e-002
7.386145e+002,2.384265e-002
7.405430e+002,2.346436e-002
7.424716e+002,2.336234e-002
7.444000e+002,2.315330e-002
7.463285e+002,2.283630e-002
7.482570e+002,2.272565e-002
7.501855e+002,2.240506e-002
7.521140e+002,2.222369e-002
7.540425e+002,2.206156e-002
7.559710e+002,2.169840e-002
7.578995e+002,2.152513e-002
7.598280e+002,2.146875e-002
7.617565e+002,2.133411e-002
7.636850e+002,2.123058e-002
7.656135e+002,2.109540e-002
7.675420e+002,2.091654e-002
7.694705e+002,2.072654e-002
7.713990e+002,2.062284e-002
7.733275e+002,2.064122e-002
7.752560e+002,2.052439e-002
7.771844e+002,2.043529e-002
7.791130e+002,2.050393e-002
7.810415e+002,2.032112e-002
7.829700e+002,1.995885e-002
7.848984e+002,1.984851e-002
7.868270e+002,1.971191e-002
7.887555e+002,1.957695e-002
7.906840e+002,1.948060e-002
7.926124e+002,1.935721e-002
7.945410e+002,1.912228e-002
7.964695e+002,1.905300e-002
7.983979e+002,1.917668e-002
8.003264e+002,1.924321e-002
8.022549e+002,1.931166e-002
8.041835e+002,1.932191e-002
8.061119e+002,1.927536e-002
8.080404e+002,1.926140e-002
8.099689e+002,1.942945e-002
8.118975e+002,1.959553e-002
8.138259e+002,1.961272e-002
8.157545e+002,1.948687e-002
8.176830e+002,1.942717e-002
8.196115e+002,1.937187e-002
8.215399e+002,1.934734e-002
8.234684e+002,1.940520e-002
8.253970e+002,1.948358e-002
8.273254e+002,1.951110e-002
8.292539e+002,1.953931e-002
8.311824e+002,1.963227e-002
8.331110e+002,1.965862e-002
8.350394e+002,1.964985e-002
8.369679e+002,1.963570e-002
8.388964e+002,1.949689e-002
8.408250e+002,1.933411e-002
8.427534e+002,1.915663e-002
8.446819e+002,1.913852e-002
8.466104e+002,1.917637e-002
8.485389e+002,1.905217e-002
8.504674e+002,1.899834e-002
8.523959e+002,1.895345e-002
8.543244e+002,1.903317e-002
8.562529e+002,1.916948e-002
8.581814e+002,1.904359e-002
8.601099e+002,1.902129e-002
8.620384e+002,1.919196e-002
8.639669e+002,1.908777e-002
8.658954e+002,1.913714e-002
8.678239e+002,1.926552e-002
8.697524e+002,1.940641e-002
8.716809e+002,1.947949e-002
8.736094e+002,1.943552e-002
8.755378e+002,1.948063e-002
8.774664e+002,1.953463e-002
8.793949e+002,1.962874e-002
8.813234e+002,1.991743e-002
8.832518e+002,2.018753e-002
8.851804e+002,2.054172e-002
8.871089e+002,2.096268e-002
8.890374e+002,2.152870e-002
8.909658e+002,2.200506e-002
8.928943e+002,2.250602e-002
8.948229e+002,2.275127e-002
8.967513e+002,2.287521e-002
8.986798e+002,2.281622e-002
9.006083e+002,2.263254e-002
9.025369e+002,2.233144e-002
9.044653e+002,2.191441e-002
9.063938e+002,2.160328e-002
9.083223e+002,2.133244e-002
9.102509e+002,2.102716e-002
9.121793e+002,2.090653e-002
9.141078e+002,2.083964e-002
9.160364e+002,2.087656e-002
9.179648e+002,2.102729e-002
9.198933e+002,2.116438e-002
9.218218e+002,2.121472e-002
9.237504e+002,2.139317e-002
9.256788e+002,2.161903e-002
9.276073e+002,2.184956e-002
9.295358e+002,2.204971e-002
9.314644e+002,2.227015e-002
9.333928e+002,2.261397e-002
9.353213e+002,2.303558e-002
9.372498e+002,2.343820e-002
9.391783e+002,2.405021e-002
9.411068e+002,2.461612e-002
9.430353e+002,2.528233e-002
9.449637e+002,2.595826e-002
9.468923e+002,2.674185e-002
9.488208e+002,2.745944e-002
9.507493e+002,2.815969e-002
9.526777e+002,2.892326e-002
9.546063e+002,2.982922e-002
9.565348e+002,3.077449e-002
9.584633e+002,3.161700e-002
9.603917e+002,3.243202e-002
9.623203e+002,3.333217e-002
9.642488e+002,3.424803e-002
9.661772e+002,3.524257e-002
9.681057e+002,3.613021e-002
9.700343e+002,3.702425e-002
9.719628e+002,3.807295e-002
9.738912e+002,3.914081e-002
9.758197e+002,4.029483e-002
9.777483e+002,4.162956e-002
9.796768e+002,4.306261e-002
9.816052e+002,4.453616e-002
9.835337e+002,4.609224e-002
9.854623e+002,4.760119e-002
9.873907e+002,4.889284e-002
9.893192e+002,4.995566e-002
9.912477e+002,5.065184e-002
9.931763e+002,5.129816e-002
9.951047e+002,5.188458e-002
9.970332e+002,5.237022e-002
9.989617e+002,5.299290e-002
1.000890e+003,5.387811e-002
1.002819e+003,5.477339e-002
1.004747e+003,5.566190e-002
1.006676e+003,5.652736e-002
1.008604e+003,5.743906e-002
1.010533e+003,5.834160e-002
1.012461e+003,5.937495e-002
1.014390e+003,6.051887e-002
1.016318e+003,6.179278e-002
1.018247e+003,6.309645e-002
1.020175e+003,6.446473e-002
1.022104e+003,6.589587e-002
1.024032e+003,6.748638e-002
1.025961e+003,6.897238e-002
1.027889e+003,7.049903e-002
1.029818e+003,7.190186e-002
1.031746e+003,7.304511e-002
1.033675e+003,7.388994e-002
1.035603e+003,7.423479e-002
1.037532e+003,7.386928e-002
1.039460e+003,7.293011e-002
1.041389e+003,7.178786e-002
1.043317e+003,7.089444e-002
1.045246e+003,7.016768e-002
1.047174e+003,6.968932e-002
1.049103e+003,6.928614e-002
1.051031e+003,6.901696e-002
1.052960e+003,6.863870e-002
1.054888e+003,6.814675e-002
1.056817e+003,6.738367e-002
1.058745e+003,6.643516e-002
1.060674e+003,6.521800e-002
1.062602e+003,6.377251e-002
1.064531e+003,6.207544e-002
1.066459e+003,6.038349e-002
1.068388e+003,5.880800e-002
1.070316e+003,5.737616e-002
1.072245e+003,5.590969e-002
1.074173e+003,5.467905e-002
1.076102e+003,5.350500e-002
1.078030e+003,5.217080e-002
1.079959e+003,5.078266e-002
1.081887e+003,4.953432e-002
1.083816e+003,4.846038e-002
1.085744e+003,4.756377e-002
1.087673e+003,4.681125e-002
1.089601e+003,4.621159e-002
1.091530e+003,4.566186e-002
1.093458e+003,4.517505e-002
1.095387e+003,4.470202e-002
1.097315e+003,4.431323e-002
1.099244e+003,4.410559e-002
1.101172e+003,4.400577e-002
1.103101e+003,4.388761e-002
1.105029e+003,4.364218e-002
1.106958e+003,4.318644e-002
1.108886e+003,4.256574e-002
1.110815e+003,4.173391e-002
1.112743e+003,4.063129e-002
1.114672e+003,3.934713e-002
1.116600e+003,3.796974e-002
1.118529e+003,3.673748e-002
1.120457e+003,3.571703e-002
1.122386e+003,3.471738e-002
1.124314e+003,3.369141e-002
1.126243e+003,3.255385e-002
1.128171e+003,3.136797e-002
1.130100e+003,3.019154e-002
1.132028e+003,2.903097e-002
1.133957e+003,2.800137e-002
1.135885e+003,2.718587e-002
1.137814e+003,2.655703e-002
1.139742e+003,2.616668e-002
1.141671e+003,2.602038e-002
1.143599e+003,2.615007e-002
1.145528e+003,2.644123e-002
1.147456e+003,2.682365e-002
1.149385e+003,2.720203e-002
1.151313e+003,2.767346e-002
1.153242e+003,2.819526e-002
1.155170e+003,2.873166e-002
1.157099e+003,2.908471e-002
1.159027e+003,2.925218e-002
1.160956e+003,2.922723e-002
1.162884e+003,2.894412e-002
1.164813e+003,2.825073e-002
1.166741e+003,2.717730e-002
1.168670e+003,2.586678e-002
1.170598e+003,2.445594e-002
1.172526e+003,2.295862e-002
1.174455e+003,2.146081e-002
1.176384e+003,2.014852e-002
1.178312e+003,1.908191e-002
1.180240e+003,1.815475e-002
1.182169e+003,1.744539e-002
1.184098e+003,1.692859e-002
1.186026e+003,1.650432e-002
1.187954e+003,1.622561e-002
1.189883e+003,1.611534e-002
1.191812e+003,1.616590e-002
1.193740e+003,1.637969e-002
1.195668e+003,1.663863e-002
1.197597e+003,1.701373e-002
1.199526e+003,1.737200e-002
1.201454e+003,1.764954e-002
1.203382e+003,1.784023e-002
1.205311e+003,1.794915e-002
1.207240e+003,1.800615e-002
1.209168e+003,1.802806e-002
1.211096e+003,1.801786e-002
1.213025e+003,1.810667e-002
1.214953e+003,1.827896e-002
1.216882e+003,1.847886e-002
1.218810e+003,1.871586e-002
1.220739e+003,1.896471e-002
1.222667e+003,1.924212e-002
1.224596e+003,1.954369e-002
1.226524e+003,1.982635e-002
1.228453e+003,2.012710e-002
1.230381e+003,2.046990e-002
1.232310e+003,2.075344e-002
1.234238e+003,2.095830e-002
1.236167e+003,2.109999e-002
1.238095e+003,2.116977e-002
1.240024e+003,2.125305e-002
1.241952e+003,2.134999e-002
1.243881e+003,2.141480e-002
1.245809e+003,2.136532e-002
1.247738e+003,2.122990e-002
1.249666e+003,2.110604e-002
1.251595e+003,2.102985e-002
1.253523e+003,2.093433e-002
1.255452e+003,2.080881e-002
1.257380e+003,2.062419e-002
1.259309e+003,2.040504e-002
1.261237e+003,2.010845e-002
1.263166e+003,1.982066e-002
1.265094e+003,1.959761e-002
1.267023e+003,1.940578e-002
1.268951e+003,1.919630e-002
1.270880e+003,1.901651e-002
1.272808e+003,1.880589e-002
1.274737e+003,1.848723e-002
1.276665e+003,1.819131e-002
1.278594e+003,1.799140e-002
1.280522e+003,1.782633e-002
1.282451e+003,1.760217e-002
1.284379e+003,1.733714e-002
1.286308e+003,1.709679e-002
1.288236e+003,1.684635e-002
1.290165e+003,1.667340e-002
1.292093e+003,1.661024e-002
1.294022e+003,1.661970e-002
1.295950e+003,1.668591e-002
1.297879e+003,1.676982e-002
1.299807e+003,1.691933e-002
1.301736e+003,1.715379e-002
1.303664e+003,1.742352e-002
1.305593e+003,1.774254e-002
1.307521e+003,1.806751e-002
1.309450e+003,1.837294e-002
1.311378e+003,1.863789e-002
1.313307e+003,1.886417e-002
1.315235e+003,1.903295e-002
1.317164e+003,1.908094e-002
1.319092e+003,1.903812e-002
1.321021e+003,1.890877e-002
1.322949e+003,1.877190e-002
1.324878e+003,1.866169e-002
1.326806e+003,1.852173e-002
1.328735e+003,1.847468e-002
1.330663e+003,1.847582e-002
1.332592e+003,1.844383e-002
1.334520e+003,1.839357e-002
1.336449e+003,1.831581e-002
1.338377e+003,1.817313e-002
1.340306e+003,1.803103e-002
1.342234e+003,1.789123e-002
1.344163e+003,1.774866e-002
1.346091e+003,1.764619e-002
1.348020e+003,1.762691e-002
1.349948e+003,1.769670e-002
1.351877e+003,1.780641e-002
1.353805e+003,1.788065e-002
1.355734e+003,1.798372e-002
1.357662e+003,1.812817e-002
1.359591e+003,1.827666e-002
1.361519e+003,1.838350e-002
1.363448e+003,1.849897e-002
1.365376e+003,1.865408e-002
1.367305e+003,1.876150e-002
1.369233e+003,1.876769e-002
1.371162e+003,1.870190e-002
1.373090e+003,1.856423e-002
1.375019e+003,1.835922e-002
1.376947e+003,1.813542e-002
1.378876e+003,1.784909e-002
1.380804e+003,1.750345e-002
1.382733e+003,1.716611e-002
1.384661e+003,1.679696e-002
1.386590e+003,1.652250e-002
1.388518e+003,1.631774e-002
1.390447e+003,1.611299e-002
1.392375e+003,1.596270e-002
1.394304e+003,1.586595e-002
1.396232e+003,1.582940e-002
1.398161e+003,1.581020e-002
1.400089e+003,1.586616e-002
1.402018e+003,1.591703e-002
1.403946e+003,1.595208e-002
1.405875e+003,1.607928e-002
1.407803e+003,1.621506e-002
1.409732e+003,1.633121e-002
1.411660e+003,1.648149e-002
1.413589e+003,1.669477e-002
1.415517e+003,1.689023e-002
1.417446e+003,1.706840e-002
1.419374e+003,1.726403e-002
1.421303e+003,1.740853e-002
1.423231e+003,1.736786e-002
1.425160e+003,1.733047e-002
1.427088e+003,1.722387e-002
1.429017e+003,1.700517e-002
1.430945e+003,1.681212e-002
1.432874e+003,1.665086e-002
1.434802e+003,1.638583e-002
1.436731e+003,1.616214e-002
1.438659e+003,1.599726e-002
1.440588e+003,1.582563e-002
1.442516e+003,1.575091e-002
1.444445e+003,1.578749e-002
1.446373e+003,1.581948e-002
1.448302e+003,1.581253e-002
1.450230e+003,1.577317e-002
1.452159e+003,1.573985e-002
1.454087e+003,1.567401e-002
1.456016e+003,1.561700e-002
1.457944e+003,1.548241e-002
1.459873e+003,1.533752e-002
1.461801e+003,1.524139e-002
1.463730e+003,1.503577e-002
1.465658e+003,1.473755e-002
1.467587e+003,1.433318e-002
1.469515e+003,1.380845e-002
1.471444e+003,1.321703e-002
1.473372e+003,1.268784e-002
1.475301e+003,1.225279e-002
1.477229e+003,1.200713e-002
1.479158e+003,1.180632e-002
1.481086e+003,1.159427e-002
1.483015e+003,1.150142e-002
1.484943e+003,1.150612e-002
1.486872e+003,1.150871e-002
1.488800e+003,1.159433e-002
1.490729e+003,1.179193e-002
1.492657e+003,1.202365e-002
1.494586e+003,1.227744e-002
1.496514e+003,1.257452e-002
1.498443e+003,1.276013e-002
1.500371e+003,1.302865e-002
1.502300e+003,1.334099e-002
1.504228e+003,1.360299e-002
1.506157e+003,1.374095e-002
1.508085e+003,1.384322e-002
1.510014e+003,1.384463e-002
1.511942e+003,1.381506e-002
1.513871e+003,1.373196e-002
1.515799e+003,1.344093e-002
1.517728e+003,1.309790e-002
1.519656e+003,1.273508e-002
1.521585e+003,1.237008e-002
1.523513e+003,1.209424e-002
1.525442e+003,1.191005e-002
1.527370e+003,1.182384e-002
1.529299e+003,1.176725e-002
1.531227e+003,1.172767e-002
1.533156e+003,1.170937e-002
1.535084e+003,1.173398e-002
1.537013e+003,1.171386e-002
1.538941e+003,1.172858e-002
1.540870e+003,1.170108e-002
1.542798e+003,1.169616e-002
1.544727e+003,1.168456e-002
1.546655e+003,1.164791e-002
1.548584e+003,1.156999e-002
1.550512e+003,1.156778e-002
1.552441e+003,1.158129e-002
1.554369e+003,1.157958e-002
1.556298e+003,1.157282e-002
1.558226e+003,1.151789e-002
1.560155e+003,1.170031e-002
1.562083e+003,1.171438e-002
1.564012e+003,1.167564e-002
1.565940e+003,1.174807e-002
1.567869e+003,1.182756e-002
1.569797e+003,1.195345e-002
1.571726e+003,1.215768e-002
1.573654e+003,1.232105e-002
1.575583e+003,1.256224e-002
1.577511e+003,1.281606e-002
1.579440e+003,1.305460e-002
1.581368e+003,1.336535e-002
1.583297e+003,1.362748e-002
1.585225e+003,1.385840e-002
1.587154e+003,1.411305e-002
1.589082e+003,1.436199e-002
1.591010e+003,1.456811e-002
1.592939e+003,1.475785e-002
1.594868e+003,1.490972e-002
1.596796e+003,1.505327e-002
1.598724e+003,1.515207e-002
1.600653e+003,1.522816e-002
1.602582e+003,1.525506e-002
1.604510e+003,1.522933e-002
1.606438e+003,1.511364e-002
1.608367e+003,1.492904e-002
1.610296e+003,1.481480e-002
1.612224e+003,1.477902e-002
1.614152e+003,1.480989e-002
1.616081e+003,1.488320e-002
1.618010e+003,1.496947e-002
1.619938e+003,1.506184e-002
1.621866e+003,1.523288e-002
1.623795e+003,1.543815e-002
1.625724e+003,1.564373e-002
1.627652e+003,1.582630e-002
1.629580e+003,1.596140e-002
1.631509e+003,1.601027e-002
1.633438e+003,1.601136e-002
1.635366e+003,1.601136e-002
1.637294e+003,1.600283e-002
1.639223e+003,1.586313e-002
1.641151e+003,1.574557e-002
1.643080e+003,1.564688e-002
1.645008e+003,1.552706e-002
1.646937e+003,1.536887e-002
1.648865e+003,1.527501e-002
1.650794e+003,1.523575e-002
1.652722e+003,1.517454e-002
1.654651e+003,1.508533e-002
1.656579e+003,1.489281e-002
1.658508e+003,1.472419e-002
1.660436e+003,1.450099e-002
1.662365e+003,1.425449e-002
1.664293e+003,1.405353e-002
1.666222e+003,1.379205e-002
1.668150e+003,1.349650e-002
1.670079e+003,1.324265e-002
1.672007e+003,1.307621e-002
1.673936e+003,1.286457e-002
1.675864e+003,1.262937e-002
1.677793e+003,1.234689e-002
1.679721e+003,1.215875e-002
1.681650e+003,1.198738e-002
1.683578e+003,1.184567e-002
1.685507e+003,1.175750e-002
1.687435e+003,1.145434e-002
1.689364e+003,1.123629e-002
1.691292e+003,1.112288e-002
1.693221e+003,1.097166e-002
1.695149e+003,1.091985e-002
1.697078e+003,1.078215e-002
1.699006e+003,1.054782e-002
1.700935e+003,1.042257e-002
1.702863e+003,1.030095e-002
1.704792e+003,1.016343e-002
1.706720e+003,1.016274e-002
1.708649e+003,1.019097e-002
1.710577e+003,1.003855e-002
1.712506e+003,9.997119e-003
1.714434e+003,9.990519e-003
1.716363e+003,1.000071e-002
1.718291e+003,9.986179e-003
1.720220e+003,9.934954e-003
1.722148e+003,9.846174e-003
1.724077e+003,9.844908e-003
1.726005e+003,9.754977e-003
1.727934e+003,9.583575e-003
1.729862e+003,9.445459e-003
1.731791e+003,9.391311e-003
1.733719e+003,9.332983e-003
1.735648e+003,9.274387e-003
1.737576e+003,9.059548e-003
1.739505e+003,8.893128e-003
1.741433e+003,8.750653e-003
1.743362e+003,8.524336e-003
1.745290e+003,8.335810e-003
1.747219e+003,8.135615e-003
1.749147e+003,7.919105e-003
1.751076e+003,7.711096e-003
1.753004e+003,7.537067e-003
1.754933e+003,7.389821e-003
1.756861e+003,7.233890e-003
1.758790e+003,7.092245e-003
1.760718e+003,6.968882e-003
1.762647e+003,6.927225e-003
1.764575e+003,6.860103e-003
1.766504e+003,6.791025e-003
1.768432e+003,6.698527e-003
1.770361e+003,6.654833e-003
1.772289e+003,6.670459e-003
1.774218e+003,6.639732e-003
1.776146e+003,6.582379e-003
1.778075e+003,6.545564e-003
1.780003e+003,6.513109e-003
1.781932e+003,6.550595e-003
1.783860e+003,6.560092e-003
1.785789e+003,6.523616e-003
1.787717e+003,6.553323e-003
1.789646e+003,6.636508e-003
1.791574e+003,6.607022e-003
1.793503e+003,6.539269e-003
1.795431e+003,6.566199e-003
1.797360e+003,6.595151e-003
1.799288e+003,6.655667e-003
1.801217e+003,6.679717e-003
1.803145e+003,6.616463e-003
1.805074e+003,6.547094e-003
1.807002e+003,6.513441e-003
1.808931e+003,6.541362e-003
1.810859e+003,6.508386e-003
1.812788e+003,6.542630e-003
1.814716e+003,6.446519e-003
1.816645e+003,6.331136e-003
1.818573e+003,6.364223e-003
1.820502e+003,6.441945e-003
1.822430e+003,6.425925e-003
1.824359e+003,6.378824e-003
1.826287e+003,6.349429e-003
1.828216e+003,6.346145e-003
1.830144e+003,6.341452e-003
1.832073e+003,6.360086e-003
1.834001e+003,6.321801e-003
1.835930e+003,6.368706e-003
1.837858e+003,6.466359e-003
1.839787e+003,6.333155e-003
1.841715e+003,6.204946e-003
1.843644e+003,6.234803e-003
1.845572e+003,6.333168e-003
1.847501e+003,6.376885e-003
1.849429e+003,6.353732e-003
1.851358e+003,6.293538e-003
1.853286e+003,6.428704e-003
1.855215e+003,6.386661e-003
1.857143e+003,6.255705e-003
1.859072e+003,6.214555e-003
1.861000e+003,6.212441e-003
1.862929e+003,6.288840e-003
1.864857e+003,6.215235e-003
1.866786e+003,6.090953e-003
1.868714e+003,6.060035e-003
1.870643e+003,6.005654e-003
1.872571e+003,5.973325e-003
1.874500e+003,6.052120e-003
1.876428e+003,6.025464e-003
1.878357e+003,5.982405e-003
1.880285e+003,5.941543e-003
1.882214e+003,6.050355e-003
1.884142e+003,6.128055e-003
1.886071e+003,6.013635e-003
1.887999e+003,6.045913e-003
1.889928e+003,6.037435e-003
1.891856e+003,6.050162e-003
1.893785e+003,5.907721e-003
1.895713e+003,5.672642e-003
1.897642e+003,5.598844e-003
1.899570e+003,5.555360e-003
1.901499e+003,5.543656e-003
1.903427e+003,5.505980e-003
1.905356e+003,5.486042e-003
1.907284e+003,5.507485e-003
1.909213e+003,5.580998e-003
1.911141e+003,5.642135e-003
1.913070e+003,5.408901e-003
1.914998e+003,5.288696e-003
1.916927e+003,5.262404e-003
1.918855e+003,5.176936e-003
1.920784e+003,5.109134e-003
1.922712e+003,5.022290e-003
1.924641e+003,5.073453e-003
1.926569e+003,4.861364e-003
1.928498e+003,4.639448e-003
1.930426e+003,4.872442e-003
1.932355e+003,4.907064e-003
1.934283e+003,4.735040e-003
1.936212e+003,4.753084e-003
1.938140e+003,4.442462e-003
1.940069e+003,4.007296e-003
1.941997e+003,3.933686e-003
1.943926e+003,3.760962e-003
1.945854e+003,3.145204e-003
1.947783e+003,3.311541e-003
1.949711e+003,3.488328e-003
1.951640e+003,3.337172e-003
1.953568e+003,2.886507e-003
1.955497e+003,1.598045e-003
1.957425e+003,1.407084e-003
1.959354e+003,1.178087e-003
1.961282e+003,6.074861e-004
1.963211e+003,1.066569e-003
1.965139e+003,-2.630329e-004
1.967068e+003,-1.756284e-003
1.968996e+003,-1.806123e-003
1.970925e+003,-2.162675e-003
1.972853e+003,-2.965460e-003
1.974782e+003,-3.518823e-003
1.976710e+003,-3.537593e-003
1.978639e+003,-3.199374e-003
1.980567e+003,-2.123413e-003
1.982496e+003,-7.026151e-004
1.984424e+003,-2.783393e-004
1.986353e+003,-4.345885e-004
1.988281e+003,-6.040915e-004
1.990210e+003,-1.876082e-004
1.992138e+003,-1.768175e-004
1.994067e+003,-8.711325e-004
1.995995e+003,-1.421785e-003
1.997924e+003,-1.223288e-003
1.999852e+003,-1.251339e-003
2.001781e+003,-1.458158e-003
2.003709e+003,-1.657925e-003
2.005638e+003,-2.471952e-003
2.007566e+003,-3.751910e-003
2.009495e+003,-3.950327e-003
2.011423e+003,-3.723650e-003
2.013352e+003,-3.691700e-003
2.015280e+003,-3.917777e-003
2.017208e+003,-4.310766e-003
2.019137e+003,-4.601727e-003
2.021066e+003,-5.058195e-003
2.022994e+003,-5.464539e-003
2.024922e+003,-4.903488e-003
2.026851e+003,-4.794804e-003
2.028780e+003,-5.634703e-003
2.030708e+003,-6.609514e-003
2.032636e+003,-6.213561e-003
2.034565e+003,-4.937875e-003
2.036494e+003,-4.231437e-003
2.038422e+003,-4.023102e-003
2.040350e+003,-3.871212e-003
2.042279e+003,-3.510079e-003
2.044208e+003,-3.674809e-003
2.046136e+003,-3.053588e-003
2.048064e+003,-1.658813e-003
2.049993e+003,-9.545550e-004
2.051921e+003,-2.622708e-004
2.053850e+003,4.236855e-004
2.055778e+003,1.202737e-003
2.057707e+003,1.257645e-003
2.059635e+003,1.429804e-003
2.061564e+003,1.484349e-003
2.063492e+003,1.146562e-003
2.065421e+003,9.497911e-004
2.067349e+003,1.406913e-003
2.069278e+003,1.850101e-003
2.071206e+003,1.974774e-003
2.073135e+003,2.249488e-003
2.075063e+003,2.514823e-003
2.076992e+003,2.441295e-003
2.078920e+003,2.721768e-003
2.080849e+003,3.114027e-003
2.082777e+003,2.905481e-003
2.084706e+003,2.586577e-003
2.086634e+003,2.520785e-003
2.088563e+003,2.836752e-003
2.090491e+003,2.916911e-003
2.092420e+003,2.753544e-003
2.094348e+003,2.773481e-003
2.096277e+003,2.943579e-003
2.098205e+003,3.161766e-003
2.100134e+003,3.611208e-003
2.102062e+003,3.754731e-003
2.103991e+003,3.551541e-003
2.105919e+003,3.729799e-003
2.107848e+003,3.763855e-003
2.109776e+003,3.805535e-003
2.111705e+003,3.832611e-003
2.113633e+003,3.948788e-003
2.115562e+003,4.156813e-003
2.117490e+003,4.225498e-003
2.119419e+003,4.175480e-003
2.121347e+003,4.089846e-003
2.123276e+003,3.734378e-003
2.125204e+003,3.679171e-003
2.127133e+003,3.726524e-003
2.129061e+003,3.478555e-003
2.130990e+003,2.945743e-003
2.132918e+003,2.227106e-003
2.134847e+003,1.563790e-003
2.136775e+003,1.554978e-003
2.138704e+003,1.254176e-003
2.140632e+003,9.157957e-004
2.142561e+003,4.296959e-004
2.144489e+003,-8.569281e-004
2.146418e+003,-1.816118e-003
2.148346e+003,-2.243203e-003
2.150275e+003,-2.379320e-003
2.152203e+003,-2.799926e-003
2.154132e+003,-4.681205e-003
2.156060e+003,-6.555120e-003
2.157989e+003,-8.226734e-003
2.159917e+003,-8.573404e-003
2.161846e+003,-7.290998e-003
2.163774e+003,-5.332359e-003
2.165703e+003,-3.406206e-003
2.167631e+003,-2.481298e-003
2.169560e+003,-2.106548e-003
2.171488e+003,-1.744874e-003
2.173417e+003,-2.141664e-003
2.175345e+003,-2.182645e-003
2.177274e+003,-2.269705e-003
2.179202e+003,-1.705337e-003
2.181131e+003,-1.928586e-003
2.183059e+003,-2.439192e-003
2.184988e+003,-1.972225e-003
2.186916e+003,-1.910343e-003
2.188845e+003,-1.625855e-003
2.190773e+003,-8.467096e-004
2.192702e+003,-3.620703e-004
2.194630e+003,-1.408631e-004
2.196559e+003,1.800214e-004
2.198487e+003,3.005966e-004
2.200416e+003,-3.498539e-004
2.202344e+003,-3.950762e-004
2.204273e+003,4.153018e-004
2.206201e+003,4.555668e-004
2.208130e+003,1.327552e-004
2.210058e+003,1.368651e-004
2.211987e+003,4.967644e-004
2.213915e+003,9.565721e-004
2.215844e+003,1.414673e-003
2.217772e+003,1.825075e-003
2.219701e+003,1.688375e-003
2.221629e+003,1.543306e-003
2.223558e+003,1.708467e-003
2.225486e+003,1.833959e-003
2.227415e+003,2.214251e-003
2.229343e+003,2.522816e-003
2.231272e+003,2.614603e-003
2.233200e+003,2.903675e-003
2.235129e+003,3.199829e-003
2.237057e+003,2.951857e-003
2.238986e+003,2.714516e-003
2.240914e+003,2.856501e-003
2.242843e+003,3.087571e-003
2.244771e+003,3.439530e-003
2.246700e+003,3.597302e-003
2.248628e+003,3.596377e-003
2.250557e+003,3.623188e-003
2.252485e+003,3.425260e-003
2.254414e+003,3.411451e-003
2.256342e+003,3.856804e-003
2.258271e+003,3.845295e-003
2.260199e+003,3.984131e-003
2.262128e+003,4.245117e-003
2.264056e+003,4.331917e-003
2.265985e+003,4.243226e-003
2.267913e+003,4.611958e-003
2.269842e+003,4.676166e-003
2.271770e+003,4.690445e-003
2.273699e+003,4.931092e-003
2.275627e+003,5.066118e-003
2.277556e+003,5.343445e-003
2.279484e+003,5.598693e-003
2.281413e+003,5.784133e-003
2.283341e+003,5.873358e-003
2.285270e+003,6.005263e-003
2.287198e+003,6.171618e-003
2.289127e+003,6.527448e-003
2.291055e+003,6.681436e-003
2.292984e+003,6.857405e-003
2.294912e+003,6.937236e-003
2.296841e+003,6.767465e-003
2.298769e+003,6.607487e-003
2.300698e+003,6.568042e-003
2.302626e+003,6.791012e-003
2.304555e+003,6.993612e-003
2.306483e+003,6.987621e-003
2.308412e+003,6.814151e-003
2.310340e+003,6.782994e-003
2.312269e+003,7.079683e-003
2.314197e+003,7.460432e-003
2.316125e+003,7.626565e-003
2.318054e+003,7.638440e-003
2.319983e+003,7.591045e-003
2.321911e+003,7.551163e-003
2.323840e+003,7.631281e-003
2.325768e+003,8.019839e-003
2.327697e+003,8.210002e-003
2.329625e+003,8.283001e-003
2.331553e+003,8.055168e-003
2.333482e+003,8.196072e-003
2.335411e+003,8.490905e-003
2.337339e+003,8.148587e-003
2.339268e+003,8.013063e-003
2.341196e+003,8.168927e-003
2.343125e+003,8.133281e-003
2.345053e+003,8.032975e-003
2.346981e+003,7.771404e-003
2.348910e+003,7.680220e-003
2.350839e+003,7.619096e-003
2.352767e+003,7.247402e-003
2.354696e+003,7.476705e-003
2.356624e+003,7.496354e-003
2.358552e+003,7.171066e-003
2.360481e+003,7.160238e-003
2.362409e+003,7.401702e-003
2.364338e+003,8.000917e-003
2.366267e+003,7.550158e-003
2.368195e+003,7.279937e-003
2.370124e+003,7.400616e-003
2.372052e+003,7.768757e-003
2.373980e+003,8.061074e-003
2.375909e+003,8.199292e-003
2.377838e+003,8.208239e-003
2.379766e+003,8.078550e-003
2.381695e+003,7.821552e-003
2.383623e+003,7.795180e-003
2.385552e+003,7.889232e-003
2.387480e+003,7.927812e-003
2.389408e+003,7.749345e-003
2.391337e+003,7.671497e-003
2.393266e+003,7.744103e-003
2.395194e+003,7.705442e-003
2.397123e+003,7.699537e-003
2.399051e+003,7.622789e-003
2.400979e+003,7.458873e-003
2.402908e+003,7.372421e-003
2.404836e+003,7.495819e-003
2.406765e+003,7.567561e-003
2.408694e+003,7.556873e-003
2.410622e+003,7.566954e-003
2.412551e+003,7.490964e-003
2.414479e+003,7.360086e-003
2.416407e+003,7.318232e-003
2.418336e+003,7.375555e-003
2.420264e+003,7.343135e-003
2.422193e+003,7.334003e-003
2.424122e+003,7.325477e-003
2.426050e+003,7.442222e-003
2.427979e+003,7.640159e-003
2.429907e+003,7.581419e-003
2.431835e+003,7.480784e-003
2.433764e+003,7.576867e-003
2.435692e+003,7.652839e-003
2.437621e+003,7.814638e-003
2.439550e+003,7.872161e-003
2.441478e+003,7.695298e-003
2.443406e+003,7.505056e-003
2.445335e+003,7.648218e-003
2.447263e+003,7.766095e-003
2.449192e+003,7.664675e-003
2.451121e+003,7.670375e-003
2.453049e+003,7.731825e-003
2.454978e+003,7.661809e-003
2.456906e+003,7.662686e-003
2.458834e+003,7.631728e-003
2.460763e+003,7.570225e-003
2.462691e+003,7.643430e-003
2.464620e+003,7.725215e-003
2.466549e+003,7.731387e-003
2.468477e+003,7.720256e-003
2.470406e+003,7.625557e-003
2.472334e+003,7.573361e-003
2.474262e+003,7.706866e-003
2.476191e+003,7.664979e-003
2.478119e+003,7.579666e-003
2.480048e+003,7.715366e-003
2.481977e+003,7.757663e-003
2.483905e+003,7.709396e-003
2.485833e+003,7.575552e-003
2.487762e+003,7.551681e-003
2.489690e+003,7.713140e-003
2.491619e+003,7.816089e-003
2.493547e+003,7.917005e-003
2.495476e+003,7.826615e-003
2.497405e+003,7.766028e-003
2.499333e+003,7.777362e-003
2.501261e+003,7.759720e-003
2.503190e+003,7.750377e-003
2.505118e+003,7.717423e-003
2.507047e+003,7.826581e-003
2.508975e+003,7.824725e-003
2.510904e+003,7.777463e-003
2.512833e+003,7.817067e-003
2.514761e+003,7.904587e-003
2.516689e+003,7.785795e-003
2.518618e+003,7.716108e-003
2.520546e+003,7.701774e-003
2.522475e+003,7.771324e-003
2.524403e+003,7.777362e-003
2.526332e+003,7.647814e-003
2.528260e+003,7.608158e-003
2.530189e+003,7.678132e-003
2.532117e+003,7.784446e-003
2.534046e+003,7.863389e-003
2.535974e+003,7.858834e-003
2.537903e+003,7.824118e-003
2.539831e+003,7.842842e-003
2.541760e+003,7.868652e-003
2.543688e+003,7.854111e-003
2.545617e+003,7.916836e-003
2.547545e+003,7.935631e-003
2.549474e+003,7.929220e-003
2.551402e+003,7.941672e-003
2.553331e+003,8.106617e-003
2.555259e+003,8.056084e-003
2.557188e+003,8.010248e-003
2.559116e+003,7.951897e-003
2.561045e+003,7.950581e-003
2.562973e+003,7.962763e-003
2.564902e+003,8.106685e-003
2.566830e+003,8.119007e-003
2.568759e+003,7.994452e-003
2.570687e+003,7.992056e-003
2.572616e+003,7.989964e-003
2.574544e+003,8.024592e-003
2.576473e+003,8.104153e-003
2.578401e+003,8.111951e-003
2.580330e+003,8.095038e-003
2.582258e+003,8.264601e-003
2.584187e+003,8.183221e-003
2.586115e+003,8.128898e-003
2.588044e+003,8.233432e-003
2.589972e+003,8.290572e-003
2.591901e+003,8.355960e-003
2.593829e+003,8.289659e-003
2.595758e+003,8.205676e-003
2.597686e+003,8.263419e-003
2.599615e+003,8.309890e-003
2.601543e+003,8.410008e-003
2.603472e+003,8.447204e-003
2.605400e+003,8.431764e-003
2.607329e+003,8.441764e-003
2.609257e+003,8.443623e-003
2.611186e+003,8.455751e-003
2.613114e+003,8.369337e-003
2.615043e+003,8.313064e-003
2.616971e+003,8.363493e-003
2.618900e+003,8.412137e-003
2.620828e+003,8.472137e-003
2.622757e+003,8.539649e-003
2.624685e+003,8.558235e-003
2.626614e+003,8.594193e-003
2.628542e+003,8.584155e-003
2.630471e+003,8.671288e-003
2.632399e+003,8.641307e-003
2.634328e+003,8.716383e-003
2.636256e+003,8.847603e-003
2.638185e+003,8.948555e-003
2.640113e+003,8.993848e-003
2.642042e+003,9.030011e-003
2.643970e+003,9.092195e-003
2.645899e+003,9.139465e-003
2.647827e+003,9.196995e-003
2.649756e+003,9.299248e-003
2.651684e+003,9.340277e-003
2.653613e+003,9.433996e-003
2.655541e+003,9.458614e-003
2.657470e+003,9.516999e-003
2.659398e+003,9.590330e-003
2.661327e+003,9.617531e-003
2.663255e+003,9.675564e-003
2.665184e+003,9.684509e-003
2.667112e+003,9.664350e-003
2.669041e+003,9.621291e-003
2.670969e+003,9.632200e-003
2.672898e+003,9.675192e-003
2.674826e+003,9.746821e-003
2.676755e+003,9.757665e-003
2.678683e+003,9.717104e-003
2.680612e+003,9.741670e-003
2.682540e+003,9.754547e-003
2.684469e+003,9.779082e-003
2.686397e+003,9.823749e-003
2.688326e+003,9.883234e-003
2.690254e+003,9.914725e-003
2.692183e+003,9.932963e-003
2.694111e+003,9.975205e-003
2.696040e+003,1.000484e-002
2.697968e+003,1.000694e-002
2.699897e+003,1.002020e-002
2.701825e+003,1.009568e-002
2.703754e+003,1.011237e-002
2.705682e+003,1.010196e-002
2.707611e+003,1.009202e-002
2.709539e+003,1.013061e-002
2.711468e+003,1.015853e-002
2.713396e+003,1.018258e-002
2.715325e+003,1.016830e-002
2.717253e+003,1.021134e-002
2.719182e+003,1.020843e-002
2.721110e+003,1.019309e-002
2.723039e+003,1.017535e-002
2.724967e+003,1.022949e-002
2.726896e+003,1.020398e-002
2.728824e+003,1.017983e-002
2.730753e+003,1.023285e-002
2.732681e+003,1.024544e-002
2.734610e+003,1.023227e-002
2.736538e+003,1.025249e-002
2.738467e+003,1.027407e-002
2.740395e+003,1.029456e-002
2.742324e+003,1.031614e-002
2.744252e+003,1.032337e-002
2.746181e+003,1.033297e-002
2.748109e+003,1.031254e-002
2.750038e+003,1.032887e-002
2.751966e+003,1.034234e-002
2.753895e+003,1.034573e-002
2.755823e+003,1.034648e-002
2.757752e+003,1.037383e-002
2.759680e+003,1.046224e-002
2.761609e+003,1.048148e-002
2.763537e+003,1.045080e-002
2.765466e+003,1.044275e-002
2.767394e+003,1.048739e-002
2.769323e+003,1.047310e-002
2.771251e+003,1.046193e-002
2.773180e+003,1.047503e-002
2.775108e+003,1.053783e-002
2.777037e+003,1.054421e-002
2.778965e+003,1.058842e-002
2.780894e+003,1.063395e-002
2.782822e+003,1.062960e-002
2.784750e+003,1.067405e-002
2.786679e+003,1.066560e-002
2.788608e+003,1.064522e-002
2.790536e+003,1.064716e-002
2.792465e+003,1.065466e-002
2.794393e+003,1.067263e-002
2.796322e+003,1.070730e-002
2.798250e+003,1.077628e-002
2.800178e+003,1.080277e-002
2.802107e+003,1.082377e-002
2.804036e+003,1.086841e-002
2.805964e+003,1.092515e-002
2.807893e+003,1.096222e-002
2.809821e+003,1.098203e-002
2.811750e+003,1.096422e-002
2.813678e+003,1.094968e-002
2.815606e+003,1.105340e-002
2.817535e+003,1.112678e-002
2.819464e+003,1.110877e-002
2.821392e+003,1.121259e-002
2.823321e+003,1.131801e-002
2.825249e+003,1.131655e-002
2.827177e+003,1.134212e-002
2.829106e+003,1.142382e-002
2.831034e+003,1.151197e-002
2.832963e+003,1.160813e-002
2.834892e+003,1.166922e-002
2.836820e+003,1.172270e-002
2.838749e+003,1.181050e-002
2.840677e+003,1.191299e-002
2.842605e+003,1.198721e-002
2.844534e+003,1.211264e-002
2.846462e+003,1.225092e-002
2.848391e+003,1.236934e-002
2.850320e+003,1.251411e-002
2.852248e+003,1.258168e-002
2.854177e+003,1.260866e-002
2.856105e+003,1.260780e-002
2.858033e+003,1.266283e-002
2.859962e+003,1.275075e-002
2.861890e+003,1.278607e-002
2.863819e+003,1.288449e-002
2.865748e+003,1.299533e-002
2.867676e+003,1.301339e-002
2.869604e+003,1.302835e-002
2.871533e+003,1.308055e-002
2.873461e+003,1.310336e-002
2.875390e+003,1.320278e-002
2.877319e+003,1.327076e-002
2.879247e+003,1.329198e-002
2.881176e+003,1.330294e-002
2.883104e+003,1.328255e-002
2.885032e+003,1.332508e-002
2.886961e+003,1.338057e-002
2.888889e+003,1.345859e-002
2.890818e+003,1.351591e-002
2.892747e+003,1.351362e-002
2.894675e+003,1.349174e-002
2.896604e+003,1.348672e-002
2.898532e+003,1.346109e-002
2.900460e+003,1.347893e-002
2.902389e+003,1.351376e-002
2.904317e+003,1.355638e-002
2.906246e+003,1.353601e-002
2.908175e+003,1.358684e-002
2.910103e+003,1.357105e-002
2.912031e+003,1.356975e-002
2.913960e+003,1.359864e-002
2.915888e+003,1.357204e-002
2.917817e+003,1.358602e-002
2.919745e+003,1.363067e-002
2.921674e+003,1.358657e-002
2.923603e+003,1.347910e-002
2.925531e+003,1.337914e-002
2.927459e+003,1.330240e-002
2.929388e+003,1.326960e-002
2.931316e+003,1.326407e-002
2.933245e+003,1.316050e-002
2.935173e+003,1.308374e-002
2.937102e+003,1.297573e-002
2.939031e+003,1.292701e-002
2.940959e+003,1.285234e-002
2.942887e+003,1.269060e-002
2.944816e+003,1.256807e-002
2.946744e+003,1.247623e-002
2.948673e+003,1.235617e-002
2.950601e+003,1.226091e-002
2.952530e+003,1.214563e-002
2.954458e+003,1.206285e-002
2.956387e+003,1.197546e-002
2.958315e+003,1.192179e-002
2.960244e+003,1.187285e-002
2.962172e+003,1.177610e-002
2.964101e+003,1.167770e-002
2.966029e+003,1.157413e-002
2.967958e+003,1.151896e-002
2.969886e+003,1.151784e-002
2.971815e+003,1.150220e-002
2.973743e+003,1.136598e-002
2.975672e+003,1.128689e-002
2.977600e+003,1.125741e-002
2.979529e+003,1.125331e-002
2.981457e+003,1.123975e-002
2.983386e+003,1.122108e-002
2.985314e+003,1.118031e-002
2.987243e+003,1.110351e-002
2.989171e+003,1.112128e-002
2.991100e+003,1.110800e-002
2.993028e+003,1.109537e-002
2.994957e+003,1.110540e-002
2.996885e+003,1.108795e-002
2.998814e+003,1.106180e-002
3.000742e+003,1.104490e-002
3.002671e+003,1.103734e-002
3.004599e+003,1.109284e-002
3.006528e+003,1.113798e-002
3.008456e+003,1.111303e-002
3.010385e+003,1.107945e-002
3.012313e+003,1.116336e-002
3.014242e+003,1.115260e-002
3.016170e+003,1.108504e-002
3.018099e+003,1.103783e-002
3.020027e+003,1.110027e-002
3.021956e+003,1.115418e-002
3.023884e+003,1.122348e-002
3.025813e+003,1.128347e-002
3.027741e+003,1.130304e-002
3.029670e+003,1.129270e-002
3.031598e+003,1.134701e-002
3.033527e+003,1.142742e-002
3.035455e+003,1.139860e-002
3.037384e+003,1.139733e-002
3.039312e+003,1.150041e-002
3.041241e+003,1.153986e-002
3.043169e+003,1.155315e-002
3.045098e+003,1.163813e-002
3.047026e+003,1.165917e-002
3.048955e+003,1.172191e-002
3.050883e+003,1.181377e-002
3.052812e+003,1.184005e-002
3.054740e+003,1.186080e-002
3.056669e+003,1.185869e-002
3.058597e+003,1.193764e-002
3.060526e+003,1.203736e-002
3.062454e+003,1.202065e-002
3.064383e+003,1.202499e-002
3.066311e+003,1.201836e-002
3.068240e+003,1.211181e-002
3.070168e+003,1.218150e-002
3.072097e+003,1.221372e-002
3.074025e+003,1.228140e-002
3.075954e+003,1.231764e-002
3.077882e+003,1.234580e-002
3.079811e+003,1.237463e-002
3.081739e+003,1.245091e-002
3.083668e+003,1.247064e-002
3.085596e+003,1.252830e-002
3.087525e+003,1.260834e-002
3.089453e+003,1.261162e-002
3.091382e+003,1.261869e-002
3.093310e+003,1.264528e-002
3.095239e+003,1.276365e-002
3.097167e+003,1.287152e-002
3.099096e+003,1.286873e-002
3.101024e+003,1.283864e-002
3.102953e+003,1.287545e-002
3.104881e+003,1.288055e-002
3.106810e+003,1.298530e-002
3.108738e+003,1.309653e-002
3.110667e+003,1.312620e-002
3.112595e+003,1.312283e-002
3.114524e+003,1.322621e-002
3.116452e+003,1.324602e-002
3.118381e+003,1.327922e-002
3.120309e+003,1.339369e-002
3.122238e+003,1.349096e-002
3.124166e+003,1.352643e-002
3.126095e+003,1.359953e-002
3.128023e+003,1.370570e-002
3.129952e+003,1.374635e-002
3.131880e+003,1.377656e-002
3.133809e+003,1.382964e-002
3.135737e+003,1.387870e-002
3.137666e+003,1.388753e-002
3.139594e+003,1.399720e-002
3.141523e+003,1.405349e-002
3.143451e+003,1.409929e-002
3.145380e+003,1.421352e-002
3.147308e+003,1.428507e-002
3.149237e+003,1.424189e-002
3.151165e+003,1.425552e-002
3.153094e+003,1.440904e-002
3.155022e+003,1.455147e-002
3.156951e+003,1.460856e-002
3.158879e+003,1.470674e-002
3.160808e+003,1.479388e-002
3.162736e+003,1.484633e-002
3.164665e+003,1.484883e-002
3.166593e+003,1.487791e-002
3.168522e+003,1.496595e-002
3.170450e+003,1.502872e-002
3.172379e+003,1.515714e-002
3.174307e+003,1.527532e-002
3.176236e+003,1.530523e-002
3.178164e+003,1.538534e-002
3.180093e+003,1.546094e-002
3.182021e+003,1.553040e-002
3.183950e+003,1.562178e-002
3.185878e+003,1.565027e-002
3.187807e+003,1.574923e-002
3.189735e+003,1.584882e-002
3.191664e+003,1.593291e-002
3.193592e+003,1.602623e-002
3.195521e+003,1.611897e-002
3.197449e+003,1.623872e-002
3.199378e+003,1.627864e-002
3.201306e+003,1.634834e-002
3.203235e+003,1.643563e-002
3.205163e+003,1.646276e-002
3.207092e+003,1.660577e-002
3.209020e+003,1.678555e-002
3.210948e+003,1.680478e-002
3.212877e+003,1.686087e-002
3.214806e+003,1.693336e-002
3.216734e+003,1.698019e-002
3.218663e+003,1.700042e-002
3.220591e+003,1.713272e-002
3.222520e+003,1.729540e-002
3.224448e+003,1.745988e-002
3.226376e+003,1.748648e-002
3.228305e+003,1.752687e-002
3.230234e+003,1.763022e-002
3.232162e+003,1.774343e-002
3.234091e+003,1.784255e-002
3.236019e+003,1.794063e-002
3.237948e+003,1.803167e-002
3.239876e+003,1.807099e-002
3.241804e+003,1.822244e-002
3.243733e+003,1.837104e-002
3.245662e+003,1.853251e-002
3.247590e+003,1.866359e-002
3.249519e+003,1.874262e-002
3.251447e+003,1.879418e-002
3.253375e+003,1.888868e-002
3.255304e+003,1.893433e-002
3.257232e+003,1.904370e-002
3.259161e+003,1.921511e-002
3.261090e+003,1.939583e-002
3.263018e+003,1.950331e-002
3.264947e+003,1.947516e-002
3.266875e+003,1.956332e-002
3.268803e+003,1.969952e-002
3.270732e+003,1.977159e-002
3.272660e+003,1.982630e-002
3.274589e+003,1.991239e-002
3.276518e+003,1.996518e-002
3.278446e+003,1.999855e-002
3.280375e+003,2.007549e-002
3.282303e+003,2.007941e-002
3.284231e+003,2.011241e-002
3.286160e+003,2.019618e-002
3.288088e+003,2.028000e-002
3.290017e+003,2.023752e-002
3.291946e+003,2.031963e-002
3.293874e+003,2.036173e-002
3.295802e+003,2.044674e-002
3.297731e+003,2.049330e-002
3.299659e+003,2.050394e-002
3.301588e+003,2.057809e-002
3.303516e+003,2.055488e-002
3.305445e+003,2.054362e-002
3.307374e+003,2.061520e-002
3.309302e+003,2.064850e-002
3.311230e+003,2.063977e-002
3.313159e+003,2.068376e-002
3.315087e+003,2.072684e-002
3.317016e+003,2.076343e-002
3.318944e+003,2.089029e-002
3.320873e+003,2.097672e-002
3.322802e+003,2.102050e-002
3.324730e+003,2.101238e-002
3.326658e+003,2.111771e-002
3.328587e+003,2.120882e-002
3.330515e+003,2.117691e-002
3.332444e+003,2.113580e-002
3.334372e+003,2.109513e-002
3.336301e+003,2.115859e-002
3.338229e+003,2.111526e-002
3.340158e+003,2.113900e-002
3.342086e+003,2.123628e-002
3.344015e+003,2.114984e-002
3.345943e+003,2.104891e-002
3.347872e+003,2.101079e-002
3.349800e+003,2.101547e-002
3.351729e+003,2.094318e-002
3.353657e+003,2.088403e-002
3.355586e+003,2.088337e-002
3.357514e+003,2.084820e-002
3.359443e+003,2.079102e-002
3.361371e+003,2.081336e-002
3.363300e+003,2.071543e-002
3.365229e+003,2.062106e-002
3.367157e+003,2.051482e-002
3.369085e+003,2.045332e-002
3.371014e+003,2.045047e-002
3.372942e+003,2.036329e-002
3.374871e+003,2.026328e-002
3.376799e+003,2.028700e-002
3.378728e+003,2.028544e-002
3.380656e+003,2.032232e-002
3.382585e+003,2.023639e-002
3.384513e+003,2.010872e-002
3.386442e+003,2.007337e-002
3.388370e+003,2.002780e-002
3.390299e+003,1.997740e-002
3.392227e+003,1.996246e-002
3.394156e+003,1.984326e-002
3.396084e+003,1.973173e-002
3.398013e+003,1.974992e-002
3.399941e+003,1.971657e-002
3.401870e+003,1.957874e-002
3.403798e+003,1.951719e-002
3.405727e+003,1.944172e-002
3.407655e+003,1.941459e-002
3.409584e+003,1.934793e-002
3.411512e+003,1.917513e-002
3.413441e+003,1.906867e-002
3.415369e+003,1.902540e-002
3.417298e+003,1.890263e-002
3.419226e+003,1.883956e-002
3.421155e+003,1.868626e-002
3.423083e+003,1.859106e-002
3.425012e+003,1.853915e-002
3.426940e+003,1.845698e-002
3.428869e+003,1.833457e-002
3.430797e+003,1.828079e-002
3.432726e+003,1.813415e-002
3.434654e+003,1.794999e-002
3.436583e+003,1.774944e-002
3.438511e+003,1.764831e-002
3.440440e+003,1.762039e-002
3.442368e+003,1.743116e-002
3.444297e+003,1.723516e-002
3.446225e+003,1.715156e-002
3.448154e+003,1.711643e-002
3.450082e+003,1.696822e-002
3.452011e+003,1.684438e-002
3.453939e+003,1.676292e-002
3.455868e+003,1.663564e-002
3.457796e+003,1.649102e-002
3.459725e+003,1.635359e-002
3.461653e+003,1.627387e-002
3.463582e+003,1.620238e-002
3.465510e+003,1.596595e-002
3.467439e+003,1.577664e-002
3.469367e+003,1.570894e-002
3.471296e+003,1.561759e-002
3.473224e+003,1.542259e-002
3.475153e+003,1.518370e-002
3.477081e+003,1.504432e-002
3.479010e+003,1.500714e-002
3.480938e+003,1.495951e-002
3.482867e+003,1.482229e-002
3.484795e+003,1.474431e-002
3.486724e+003,1.473137e-002
3.488652e+003,1.454821e-002
3.490581e+003,1.437086e-002
3.492509e+003,1.429508e-002
3.494438e+003,1.423423e-002
3.496366e+003,1.412167e-002
3.498295e+003,1.398776e-002
3.500223e+003,1.392388e-002
3.502152e+003,1.383990e-002
3.504080e+003,1.375323e-002
3.506009e+003,1.365372e-002
3.507937e+003,1.350426e-002
3.509866e+003,1.339562e-002
3.511794e+003,1.323851e-002
3.513723e+003,1.307176e-002
3.515651e+003,1.302576e-002
3.517580e+003,1.294798e-002
3.519508e+003,1.279622e-002
3.521437e+003,1.267708e-002
3.523365e+003,1.266869e-002
3.525294e+003,1.257332e-002
3.527222e+003,1.241771e-002
3.529151e+003,1.229010e-002
3.531079e+003,1.224428e-002
3.533008e+003,1.220077e-002
3.534936e+003,1.206899e-002
3.536865e+003,1.198137e-002
3.538793e+003,1.189879e-002
3.540722e+003,1.178869e-002
3.542650e+003,1.165986e-002
3.544579e+003,1.154973e-002
3.546507e+003,1.142076e-002
3.548436e+003,1.136423e-002
3.550364e+003,1.130861e-002
3.552293e+003,1.124543e-002
3.554221e+003,1.112509e-002
3.556150e+003,1.104876e-002
3.558078e+003,1.100080e-002
3.560007e+003,1.096755e-002
3.561935e+003,1.084515e-002
3.563864e+003,1.066316e-002
3.565792e+003,1.051087e-002
3.567721e+003,1.044016e-002
3.569649e+003,1.040847e-002
3.571578e+003,1.037817e-002
3.573506e+003,1.030403e-002
3.575435e+003,1.016650e-002
3.577363e+003,1.005405e-002
3.579292e+003,1.002854e-002
3.581220e+003,1.005612e-002
3.583149e+003,1.001457e-002
3.585077e+003,9.859142e-003
3.587006e+003,9.746578e-003
3.588934e+003,9.895482e-003
3.590863e+003,9.985982e-003
3.592791e+003,9.916036e-003
3.594720e+003,9.695236e-003
3.596648e+003,9.685029e-003
3.598577e+003,9.789345e-003
3.600505e+003,9.760939e-003
3.602434e+003,9.677796e-003
3.604362e+003,9.615205e-003
3.606291e+003,9.436350e-003
3.608219e+003,9.296216e-003
3.610148e+003,9.071277e-003
3.612076e+003,8.801916e-003
3.614005e+003,8.762857e-003
3.615933e+003,8.710566e-003
3.617862e+003,8.681041e-003
3.619790e+003,8.746638e-003
3.621719e+003,8.871138e-003
3.623647e+003,8.928291e-003
3.625576e+003,8.871495e-003
3.627504e+003,8.846986e-003
3.629433e+003,8.880369e-003
3.631361e+003,8.916385e-003
3.633290e+003,8.793310e-003
3.635218e+003,8.680128e-003
3.637146e+003,8.524933e-003
3.639075e+003,8.401475e-003
3.641004e+003,8.267072e-003
3.642932e+003,8.212711e-003
3.644861e+003,8.155805e-003
3.646789e+003,8.119110e-003
3.648718e+003,8.075144e-003
3.650646e+003,7.972538e-003
3.652574e+003,7.931732e-003
3.654503e+003,7.907362e-003
3.656432e+003,7.850544e-003
3.658360e+003,7.878506e-003
3.660289e+003,7.896602e-003
3.662217e+003,7.817153e-003
3.664146e+003,7.741268e-003
3.666074e+003,7.771944e-003
3.668002e+003,7.730743e-003
3.669931e+003,7.769632e-003
3.671860e+003,7.845504e-003
3.673788e+003,7.814146e-003
3.675717e+003,7.835257e-003
3.677645e+003,7.905922e-003
3.679573e+003,7.870066e-003
3.681502e+003,7.921567e-003
3.683430e+003,8.080364e-003
3.685359e+003,8.162914e-003
3.687288e+003,8.177943e-003
3.689216e+003,8.044840e-003
3.691145e+003,8.118095e-003
3.693073e+003,8.201825e-003
3.695001e+003,8.130453e-003
3.696930e+003,8.192217e-003
3.698858e+003,8.234638e-003
3.700787e+003,8.234655e-003
3.702716e+003,8.253978e-003
3.704644e+003,8.431729e-003
3.706573e+003,8.400472e-003
3.708501e+003,8.199838e-003
3.710429e+003,8.104908e-003
3.712358e+003,8.060703e-003
3.714286e+003,7.997001e-003
3.716215e+003,7.942721e-003
3.718144e+003,8.125815e-003
3.720072e+003,8.306418e-003
3.722000e+003,8.302058e-003
3.723929e+003,8.376945e-003
3.725857e+003,8.421978e-003
3.727786e+003,8.507914e-003
3.729714e+003,8.584692e-003
3.731643e+003,8.553674e-003
3.733572e+003,8.467668e-003
3.735500e+003,8.445596e-003
3.737428e+003,8.419984e-003
3.739357e+003,8.304311e-003
3.741285e+003,8.296931e-003
3.743214e+003,8.338702e-003
3.745142e+003,8.239443e-003
3.747071e+003,8.053705e-003
3.749000e+003,8.021397e-003
3.750928e+003,8.042539e-003
3.752856e+003,8.041228e-003
3.754785e+003,7.998435e-003
3.756713e+003,7.970238e-003
3.758642e+003,7.905197e-003
3.760570e+003,7.879090e-003
3.762499e+003,7.948395e-003
3.764427e+003,7.997535e-003
3.766356e+003,7.931401e-003
3.768284e+003,7.873770e-003
3.770213e+003,7.883655e-003
3.772141e+003,8.012324e-003
3.774070e+003,8.055200e-003
3.775998e+003,8.059935e-003
3.777927e+003,8.026470e-003
3.779855e+003,8.001607e-003
3.781784e+003,8.034939e-003
3.783712e+003,8.010596e-003
3.785641e+003,8.068288e-003
3.787569e+003,8.062097e-003
3.789498e+003,8.106408e-003
3.791426e+003,8.185946e-003
3.793355e+003,8.164722e-003
3.795283e+003,8.153117e-003
3.797212e+003,8.061212e-003
3.799140e+003,8.094165e-003
3.801069e+003,8.185728e-003
3.802997e+003,8.199139e-003
3.804926e+003,8.249290e-003
3.806854e+003,8.259620e-003
3.808783e+003,8.246136e-003
3.810711e+003,8.234017e-003
3.812640e+003,8.265925e-003
3.814568e+003,8.330955e-003
3.816497e+003,8.330772e-003
3.818425e+003,8.240964e-003
3.820354e+003,8.189814e-003
3.822282e+003,8.236356e-003
3.824211e+003,8.278655e-003
3.826139e+003,8.296843e-003
3.828068e+003,8.350564e-003
3.829996e+003,8.347047e-003
3.831925e+003,8.247674e-003
3.833853e+003,8.312561e-003
3.835782e+003,8.414786e-003
3.837710e+003,8.473754e-003
3.839639e+003,8.349586e-003
3.841567e+003,8.288322e-003
3.843496e+003,8.302095e-003
3.845424e+003,8.345865e-003
3.847353e+003,8.331242e-003
3.849281e+003,8.357610e-003
3.851210e+003,8.444789e-003
3.853138e+003,8.645881e-003
3.855067e+003,8.653557e-003
3.856995e+003,8.505128e-003
3.858924e+003,8.402139e-003
3.860852e+003,8.309652e-003
3.862781e+003,8.304912e-003
3.864709e+003,8.343366e-003
3.866638e+003,8.446534e-003
3.868566e+003,8.458385e-003
3.870495e+003,8.449602e-003
3.872423e+003,8.443595e-003
3.874352e+003,8.465294e-003
3.876280e+003,8.491104e-003
3.878209e+003,8.439165e-003
3.880137e+003,8.345486e-003
3.882066e+003,8.433831e-003
3.883994e+003,8.502332e-003
3.885923e+003,8.559648e-003
3.887851e+003,8.576922e-003
3.889780e+003,8.521006e-003
3.891708e+003,8.612590e-003
3.893637e+003,8.636935e-003
3.895565e+003,8.467710e-003
3.897494e+003,8.438112e-003
3.899422e+003,8.536561e-003
3.901351e+003,8.623851e-003
3.903279e+003,8.588639e-003
3.905208e+003,8.618939e-003
3.907136e+003,8.664433e-003
3.909065e+003,8.662262e-003
3.910993e+003,8.546674e-003
3.912922e+003,8.576342e-003
3.914850e+003,8.635344e-003
3.916779e+003,8.589918e-003
3.918707e+003,8.538248e-003
3.920636e+003,8.508391e-003
3.922564e+003,8.547393e-003
3.924493e+003,8.595446e-003
3.926421e+003,8.648884e-003
3.928350e+003,8.596078e-003
3.930278e+003,8.559108e-003
3.932207e+003,8.567872e-003
3.934135e+003,8.632931e-003
3.936064e+003,8.671800e-003
3.937992e+003,8.631673e-003
3.939921e+003,8.588941e-003
3.941849e+003,8.597186e-003
3.943778e+003,8.596923e-003
3.945706e+003,8.643684e-003
3.947635e+003,8.643141e-003
3.949563e+003,8.604806e-003
3.951492e+003,8.682529e-003
3.953420e+003,8.758607e-003
3.955349e+003,8.771871e-003
3.957277e+003,8.776681e-003
3.959206e+003,8.636877e-003
3.961134e+003,8.664346e-003
3.963063e+003,8.764723e-003
3.964991e+003,8.732166e-003
3.966920e+003,8.682182e-003
3.968848e+003,8.626863e-003
3.970777e+003,8.673154e-003
3.972705e+003,8.689562e-003
3.974634e+003,8.760892e-003
3.976562e+003,8.760611e-003
3.978491e+003,8.751894e-003
3.980419e+003,8.735629e-003
3.982348e+003,8.703908e-003
3.984276e+003,8.777780e-003
3.986205e+003,8.748250e-003
3.988133e+003,8.655797e-003
3.990062e+003,8.617109e-003
3.991990e+003,8.700113e-003
3.993919e+003,8.818679e-003
3.995847e+003,8.685720e-003
3.997776e+003,8.690007e-003
3.999704e+003,8.690962e-003
4.001633e+003,0.000000e+000
