3.991989e+002,9.044219e-001
4.011274e+002,9.712739e-001
4.030559e+002,1.043035e+000
4.049844e+002,1.109530e+000
4.069129e+002,1.184291e+000
4.088414e+002,1.259156e+000
4.107699e+002,1.333844e+000
4.126984e+002,1.415099e+000
4.146269e+002,1.504720e+000
4.165554e+002,1.577850e+000
4.184839e+002,1.643992e+000
4.204124e+002,1.738803e+000
4.223409e+002,1.840233e+000
4.242694e+002,1.927162e+000
4.261979e+002,2.017853e+000
4.281264e+002,2.099311e+000
4.300549e+002,2.189437e+000
4.319834e+002,2.274672e+000
4.339119e+002,2.355698e+000
4.358404e+002,2.431022e+000
4.377689e+002,2.515517e+000
4.396974e+002,2.590909e+000
4.416259e+002,2.668309e+000
4.435544e+002,2.735147e+000
4.454829e+002,2.801896e+000
4.474114e+002,2.866429e+000
4.493399e+002,2.929021e+000
4.512684e+002,2.985082e+000
4.531969e+002,3.050162e+000
4.551254e+002,3.104696e+000
4.570539e+002,3.153267e+000
4.589824e+002,3.220996e+000
4.609109e+002,3.293666e+000
4.628394e+002,3.347531e+000
4.647679e+002,3.409492e+000
4.666964e+002,3.457840e+000
4.686249e+002,3.517460e+000
4.705533e+002,3.572975e+000
4.724819e+002,3.627499e+000
4.744103e+002,3.692760e+000
4.763389e+002,3.764305e+000
4.782673e+002,3.825626e+000
4.801959e+002,3.905298e+000
4.821243e+002,3.980931e+000
4.840529e+002,4.055394e+000
4.859813e+002,4.130730e+000
4.879099e+002,4.204860e+000
4.898383e+002,4.257586e+000
4.917668e+002,4.317778e+000
4.936953e+002,4.362746e+000
4.956238e+002,4.405540e+000
4.975523e+002,4.447024e+000
4.994808e+002,4.491364e+000
5.014093e+002,4.523413e+000
5.033378e+002,4.582825e+000
5.052663e+002,4.636257e+000
5.071948e+002,4.693794e+000
5.091233e+002,4.749353e+000
5.110518e+002,4.803999e+000
5.129803e+002,4.850232e+000
5.149088e+002,4.903450e+000
5.168373e+002,4.937935e+000
5.187658e+002,4.989687e+000
5.206943e+002,5.046584e+000
5.226228e+002,5.108183e+000
5.245513e+002,5.158955e+000
5.264798e+002,5.227289e+000
5.284083e+002,5.288925e+000
5.303368e+002,5.359242e+000
5.322653e+002,5.420538e+000
5.341938e+002,5.479492e+000
5.361223e+002,5.526323e+000
5.380508e+002,5.584120e+000
5.399792e+002,5.623530e+000
5.419078e+002,5.674699e+000
5.438363e+002,5.714851e+000
5.457648e+002,5.759686e+000
5.476932e+002,5.798566e+000
5.496218e+002,5.846990e+000
5.515503e+002,5.878572e+000
5.534788e+002,5.930371e+000
5.554072e+002,5.969771e+000
5.573358e+002,6.021663e+000
5.592643e+002,6.064087e+000
5.611927e+002,6.120975e+000
5.631212e+002,6.166525e+000
5.650497e+002,6.231044e+000
5.669783e+002,6.272842e+000
5.689067e+002,6.324891e+000
5.708352e+002,6.365005e+000
5.727637e+002,6.413029e+000
5.746923e+002,6.440047e+000
5.766207e+002,6.484493e+000
5.785492e+002,6.515079e+000
5.804777e+002,6.573926e+000
5.824063e+002,6.591241e+000
5.843347e+002,6.619320e+000
5.862632e+002,6.642576e+000
5.881917e+002,6.688803e+000
5.901202e+002,6.737901e+000
5.920487e+002,6.811421e+000
5.939772e+002,6.867740e+000
5.959057e+002,6.939342e+000
5.978342e+002,7.000505e+000
5.997627e+002,7.092437e+000
6.016912e+002,7.152220e+000
6.036197e+002,7.239508e+000
6.055482e+002,7.294350e+000
6.074767e+002,7.374455e+000
6.094052e+002,7.431010e+000
6.113337e+002,7.530089e+000
6.132622e+002,7.609175e+000
6.151907e+002,7.650620e+000
6.171192e+002,7.511570e+000
6.190477e+002,7.693954e+000
6.209762e+002,7.904439e+000
6.229047e+002,7.989374e+000
6.248332e+002,8.040198e+000
6.267617e+002,8.112436e+000
6.286902e+002,8.154486e+000
6.306187e+002,8.220195e+000
6.325472e+002,8.242365e+000
6.344756e+002,8.285460e+000
6.364042e+002,8.271747e+000
6.383326e+002,8.284044e+000
6.402612e+002,8.230165e+000
6.421896e+002,8.205064e+000
6.441182e+002,8.113033e+000
6.460466e+002,8.030183e+000
6.479752e+002,7.804527e+000
6.499036e+002,7.816236e+000
6.518322e+002,7.865244e+000
6.537606e+002,7.919634e+000
6.556891e+002,7.903626e+000
6.576177e+002,8.030037e+000
6.595461e+002,8.106528e+000
6.614746e+002,8.320734e+000
6.634031e+002,8.525713e+000
6.653317e+002,8.061739e+000
6.672601e+002,4.877501e+000
6.691886e+002,4.924654e+000
6.711171e+002,7.724733e+000
6.730457e+002,8.185509e+000
6.749741e+002,8.134372e+000
6.769026e+002,8.007803e+000
6.788311e+002,8.064828e+000
6.807596e+002,8.050472e+000
6.826881e+002,8.198453e+000
6.846166e+002,8.278286e+000
6.865451e+002,8.481638e+000
6.884736e+002,8.603732e+000
6.904021e+002,8.842250e+000
6.923306e+002,9.029957e+000
6.942591e+002,9.276301e+000
6.961876e+002,9.447423e+000
6.981161e+002,9.669388e+000
7.000446e+002,9.819399e+000
7.019731e+002,1.000581e+001
7.039016e+002,1.011569e+001
7.058301e+002,1.026543e+001
7.077585e+002,1.034279e+001
7.096871e+002,1.046196e+001
7.116156e+002,1.051404e+001
7.135441e+002,1.060791e+001
7.154725e+002,1.064090e+001
7.174011e+002,1.065077e+001
7.193296e+002,1.038231e+001
7.212581e+002,1.046645e+001
7.231865e+002,1.077022e+001
7.251151e+002,1.083422e+001
7.270436e+002,1.084209e+001
7.289720e+002,1.086100e+001
7.309005e+002,1.087067e+001
7.328290e+002,1.089091e+001
7.347576e+002,1.090070e+001
7.366860e+002,1.092454e+001
7.386145e+002,1.093372e+001
7.405430e+002,1.094550e+001
7.424716e+002,1.096030e+001
7.444000e+002,1.099944e+001
7.463285e+002,1.101480e+001
7.482570e+002,1.104588e+001
7.501855e+002,1.106226e+001
7.521140e+002,1.109173e+001
7.540425e+002,1.110881e+001
7.559710e+002,1.114463e+001
7.578995e+002,1.116642e+001
7.598280e+002,1.120321e+001
7.617565e+002,1.122990e+001
7.636850e+002,1.127048e+001
7.656135e+002,1.129503e+001
7.675420e+002,1.133464e+001
7.694705e+002,1.136104e+001
7.713990e+002,1.140090e+001
7.733275e+002,1.142581e+001
7.752560e+002,1.146112e+001
7.771844e+002,1.148157e+001
7.791130e+002,1.151482e+001
7.810415e+002,1.153352e+001
7.829700e+002,1.155728e+001
7.848984e+002,1.156215e+001
7.868270e+002,1.157367e+001
7.887555e+002,1.156360e+001
7.906840e+002,1.155941e+001
7.926124e+002,1.153903e+001
7.945410e+002,1.152958e+001
7.964695e+002,1.150867e+001
7.983979e+002,1.150263e+001
8.003264e+002,1.148764e+001
8.022549e+002,1.148806e+001
8.041835e+002,1.148113e+001
8.061119e+002,1.148903e+001
8.080404e+002,1.148990e+001
8.099689e+002,1.150228e+001
8.118975e+002,1.150523e+001
8.138259e+002,1.151908e+001
8.157545e+002,1.151867e+001
8.176830e+002,1.152620e+001
8.196115e+002,1.152258e+001
8.215399e+002,1.152738e+001
8.234684e+002,1.153106e+001
8.253970e+002,1.155635e+001
8.273254e+002,1.157413e+001
8.292539e+002,1.160262e+001
8.311824e+002,1.162053e+001
8.331110e+002,1.164351e+001
8.350394e+002,1.165636e+001
8.369679e+002,1.167884e+001
8.388964e+002,1.169145e+001
8.408250e+002,1.171568e+001
8.427534e+002,1.173449e+001
8.446819e+002,1.176378e+001
8.466104e+002,1.178783e+001
8.485389e+002,1.181830e+001
8.504674e+002,1.183902e+001
8.523959e+002,1.187148e+001
8.543244e+002,1.189632e+001
8.562529e+002,1.192902e+001
8.581814e+002,1.195537e+001
8.601099e+002,1.198833e+001
8.620384e+002,1.200933e+001
8.639669e+002,1.204223e+001
8.658954e+002,1.206762e+001
8.678239e+002,1.210290e+001
8.697524e+002,1.213164e+001
8.716809e+002,1.216696e+001
8.736094e+002,1.219592e+001
8.755378e+002,1.223734e+001
8.774664e+002,1.227090e+001
8.793949e+002,1.231244e+001
8.813234e+002,1.234787e+001
8.832518e+002,1.238879e+001
8.851804e+002,1.242391e+001
8.871089e+002,1.246594e+001
8.890374e+002,1.249917e+001
8.909658e+002,1.254268e+001
8.928943e+002,1.257990e+001
8.948229e+002,1.262463e+001
8.967513e+002,1.266537e+001
8.986798e+002,1.271557e+001
9.006083e+002,1.275893e+001
9.025369e+002,1.281290e+001
9.044653e+002,1.286129e+001
9.063938e+002,1.291613e+001
9.083223e+002,1.296490e+001
9.102509e+002,1.301937e+001
9.121793e+002,1.306783e+001
9.141078e+002,1.312545e+001
9.160364e+002,1.317496e+001
9.179648e+002,1.323648e+001
9.198933e+002,1.329881e+001
9.218218e+002,1.336645e+001
9.237504e+002,1.342603e+001
9.256788e+002,1.349254e+001
9.276073e+002,1.355133e+001
9.295358e+002,1.361809e+001
9.314644e+002,1.367801e+001
9.333928e+002,1.374140e+001
9.353213e+002,1.379925e+001
9.372498e+002,1.386348e+001
9.391783e+002,1.391551e+001
9.411068e+002,1.397488e+001
9.430353e+002,1.402582e+001
9.449637e+002,1.407855e+001
9.468923e+002,1.412894e+001
9.488208e+002,1.418549e+001
9.507493e+002,1.423367e+001
9.526777e+002,1.429092e+001
9.546063e+002,1.434179e+001
9.565348e+002,1.439656e+001
9.584633e+002,1.444769e+001
9.603917e+002,1.450410e+001
9.623203e+002,1.455709e+001
9.642488e+002,1.462535e+001
9.661772e+002,1.468785e+001
9.681057e+002,1.475833e+001
9.700343e+002,1.482604e+001
9.719628e+002,1.489454e+001
9.738912e+002,1.495908e+001
9.758197e+002,1.503804e+001
9.777483e+002,1.510945e+001
9.796768e+002,1.517569e+001
9.816052e+002,1.523341e+001
9.835337e+002,1.529238e+001
9.854623e+002,1.534674e+001
9.873907e+002,1.540985e+001
9.893192e+002,1.546389e+001
9.912477e+002,1.552324e+001
9.931763e+002,1.558178e+001
9.951047e+002,1.564387e+001
9.970332e+002,1.569849e+001
9.989617e+002,1.575655e+001
1.000890e+003,1.580153e+001
1.002819e+003,1.584757e+001
1.004747e+003,1.588034e+001
1.006676e+003,1.590541e+001
1.008604e+003,1.592064e+001
1.010533e+003,1.593894e+001
1.012461e+003,1.594942e+001
1.014390e+003,1.596482e+001
1.016318e+003,1.597829e+001
1.018247e+003,1.599810e+001
1.020175e+003,1.601925e+001
1.022104e+003,1.604705e+001
1.024032e+003,1.607047e+001
1.025961e+003,1.610618e+001
1.027889e+003,1.613776e+001
1.029818e+003,1.617690e+001
1.031746e+003,1.621395e+001
1.033675e+003,1.625300e+001
1.035603e+003,1.628876e+001
1.037532e+003,1.633092e+001
1.039460e+003,1.635833e+001
1.041389e+003,1.638092e+001
1.043317e+003,1.639182e+001
1.045246e+003,1.640214e+001
1.047174e+003,1.640913e+001
1.049103e+003,1.642583e+001
1.051031e+003,1.643725e+001
1.052960e+003,1.645743e+001
1.054888e+003,1.647581e+001
1.056817e+003,1.649723e+001
1.058745e+003,1.651802e+001
1.060674e+003,1.654931e+001
1.062602e+003,1.657483e+001
1.064531e+003,1.660465e+001
1.066459e+003,1.662775e+001
1.068388e+003,1.665184e+001
1.070316e+003,1.666785e+001
1.072245e+003,1.667851e+001
1.074173e+003,1.667774e+001
1.076102e+003,1.670401e+001
1.078030e+003,1.674496e+001
1.079959e+003,1.679206e+001
1.081887e+003,1.685736e+001
1.083816e+003,1.693135e+001
1.085744e+003,1.697898e+001
1.087673e+003,1.701641e+001
1.089601e+003,1.704025e+001
1.091530e+003,1.706300e+001
1.093458e+003,1.708105e+001
1.095387e+003,1.710605e+001
1.097315e+003,1.713163e+001
1.099244e+003,1.716647e+001
1.101172e+003,1.719813e+001
1.103101e+003,1.723946e+001
1.105029e+003,1.728621e+001
1.106958e+003,1.733875e+001
1.108886e+003,1.739274e+001
1.110815e+003,1.746235e+001
1.112743e+003,1.753400e+001
1.114672e+003,1.762018e+001
1.116600e+003,1.770635e+001
1.118529e+003,1.779172e+001
1.120457e+003,1.787263e+001
1.122386e+003,1.795923e+001
1.124314e+003,1.803996e+001
1.126243e+003,1.812641e+001
1.128171e+003,1.820185e+001
1.130100e+003,1.826930e+001
1.132028e+003,1.832521e+001
1.133957e+003,1.837695e+001
1.135885e+003,1.841094e+001
1.137814e+003,1.843302e+001
1.139742e+003,1.842703e+001
1.141671e+003,1.842119e+001
1.143599e+003,1.845398e+001
1.145528e+003,1.851027e+001
1.147456e+003,1.855082e+001
1.149385e+003,1.859016e+001
1.151313e+003,1.864592e+001
1.153242e+003,1.873542e+001
1.155170e+003,1.882079e+001
1.157099e+003,1.889619e+001
1.159027e+003,1.896455e+001
1.160956e+003,1.904316e+001
1.162884e+003,1.911896e+001
1.164813e+003,1.920547e+001
1.166741e+003,1.930147e+001
1.168670e+003,1.939575e+001
1.170598e+003,1.947170e+001
1.172526e+003,1.953607e+001
1.174455e+003,1.957687e+001
1.176384e+003,1.958839e+001
1.178312e+003,1.952860e+001
1.180240e+003,1.946867e+001
1.182169e+003,1.958612e+001
1.184098e+003,1.975849e+001
1.186026e+003,1.982662e+001
1.187954e+003,1.986432e+001
1.189883e+003,1.988802e+001
1.191812e+003,1.991216e+001
1.193740e+003,1.993404e+001
1.195668e+003,1.996650e+001
1.197597e+003,1.999669e+001
1.199526e+003,2.004079e+001
1.201454e+003,2.008064e+001
1.203382e+003,2.012901e+001
1.205311e+003,2.017578e+001
1.207240e+003,2.022456e+001
1.209168e+003,2.026309e+001
1.211096e+003,2.030501e+001
1.213025e+003,2.033639e+001
1.214953e+003,2.037093e+001
1.216882e+003,2.039983e+001
1.218810e+003,2.043277e+001
1.220739e+003,2.045969e+001
1.222667e+003,2.049533e+001
1.224596e+003,2.052431e+001
1.226524e+003,2.055984e+001
1.228453e+003,2.059021e+001
1.230381e+003,2.062542e+001
1.232310e+003,2.065699e+001
1.234238e+003,2.069461e+001
1.236167e+003,2.072054e+001
1.238095e+003,2.075329e+001
1.240024e+003,2.078026e+001
1.241952e+003,2.080641e+001
1.243881e+003,2.082656e+001
1.245809e+003,2.085056e+001
1.247738e+003,2.086807e+001
1.249666e+003,2.089436e+001
1.251595e+003,2.090835e+001
1.253523e+003,2.091234e+001
1.255452e+003,2.090075e+001
1.257380e+003,2.088010e+001
1.259309e+003,2.083707e+001
1.261237e+003,2.081315e+001
1.263166e+003,2.081290e+001
1.265094e+003,2.085682e+001
1.267023e+003,2.094360e+001
1.268951e+003,2.106006e+001
1.270880e+003,2.115402e+001
1.272808e+003,2.123531e+001
1.274737e+003,2.129007e+001
1.276665e+003,2.133854e+001
1.278594e+003,2.137905e+001
1.280522e+003,2.141173e+001
1.282451e+003,2.143175e+001
1.284379e+003,2.146063e+001
1.286308e+003,2.147090e+001
1.288236e+003,2.147996e+001
1.290165e+003,2.149310e+001
1.292093e+003,2.150471e+001
1.294022e+003,2.150859e+001
1.295950e+003,2.151562e+001
1.297879e+003,2.151649e+001
1.299807e+003,2.152515e+001
1.301736e+003,2.151969e+001
1.303664e+003,2.151187e+001
1.305593e+003,2.151516e+001
1.307521e+003,2.156077e+001
1.309450e+003,2.158499e+001
1.311378e+003,2.159582e+001
1.313307e+003,2.160296e+001
1.315235e+003,2.162128e+001
1.317164e+003,2.162690e+001
1.319092e+003,2.163772e+001
1.321021e+003,2.165076e+001
1.322949e+003,2.167093e+001
1.324878e+003,2.167362e+001
1.326806e+003,2.167255e+001
1.328735e+003,2.167731e+001
1.330663e+003,2.166288e+001
1.332592e+003,2.165254e+001
1.334520e+003,2.170983e+001
1.336449e+003,2.171357e+001
1.338377e+003,2.169230e+001
1.340306e+003,2.168681e+001
1.342234e+003,2.171494e+001
1.344163e+003,2.171750e+001
1.346091e+003,2.171292e+001
1.348020e+003,2.169927e+001
1.349948e+003,2.169723e+001
1.351877e+003,2.168530e+001
1.353805e+003,2.168115e+001
1.355734e+003,2.167636e+001
1.357662e+003,2.168555e+001
1.359591e+003,2.165011e+001
1.361519e+003,2.159436e+001
1.363448e+003,2.159456e+001
1.365376e+003,2.166084e+001
1.367305e+003,2.165616e+001
1.369233e+003,2.165566e+001
1.371162e+003,2.164500e+001
1.373090e+003,2.158740e+001
1.375019e+003,2.156224e+001
1.376947e+003,2.160116e+001
1.378876e+003,2.157839e+001
1.380804e+003,2.153201e+001
1.382733e+003,2.140265e+001
1.384661e+003,2.134835e+001
1.386590e+003,2.134232e+001
1.388518e+003,2.146134e+001
1.390447e+003,2.157540e+001
1.392375e+003,2.154060e+001
1.394304e+003,2.142268e+001
1.396232e+003,2.146331e+001
1.398161e+003,2.145408e+001
1.400089e+003,2.147751e+001
1.402018e+003,2.154438e+001
1.403946e+003,2.150387e+001
1.405875e+003,2.150488e+001
1.407803e+003,2.155152e+001
1.409732e+003,2.154909e+001
1.411660e+003,2.155590e+001
1.413589e+003,2.156228e+001
1.415517e+003,2.154162e+001
1.417446e+003,2.137265e+001
1.419374e+003,2.123923e+001
1.421303e+003,2.146313e+001
1.423231e+003,2.154796e+001
1.425160e+003,2.156306e+001
1.427088e+003,2.159196e+001
1.429017e+003,2.153492e+001
1.430945e+003,2.154194e+001
1.432874e+003,2.156807e+001
1.434802e+003,2.141735e+001
1.436731e+003,2.121531e+001
1.438659e+003,2.143844e+001
1.440588e+003,2.153106e+001
1.442516e+003,2.151506e+001
1.444445e+003,2.146959e+001
1.446373e+003,2.140073e+001
1.448302e+003,2.132723e+001
1.450230e+003,2.137899e+001
1.452159e+003,2.133485e+001
1.454087e+003,2.120810e+001
1.456016e+003,2.074444e+001
1.457944e+003,2.078875e+001
1.459873e+003,2.117136e+001
1.461801e+003,2.127533e+001
1.463730e+003,2.113804e+001
1.465658e+003,2.112226e+001
1.467587e+003,2.125384e+001
1.469515e+003,2.121339e+001
1.471444e+003,2.094931e+001
1.473372e+003,2.088520e+001
1.475301e+003,2.106297e+001
1.477229e+003,2.115173e+001
1.479158e+003,2.123099e+001
1.481086e+003,2.120410e+001
1.483015e+003,2.121177e+001
1.484943e+003,2.116054e+001
1.486872e+003,2.105128e+001
1.488800e+003,2.094771e+001
1.490729e+003,2.095204e+001
1.492657e+003,2.108244e+001
1.494586e+003,2.094203e+001
1.496514e+003,2.074642e+001
1.498443e+003,2.085588e+001
1.500371e+003,2.096663e+001
1.502300e+003,2.100739e+001
1.504228e+003,2.066140e+001
1.506157e+003,2.019139e+001
1.508085e+003,2.043058e+001
1.510014e+003,2.077469e+001
1.511942e+003,2.079086e+001
1.513871e+003,2.080187e+001
1.515799e+003,2.067585e+001
1.517728e+003,2.061659e+001
1.519656e+003,2.043426e+001
1.521585e+003,2.023786e+001
1.523513e+003,2.047495e+001
1.525442e+003,2.049151e+001
1.527370e+003,2.053368e+001
1.529299e+003,2.057508e+001
1.531227e+003,2.051138e+001
1.533156e+003,2.030864e+001
1.535084e+003,2.039534e+001
1.537013e+003,2.024825e+001
1.538941e+003,1.969934e+001
1.540870e+003,1.968273e+001
1.542798e+003,1.997998e+001
1.544727e+003,2.011017e+001
1.546655e+003,2.022550e+001
1.548584e+003,2.020947e+001
1.550512e+003,2.015161e+001
1.552441e+003,2.005731e+001
1.554369e+003,1.988525e+001
1.556298e+003,1.970327e+001
1.558226e+003,1.915376e+001
1.560155e+003,1.925005e+001
1.562083e+003,1.981225e+001
1.564012e+003,1.989795e+001
1.565940e+003,1.986334e+001
1.567869e+003,1.973258e+001
1.569797e+003,1.958915e+001
1.571726e+003,1.970316e+001
1.573654e+003,1.960461e+001
1.575583e+003,1.919102e+001
1.577511e+003,1.931504e+001
1.579440e+003,1.955557e+001
1.581368e+003,1.950595e+001
1.583297e+003,1.946393e+001
1.585225e+003,1.939988e+001
1.587154e+003,1.935385e+001
1.589082e+003,1.928199e+001
1.591010e+003,1.922835e+001
1.592939e+003,1.915403e+001
1.594868e+003,1.909153e+001
1.596796e+003,1.902901e+001
1.598724e+003,1.897578e+001
1.600653e+003,1.889492e+001
1.602582e+003,1.882627e+001
1.604510e+003,1.875000e+001
1.606438e+003,1.867207e+001
1.608367e+003,1.857003e+001
1.610296e+003,1.849851e+001
1.612224e+003,1.842531e+001
1.614152e+003,1.824323e+001
1.616081e+003,1.782949e+001
1.618010e+003,1.784857e+001
1.619938e+003,1.799142e+001
1.621866e+003,1.785633e+001
1.623795e+003,1.777893e+001
1.625724e+003,1.781574e+001
1.627652e+003,1.775595e+001
1.629580e+003,1.772927e+001
1.631509e+003,1.769663e+001
1.633438e+003,1.744700e+001
1.635366e+003,1.712039e+001
1.637294e+003,1.725292e+001
1.639223e+003,1.738288e+001
1.641151e+003,1.733140e+001
1.643080e+003,1.723391e+001
1.645008e+003,1.693057e+001
1.646937e+003,1.679325e+001
1.648865e+003,1.692847e+001
1.650794e+003,1.663008e+001
1.652722e+003,1.602770e+001
1.654651e+003,1.636228e+001
1.656579e+003,1.673778e+001
1.658508e+003,1.672276e+001
1.660436e+003,1.660864e+001
1.662365e+003,1.644750e+001
1.664293e+003,1.644205e+001
1.666222e+003,1.641589e+001
1.668150e+003,1.618750e+001
1.670079e+003,1.607310e+001
1.672007e+003,1.611142e+001
1.673936e+003,1.596419e+001
1.675864e+003,1.584957e+001
1.677793e+003,1.594887e+001
1.679721e+003,1.585837e+001
1.681650e+003,1.569212e+001
1.683578e+003,1.522960e+001
1.685507e+003,1.523733e+001
1.687435e+003,1.550487e+001
1.689364e+003,1.547106e+001
1.691292e+003,1.541241e+001
1.693221e+003,1.525754e+001
1.695149e+003,1.483440e+001
1.697078e+003,1.482212e+001
1.699006e+003,1.467876e+001
1.700935e+003,1.454250e+001
1.702863e+003,1.480454e+001
1.704792e+003,1.470106e+001
1.706720e+003,1.466496e+001
1.708649e+003,1.461636e+001
1.710577e+003,1.456413e+001
1.712506e+003,1.442154e+001
1.714434e+003,1.423485e+001
1.716363e+003,1.393604e+001
1.718291e+003,1.387049e+001
1.720220e+003,1.402486e+001
1.722148e+003,1.400128e+001
1.724077e+003,1.389935e+001
1.726005e+003,1.382339e+001
1.727934e+003,1.370973e+001
1.729862e+003,1.359158e+001
1.731791e+003,1.336858e+001
1.733719e+003,1.306034e+001
1.735648e+003,1.315923e+001
1.737576e+003,1.323392e+001
1.739505e+003,1.307788e+001
1.741433e+003,1.305847e+001
1.743362e+003,1.300645e+001
1.745290e+003,1.294317e+001
1.747219e+003,1.283115e+001
1.749147e+003,1.270126e+001
1.751076e+003,1.255981e+001
1.753004e+003,1.258024e+001
1.754933e+003,1.252440e+001
1.756861e+003,1.240212e+001
1.758790e+003,1.233428e+001
1.760718e+003,1.219213e+001
1.762647e+003,1.208773e+001
1.764575e+003,1.205451e+001
1.766504e+003,1.190484e+001
1.768432e+003,1.175907e+001
1.770361e+003,1.160190e+001
1.772289e+003,1.139184e+001
1.774218e+003,1.135483e+001
1.776146e+003,1.127587e+001
1.778075e+003,1.113225e+001
1.780003e+003,1.100880e+001
1.781932e+003,1.091994e+001
1.783860e+003,1.082014e+001
1.785789e+003,1.072388e+001
1.787717e+003,1.065367e+001
1.789646e+003,1.051868e+001
1.791574e+003,1.034120e+001
1.793503e+003,1.025330e+001
1.795431e+003,1.021955e+001
1.797360e+003,1.010010e+001
1.799288e+003,9.965789e+000
1.801217e+003,9.827479e+000
1.803145e+003,9.720131e+000
1.805074e+003,9.580442e+000
1.807002e+003,9.425905e+000
1.808931e+003,9.232491e+000
1.810859e+003,9.033039e+000
1.812788e+003,8.805258e+000
1.814716e+003,8.516163e+000
1.816645e+003,8.099339e+000
1.818573e+003,7.756893e+000
1.820502e+003,7.568240e+000
1.822430e+003,7.451689e+000
1.824359e+003,7.319106e+000
1.826287e+003,7.212059e+000
1.828216e+003,7.082097e+000
1.830144e+003,6.947857e+000
1.832073e+003,6.848889e+000
1.834001e+003,6.728660e+000
1.835930e+003,6.586342e+000
1.837858e+003,6.454183e+000
1.839787e+003,6.323810e+000
1.841715e+003,6.181334e+000
1.843644e+003,6.008752e+000
1.845572e+003,5.913805e+000
1.847501e+003,5.825556e+000
1.849429e+003,5.718123e+000
1.851358e+003,5.609805e+000
1.853286e+003,5.504570e+000
1.855215e+003,5.400428e+000
1.857143e+003,5.301912e+000
1.859072e+003,5.202603e+000
1.861000e+003,5.110787e+000
1.862929e+003,5.018221e+000
1.864857e+003,4.926250e+000
1.866786e+003,4.821524e+000
1.868714e+003,4.719362e+000
1.870643e+003,4.644094e+000
1.872571e+003,4.572248e+000
1.874500e+003,4.481544e+000
1.876428e+003,4.395471e+000
1.878357e+003,4.306278e+000
1.880285e+003,4.220853e+000
1.882214e+003,4.131039e+000
1.884142e+003,4.045482e+000
1.886071e+003,3.957349e+000
1.887999e+003,3.870474e+000
1.889928e+003,3.782731e+000
1.891856e+003,3.709320e+000
1.893785e+003,3.624433e+000
1.895713e+003,3.545545e+000
1.897642e+003,3.466002e+000
1.899570e+003,3.390621e+000
1.901499e+003,3.311009e+000
1.903427e+003,3.235856e+000
1.905356e+003,3.157419e+000
1.907284e+003,3.084334e+000
1.909213e+003,3.006482e+000
1.911141e+003,2.936673e+000
1.913070e+003,2.863552e+000
1.914998e+003,2.792578e+000
1.916927e+003,2.712202e+000
1.918855e+003,2.649565e+000
1.920784e+003,2.588109e+000
1.922712e+003,2.502766e+000
1.924641e+003,2.404243e+000
1.926569e+003,2.308971e+000
1.928498e+003,2.213803e+000
1.930426e+003,2.125168e+000
1.932355e+003,2.035454e+000
1.934283e+003,1.952912e+000
1.936212e+003,1.870148e+000
1.938140e+003,1.792738e+000
1.940069e+003,1.713801e+000
1.941997e+003,1.638363e+000
1.943926e+003,1.566050e+000
1.945854e+003,1.500760e+000
1.947783e+003,1.432853e+000
1.949711e+003,1.369018e+000
1.951640e+003,1.305089e+000
1.953568e+003,1.245244e+000
1.955497e+003,1.175857e+000
1.957425e+003,1.086840e+000
1.959354e+003,9.950285e-001
1.961282e+003,9.394549e-001
1.963211e+003,8.948451e-001
1.965139e+003,8.550735e-001
1.967068e+003,8.140371e-001
1.968996e+003,7.794747e-001
1.970925e+003,7.418227e-001
1.972853e+003,7.083243e-001
1.974782e+003,6.737663e-001
1.976710e+003,6.503897e-001
1.978639e+003,6.716974e-001
1.980567e+003,7.506943e-001
1.982496e+003,8.105049e-001
1.984424e+003,8.491558e-001
1.986353e+003,8.710079e-001
1.988281e+003,8.901588e-001
1.990210e+003,8.993419e-001
1.992138e+003,9.073431e-001
1.994067e+003,9.077380e-001
1.995995e+003,9.062797e-001
1.997924e+003,8.928483e-001
1.999852e+003,8.708586e-001
2.001781e+003,8.338174e-001
2.003709e+003,7.863095e-001
2.005638e+003,7.236534e-001
2.007566e+003,6.856312e-001
2.009495e+003,6.783453e-001
2.011423e+003,6.772625e-001
2.013352e+003,6.676655e-001
2.015280e+003,6.595058e-001
2.017208e+003,6.474726e-001
2.019137e+003,6.394477e-001
2.021066e+003,6.295479e-001
2.022994e+003,6.231408e-001
2.024922e+003,6.150394e-001
2.026851e+003,6.110819e-001
2.028780e+003,6.050576e-001
2.030708e+003,6.069379e-001
2.032636e+003,6.087391e-001
2.034565e+003,6.267976e-001
2.036494e+003,6.635662e-001
2.038422e+003,7.090921e-001
2.040350e+003,7.474754e-001
2.042279e+003,7.850363e-001
2.044208e+003,8.180624e-001
2.046136e+003,8.558354e-001
2.048064e+003,9.004300e-001
2.049993e+003,9.992244e-001
2.051921e+003,1.127484e+000
2.053850e+003,1.188949e+000
2.055778e+003,1.232533e+000
2.057707e+003,1.280967e+000
2.059635e+003,1.314004e+000
2.061564e+003,1.346478e+000
2.063492e+003,1.376454e+000
2.065421e+003,1.410419e+000
2.067349e+003,1.442948e+000
2.069278e+003,1.480562e+000
2.071206e+003,1.519296e+000
2.073135e+003,1.564795e+000
2.075063e+003,1.609898e+000
2.076992e+003,1.658624e+000
2.078920e+003,1.709461e+000
2.080849e+003,1.764116e+000
2.082777e+003,1.809914e+000
2.084706e+003,1.850009e+000
2.086634e+003,1.877899e+000
2.088563e+003,1.897552e+000
2.090491e+003,1.899300e+000
2.092420e+003,1.880249e+000
2.094348e+003,1.833425e+000
2.096277e+003,1.810520e+000
2.098205e+003,1.820728e+000
2.100134e+003,1.843419e+000
2.102062e+003,1.861483e+000
2.103991e+003,1.879454e+000
2.105919e+003,1.893918e+000
2.107848e+003,1.911553e+000
2.109776e+003,1.928196e+000
2.111705e+003,1.947609e+000
2.113633e+003,1.967084e+000
2.115562e+003,1.982163e+000
2.117490e+003,1.973184e+000
2.119419e+003,1.944929e+000
2.121347e+003,1.902129e+000
2.123276e+003,1.848297e+000
2.125204e+003,1.778651e+000
2.127133e+003,1.695428e+000
2.129061e+003,1.593932e+000
2.130990e+003,1.477089e+000
2.132918e+003,1.340010e+000
2.134847e+003,1.217292e+000
2.136775e+003,1.131173e+000
2.138704e+003,1.066118e+000
2.140632e+003,1.002944e+000
2.142561e+003,9.415653e-001
2.144489e+003,8.777781e-001
2.146418e+003,8.177182e-001
2.148346e+003,7.637553e-001
2.150275e+003,7.161182e-001
2.152203e+003,6.604050e-001
2.154132e+003,5.959865e-001
2.156060e+003,5.170264e-001
2.157989e+003,4.405603e-001
2.159917e+003,4.239126e-001
2.161846e+003,4.752512e-001
2.163774e+003,5.264410e-001
2.165703e+003,5.734887e-001
2.167631e+003,6.188701e-001
2.169560e+003,6.583635e-001
2.171488e+003,6.795121e-001
2.173417e+003,6.872905e-001
2.175345e+003,6.849527e-001
2.177274e+003,6.972488e-001
2.179202e+003,7.078391e-001
2.181131e+003,7.099141e-001
2.183059e+003,7.216336e-001
2.184988e+003,7.516864e-001
2.186916e+003,7.830451e-001
2.188845e+003,8.152238e-001
2.190773e+003,8.429293e-001
2.192702e+003,8.706251e-001
2.194630e+003,8.944387e-001
2.196559e+003,9.191754e-001
2.198487e+003,9.415960e-001
2.200416e+003,9.653417e-001
2.202344e+003,9.847513e-001
2.204273e+003,1.006615e+000
2.206201e+003,1.027397e+000
2.208130e+003,1.048420e+000
2.210058e+003,1.067946e+000
2.211987e+003,1.090079e+000
2.213915e+003,1.111739e+000
2.215844e+003,1.135157e+000
2.217772e+003,1.158227e+000
2.219701e+003,1.184689e+000
2.221629e+003,1.210282e+000
2.223558e+003,1.239439e+000
2.225486e+003,1.266665e+000
2.227415e+003,1.297952e+000
2.229343e+003,1.329614e+000
2.231272e+003,1.363817e+000
2.233200e+003,1.397662e+000
2.235129e+003,1.435657e+000
2.237057e+003,1.472100e+000
2.238986e+003,1.511373e+000
2.240914e+003,1.549538e+000
2.242843e+003,1.590063e+000
2.244771e+003,1.627749e+000
2.246700e+003,1.667284e+000
2.248628e+003,1.703237e+000
2.250557e+003,1.738550e+000
2.252485e+003,1.765750e+000
2.254414e+003,1.795638e+000
2.256342e+003,1.840305e+000
2.258271e+003,1.898476e+000
2.260199e+003,1.951112e+000
2.262128e+003,1.999466e+000
2.264056e+003,2.042608e+000
2.265985e+003,2.092931e+000
2.267913e+003,2.154986e+000
2.269842e+003,2.229367e+000
2.271770e+003,2.308362e+000
2.273699e+003,2.397426e+000
2.275627e+003,2.492377e+000
2.277556e+003,2.602773e+000
2.279484e+003,2.726751e+000
2.281413e+003,2.871255e+000
2.283341e+003,3.022619e+000
2.285270e+003,3.169093e+000
2.287198e+003,3.305083e+000
2.289127e+003,3.433710e+000
2.291055e+003,3.548987e+000
2.292984e+003,3.645510e+000
2.294912e+003,3.719619e+000
2.296841e+003,3.778453e+000
2.298769e+003,3.816485e+000
2.300698e+003,3.838418e+000
2.302626e+003,3.847976e+000
2.304555e+003,3.821593e+000
2.306483e+003,3.742619e+000
2.308412e+003,3.646834e+000
2.310340e+003,3.544295e+000
2.312269e+003,3.462911e+000
2.314197e+003,3.427403e+000
2.316125e+003,3.365682e+000
2.318054e+003,3.198409e+000
2.319983e+003,3.015222e+000
2.321911e+003,2.926306e+000
2.323840e+003,3.000800e+000
2.325768e+003,3.095201e+000
2.327697e+003,2.961143e+000
2.329625e+003,2.747165e+000
2.331553e+003,2.637075e+000
2.333482e+003,2.623017e+000
2.335411e+003,2.551182e+000
2.337339e+003,2.460395e+000
2.339268e+003,2.395344e+000
2.341196e+003,2.350029e+000
2.343125e+003,2.402854e+000
2.345053e+003,2.665605e+000
2.346981e+003,3.476424e+000
2.348910e+003,3.968762e+000
2.350839e+003,3.220520e+000
2.352767e+003,2.396799e+000
2.354696e+003,1.895426e+000
2.356624e+003,1.601227e+000
2.358552e+003,1.440982e+000
2.360481e+003,1.395554e+000
2.362409e+003,1.416784e+000
2.364338e+003,1.501444e+000
2.366267e+003,1.654735e+000
2.368195e+003,1.879211e+000
2.370124e+003,2.178205e+000
2.372052e+003,2.555015e+000
2.373980e+003,3.000582e+000
2.375909e+003,3.505341e+000
2.377838e+003,4.051035e+000
2.379766e+003,4.603833e+000
2.381695e+003,5.093464e+000
2.383623e+003,5.441761e+000
2.385552e+003,5.618666e+000
2.387480e+003,5.657198e+000
2.389408e+003,5.616945e+000
2.391337e+003,5.541739e+000
2.393266e+003,5.454420e+000
2.395194e+003,5.366188e+000
2.397123e+003,5.279222e+000
2.399051e+003,5.193570e+000
2.400979e+003,5.110945e+000
2.402908e+003,5.028052e+000
2.404836e+003,4.943078e+000
2.406765e+003,4.864982e+000
2.408694e+003,4.813609e+000
2.410622e+003,4.775215e+000
2.412551e+003,4.733728e+000
2.414479e+003,4.688898e+000
2.416407e+003,4.644288e+000
2.418336e+003,4.599790e+000
2.420264e+003,4.557631e+000
2.422193e+003,4.517507e+000
2.424122e+003,4.480325e+000
2.426050e+003,4.444703e+000
2.427979e+003,4.413374e+000
2.429907e+003,4.384224e+000
2.431835e+003,4.358384e+000
2.433764e+003,4.335163e+000
2.435692e+003,4.315799e+000
2.437621e+003,4.298827e+000
2.439550e+003,4.286605e+000
2.441478e+003,4.277074e+000
2.443406e+003,4.270857e+000
2.445335e+003,4.268066e+000
2.447263e+003,4.269672e+000
2.449192e+003,4.275135e+000
2.451121e+003,4.284661e+000
2.453049e+003,4.297339e+000
2.454978e+003,4.313140e+000
2.456906e+003,4.326069e+000
2.458834e+003,4.334096e+000
2.460763e+003,4.333993e+000
2.462691e+003,4.328534e+000
2.464620e+003,4.319340e+000
2.466549e+003,4.307875e+000
2.468477e+003,4.294182e+000
2.470406e+003,4.281501e+000
2.472334e+003,4.266703e+000
2.474262e+003,4.251763e+000
2.476191e+003,4.237045e+000
2.478119e+003,4.223899e+000
2.480048e+003,4.209368e+000
2.481977e+003,4.196965e+000
2.483905e+003,4.185629e+000
2.485833e+003,4.176193e+000
2.487762e+003,4.166673e+000
2.489690e+003,4.159441e+000
2.491619e+003,4.153202e+000
2.493547e+003,4.148895e+000
2.495476e+003,4.144753e+000
2.497405e+003,4.140748e+000
2.499333e+003,4.135866e+000
2.501261e+003,4.130471e+000
2.503190e+003,4.123952e+000
2.505118e+003,4.119096e+000
2.507047e+003,4.113986e+000
2.508975e+003,4.109014e+000
2.510904e+003,4.104212e+000
2.512833e+003,4.100957e+000
2.514761e+003,4.097424e+000
2.516689e+003,4.094344e+000
2.518618e+003,4.092289e+000
2.520546e+003,4.092321e+000
2.522475e+003,4.091331e+000
2.524403e+003,4.091580e+000
2.526332e+003,4.092896e+000
2.528260e+003,4.095609e+000
2.530189e+003,4.098346e+000
2.532117e+003,4.102281e+000
2.534046e+003,4.106709e+000
2.535974e+003,4.112862e+000
2.537903e+003,4.119054e+000
2.539831e+003,4.127490e+000
2.541760e+003,4.137218e+000
2.543688e+003,4.147861e+000
2.545617e+003,4.159355e+000
2.547545e+003,4.173429e+000
2.549474e+003,4.188842e+000
2.551402e+003,4.206273e+000
2.553331e+003,4.223448e+000
2.555259e+003,4.243201e+000
2.557188e+003,4.264687e+000
2.559116e+003,4.288358e+000
2.561045e+003,4.312812e+000
2.562973e+003,4.339891e+000
2.564902e+003,4.369319e+000
2.566830e+003,4.400250e+000
2.568759e+003,4.431993e+000
2.570687e+003,4.467968e+000
2.572616e+003,4.505152e+000
2.574544e+003,4.544015e+000
2.576473e+003,4.585881e+000
2.578401e+003,4.631614e+000
2.580330e+003,4.678410e+000
2.582258e+003,4.728631e+000
2.584187e+003,4.780830e+000
2.586115e+003,4.836508e+000
2.588044e+003,4.894683e+000
2.589972e+003,4.957085e+000
2.591901e+003,5.022305e+000
2.593829e+003,5.091208e+000
2.595758e+003,5.162858e+000
2.597686e+003,5.238293e+000
2.599615e+003,5.317652e+000
2.601543e+003,5.402063e+000
2.603472e+003,5.489810e+000
2.605400e+003,5.582992e+000
2.607329e+003,5.679205e+000
2.609257e+003,5.781620e+000
2.611186e+003,5.889059e+000
2.613114e+003,6.001430e+000
2.615043e+003,6.118520e+000
2.616971e+003,6.241597e+000
2.618900e+003,6.369625e+000
2.620828e+003,6.503820e+000
2.622757e+003,6.644053e+000
2.624685e+003,6.790679e+000
2.626614e+003,6.943050e+000
2.628542e+003,7.102319e+000
2.630471e+003,7.267499e+000
2.632399e+003,7.440139e+000
2.634328e+003,7.618882e+000
2.636256e+003,7.804504e+000
2.638185e+003,7.995905e+000
2.640113e+003,8.192784e+000
2.642042e+003,8.394526e+000
2.643970e+003,8.601648e+000
2.645899e+003,8.811967e+000
2.647827e+003,9.026037e+000
2.649756e+003,9.240520e+000
2.651684e+003,9.454042e+000
2.653613e+003,9.662848e+000
2.655541e+003,9.864530e+000
2.657470e+003,1.005381e+001
2.659398e+003,1.022462e+001
2.661327e+003,1.036683e+001
2.663255e+003,1.046626e+001
2.665184e+003,1.051589e+001
2.667112e+003,1.053089e+001
2.669041e+003,1.052953e+001
2.670969e+003,1.052143e+001
2.672898e+003,1.050915e+001
2.674826e+003,1.049619e+001
2.676755e+003,1.048137e+001
2.678683e+003,1.046547e+001
2.680612e+003,1.044804e+001
2.682540e+003,1.043011e+001
2.684469e+003,1.041202e+001
2.686397e+003,1.039316e+001
2.688326e+003,1.037415e+001
2.690254e+003,1.035621e+001
2.692183e+003,1.033721e+001
2.694111e+003,1.031879e+001
2.696040e+003,1.030029e+001
2.697968e+003,1.028169e+001
2.699897e+003,1.026264e+001
2.701825e+003,1.024441e+001
2.703754e+003,1.022553e+001
2.705682e+003,1.020776e+001
2.707611e+003,1.018913e+001
2.709539e+003,1.017103e+001
2.711468e+003,1.015173e+001
2.713396e+003,1.013324e+001
2.715325e+003,1.011586e+001
2.717253e+003,1.009893e+001
2.719182e+003,1.008018e+001
2.721110e+003,1.006211e+001
2.723039e+003,1.004395e+001
2.724967e+003,1.002645e+001
2.726896e+003,1.000725e+001
2.728824e+003,9.988583e+000
2.730753e+003,9.971360e+000
2.732681e+003,9.953906e+000
2.734610e+003,9.936266e+000
2.736538e+003,9.918756e+000
2.738467e+003,9.900311e+000
2.740395e+003,9.881716e+000
2.742324e+003,9.863123e+000
2.744252e+003,9.845067e+000
2.746181e+003,9.827276e+000
2.748109e+003,9.809283e+000
2.750038e+003,9.789654e+000
2.751966e+003,9.770799e+000
2.753895e+003,9.752501e+000
2.755823e+003,9.734480e+000
2.757752e+003,9.715004e+000
2.759680e+003,9.695366e+000
2.761609e+003,9.676089e+000
2.763537e+003,9.657494e+000
2.765466e+003,9.638784e+000
2.767394e+003,9.620222e+000
2.769323e+003,9.601877e+000
2.771251e+003,9.582955e+000
2.773180e+003,9.563814e+000
2.775108e+003,9.545265e+000
2.777037e+003,9.524467e+000
2.778965e+003,9.504389e+000
2.780894e+003,9.484715e+000
2.782822e+003,9.465755e+000
2.784750e+003,9.446145e+000
2.786679e+003,9.427711e+000
2.788608e+003,9.409530e+000
2.790536e+003,9.389869e+000
2.792465e+003,9.369818e+000
2.794393e+003,9.350350e+000
2.796322e+003,9.330892e+000
2.798250e+003,9.312700e+000
2.800178e+003,9.292452e+000
2.802107e+003,9.272864e+000
2.804036e+003,9.253382e+000
2.805964e+003,9.233479e+000
2.807893e+003,9.213301e+000
2.809821e+003,9.194165e+000
2.811750e+003,9.174129e+000
2.813678e+003,9.153861e+000
2.815606e+003,9.133070e+000
2.817535e+003,9.112637e+000
2.819464e+003,9.091225e+000
2.821392e+003,9.070577e+000
2.823321e+003,9.049242e+000
2.825249e+003,9.028584e+000
2.827177e+003,9.008057e+000
2.829106e+003,8.986731e+000
2.831034e+003,8.963515e+000
2.832963e+003,8.941083e+000
2.834892e+003,8.918558e+000
2.836820e+003,8.896543e+000
2.838749e+003,8.872940e+000
2.840677e+003,8.842019e+000
2.842605e+003,8.809976e+000
2.844534e+003,8.777657e+000
2.846462e+003,8.743417e+000
2.848391e+003,8.709159e+000
2.850320e+003,8.679904e+000
2.852248e+003,8.657574e+000
2.854177e+003,8.638106e+000
2.856105e+003,8.619863e+000
2.858033e+003,8.603383e+000
2.859962e+003,8.587380e+000
2.861890e+003,8.569239e+000
2.863819e+003,8.549851e+000
2.865748e+003,8.529191e+000
2.867676e+003,8.508642e+000
2.869604e+003,8.487327e+000
2.871533e+003,8.468531e+000
2.873461e+003,8.448255e+000
2.875390e+003,8.424119e+000
2.877319e+003,8.401877e+000
2.879247e+003,8.381643e+000
2.881176e+003,8.360907e+000
2.883104e+003,8.339239e+000
2.885032e+003,8.317308e+000
2.886961e+003,8.295458e+000
2.888889e+003,8.272386e+000
2.890818e+003,8.248960e+000
2.892747e+003,8.224982e+000
2.894675e+003,8.201395e+000
2.896604e+003,8.176948e+000
2.898532e+003,8.151882e+000
2.900460e+003,8.127226e+000
2.902389e+003,8.101435e+000
2.904317e+003,8.073839e+000
2.906246e+003,8.045541e+000
2.908175e+003,8.019653e+000
2.910103e+003,7.991367e+000
2.912031e+003,7.963466e+000
2.913960e+003,7.931111e+000
2.915888e+003,7.893004e+000
2.917817e+003,7.863164e+000
2.919745e+003,7.837793e+000
2.921674e+003,7.813816e+000
2.923603e+003,7.791239e+000
2.925531e+003,7.768283e+000
2.927459e+003,7.751127e+000
2.929388e+003,7.741348e+000
2.931316e+003,7.726755e+000
2.933245e+003,7.713776e+000
2.935173e+003,7.699902e+000
2.937102e+003,7.682340e+000
2.939031e+003,7.672164e+000
2.940959e+003,7.664058e+000
2.942887e+003,7.652333e+000
2.944816e+003,7.637303e+000
2.946744e+003,7.614611e+000
2.948673e+003,7.591642e+000
2.950601e+003,7.573682e+000
2.952530e+003,7.551155e+000
2.954458e+003,7.525066e+000
2.956387e+003,7.496731e+000
2.958315e+003,7.468712e+000
2.960244e+003,7.451523e+000
2.962172e+003,7.432510e+000
2.964101e+003,7.413077e+000
2.966029e+003,7.396074e+000
2.967958e+003,7.383208e+000
2.969886e+003,7.378910e+000
2.971815e+003,7.375392e+000
2.973743e+003,7.367085e+000
2.975672e+003,7.355835e+000
2.977600e+003,7.339781e+000
2.979529e+003,7.328112e+000
2.981457e+003,7.318773e+000
2.983386e+003,7.303615e+000
2.985314e+003,7.286912e+000
2.987243e+003,7.268153e+000
2.989171e+003,7.250597e+000
2.991100e+003,7.240091e+000
2.993028e+003,7.222774e+000
2.994957e+003,7.201707e+000
2.996885e+003,7.184203e+000
2.998814e+003,7.164242e+000
3.000742e+003,7.144358e+000
3.002671e+003,7.125645e+000
3.004599e+003,7.105696e+000
3.006528e+003,7.085478e+000
3.008456e+003,7.066986e+000
3.010385e+003,7.051375e+000
3.012313e+003,7.028712e+000
3.014242e+003,6.996644e+000
3.016170e+003,6.956851e+000
3.018099e+003,6.944396e+000
3.020027e+003,6.948534e+000
3.021956e+003,6.935477e+000
3.023884e+003,6.917968e+000
3.025813e+003,6.898281e+000
3.027741e+003,6.878630e+000
3.029670e+003,6.861059e+000
3.031598e+003,6.844244e+000
3.033527e+003,6.827740e+000
3.035455e+003,6.808989e+000
3.037384e+003,6.790182e+000
3.039312e+003,6.775315e+000
3.041241e+003,6.762041e+000
3.043169e+003,6.744455e+000
3.045098e+003,6.723897e+000
3.047026e+003,6.702438e+000
3.048955e+003,6.686314e+000
3.050883e+003,6.673121e+000
3.052812e+003,6.655001e+000
3.054740e+003,6.636259e+000
3.056669e+003,6.612068e+000
3.058597e+003,6.596591e+000
3.060526e+003,6.585515e+000
3.062454e+003,6.569880e+000
3.064383e+003,6.551632e+000
3.066311e+003,6.529730e+000
3.068240e+003,6.515137e+000
3.070168e+003,6.503271e+000
3.072097e+003,6.487363e+000
3.074025e+003,6.469972e+000
3.075954e+003,6.451241e+000
3.077882e+003,6.440940e+000
3.079811e+003,6.425930e+000
3.081739e+003,6.407399e+000
3.083668e+003,6.387468e+000
3.085596e+003,6.362112e+000
3.087525e+003,6.350132e+000
3.089453e+003,6.338972e+000
3.091382e+003,6.320664e+000
3.093310e+003,6.297577e+000
3.095239e+003,6.276752e+000
3.097167e+003,6.267220e+000
3.099096e+003,6.253680e+000
3.101024e+003,6.235883e+000
3.102953e+003,6.214608e+000
3.104881e+003,6.197541e+000
3.106810e+003,6.187607e+000
3.108738e+003,6.174448e+000
3.110667e+003,6.155444e+000
3.112595e+003,6.135392e+000
3.114524e+003,6.124414e+000
3.116452e+003,6.115011e+000
3.118381e+003,6.098070e+000
3.120309e+003,6.079208e+000
3.122238e+003,6.049774e+000
3.124166e+003,6.033429e+000
3.126095e+003,6.025038e+000
3.128023e+003,6.013618e+000
3.129952e+003,5.998064e+000
3.131880e+003,5.982158e+000
3.133809e+003,5.968854e+000
3.135737e+003,5.955711e+000
3.137666e+003,5.941996e+000
3.139594e+003,5.925835e+000
3.141523e+003,5.909388e+000
3.143451e+003,5.895001e+000
3.145380e+003,5.879680e+000
3.147308e+003,5.864973e+000
3.149237e+003,5.851194e+000
3.151165e+003,5.843022e+000
3.153094e+003,5.828360e+000
3.155022e+003,5.809683e+000
3.156951e+003,5.794677e+000
3.158879e+003,5.781539e+000
3.160808e+003,5.768930e+000
3.162736e+003,5.755972e+000
3.164665e+003,5.742665e+000
3.166593e+003,5.729556e+000
3.168522e+003,5.716708e+000
3.170450e+003,5.703918e+000
3.172379e+003,5.690838e+000
3.174307e+003,5.677388e+000
3.176236e+003,5.664256e+000
3.178164e+003,5.651537e+000
3.180093e+003,5.639963e+000
3.182021e+003,5.628492e+000
3.183950e+003,5.616398e+000
3.185878e+003,5.604926e+000
3.187807e+003,5.593281e+000
3.189735e+003,5.581923e+000
3.191664e+003,5.571187e+000
3.193592e+003,5.560201e+000
3.195521e+003,5.549077e+000
3.197449e+003,5.538434e+000
3.199378e+003,5.528703e+000
3.201306e+003,5.519557e+000
3.203235e+003,5.509891e+000
3.205163e+003,5.500988e+000
3.207092e+003,5.491537e+000
3.209020e+003,5.482832e+000
3.210948e+003,5.476055e+000
3.212877e+003,5.468987e+000
3.214806e+003,5.461713e+000
3.216734e+003,5.456491e+000
3.218663e+003,5.450157e+000
3.220591e+003,5.444350e+000
3.222520e+003,5.438410e+000
3.224448e+003,5.432305e+000
3.226376e+003,5.426192e+000
3.228305e+003,5.420577e+000
3.230234e+003,5.416374e+000
3.232162e+003,5.416055e+000
3.234091e+003,5.411234e+000
3.236019e+003,5.402877e+000
3.237948e+003,5.398346e+000
3.239876e+003,5.394710e+000
3.241804e+003,5.390501e+000
3.243733e+003,5.387015e+000
3.245662e+003,5.385554e+000
3.247590e+003,5.383095e+000
3.249519e+003,5.379108e+000
3.251447e+003,5.376895e+000
3.253375e+003,5.374838e+000
3.255304e+003,5.374434e+000
3.257232e+003,5.372438e+000
3.259161e+003,5.371513e+000
3.261090e+003,5.371585e+000
3.263018e+003,5.372861e+000
3.264947e+003,5.373489e+000
3.266875e+003,5.374670e+000
3.268803e+003,5.377797e+000
3.270732e+003,5.381568e+000
3.272660e+003,5.379771e+000
3.274589e+003,5.378892e+000
3.276518e+003,5.379090e+000
3.278446e+003,5.380552e+000
3.280375e+003,5.381230e+000
3.282303e+003,5.382130e+000
3.284231e+003,5.382874e+000
3.286160e+003,5.383347e+000
3.288088e+003,5.383030e+000
3.290017e+003,5.384834e+000
3.291946e+003,5.386528e+000
3.293874e+003,5.385969e+000
3.295802e+003,5.385445e+000
3.297731e+003,5.384310e+000
3.299659e+003,5.383363e+000
3.301588e+003,5.382954e+000
3.303516e+003,5.386867e+000
3.305445e+003,5.390521e+000
3.307374e+003,5.385639e+000
3.309302e+003,5.380221e+000
3.311230e+003,5.377522e+000
3.313159e+003,5.376668e+000
3.315087e+003,5.375988e+000
3.317016e+003,5.374949e+000
3.318944e+003,5.372858e+000
3.320873e+003,5.370501e+000
3.322802e+003,5.368299e+000
3.324730e+003,5.368003e+000
3.326658e+003,5.366182e+000
3.328587e+003,5.364301e+000
3.330515e+003,5.362952e+000
3.332444e+003,5.361615e+000
3.334372e+003,5.359073e+000
3.336301e+003,5.357265e+000
3.338229e+003,5.356301e+000
3.340158e+003,5.352160e+000
3.342086e+003,5.348970e+000
3.344015e+003,5.346663e+000
3.345943e+003,5.342652e+000
3.347872e+003,5.340365e+000
3.349800e+003,5.338894e+000
3.351729e+003,5.334436e+000
3.353657e+003,5.329262e+000
3.355586e+003,5.325834e+000
3.357514e+003,5.322435e+000
3.359443e+003,5.319248e+000
3.361371e+003,5.315027e+000
3.363300e+003,5.311127e+000
3.365229e+003,5.307395e+000
3.367157e+003,5.305199e+000
3.369085e+003,5.302898e+000
3.371014e+003,5.295009e+000
3.372942e+003,5.286752e+000
3.374871e+003,5.281583e+000
3.376799e+003,5.274949e+000
3.378728e+003,5.268463e+000
3.380656e+003,5.261580e+000
3.382585e+003,5.254084e+000
3.384513e+003,5.246343e+000
3.386442e+003,5.239908e+000
3.388370e+003,5.232976e+000
3.390299e+003,5.228255e+000
3.392227e+003,5.218631e+000
3.394156e+003,5.207310e+000
3.396084e+003,5.197476e+000
3.398013e+003,5.190017e+000
3.399941e+003,5.183954e+000
3.401870e+003,5.172411e+000
3.403798e+003,5.159008e+000
3.405727e+003,5.148372e+000
3.407655e+003,5.138635e+000
3.409584e+003,5.127593e+000
3.411512e+003,5.115805e+000
3.413441e+003,5.103949e+000
3.415369e+003,5.090757e+000
3.417298e+003,5.078343e+000
3.419226e+003,5.063748e+000
3.421155e+003,5.050495e+000
3.423083e+003,5.037831e+000
3.425012e+003,5.024502e+000
3.426940e+003,5.009509e+000
3.428869e+003,4.995922e+000
3.430797e+003,4.980085e+000
3.432726e+003,4.965995e+000
3.434654e+003,4.953726e+000
3.436583e+003,4.939332e+000
3.438511e+003,4.925259e+000
3.440440e+003,4.912784e+000
3.442368e+003,4.901439e+000
3.444297e+003,4.892046e+000
3.446225e+003,4.880342e+000
3.448154e+003,4.873831e+000
3.450082e+003,4.868343e+000
3.452011e+003,4.859918e+000
3.453939e+003,4.851512e+000
3.455868e+003,4.842978e+000
3.457796e+003,4.833033e+000
3.459725e+003,4.823647e+000
3.461653e+003,4.813243e+000
3.463582e+003,4.804716e+000
3.465510e+003,4.796911e+000
3.467439e+003,4.790279e+000
3.469367e+003,4.781133e+000
3.471296e+003,4.770626e+000
3.473224e+003,4.761151e+000
3.475153e+003,4.753840e+000
3.477081e+003,4.747527e+000
3.479010e+003,4.740577e+000
3.480938e+003,4.730200e+000
3.482867e+003,4.724071e+000
3.484795e+003,4.719518e+000
3.486724e+003,4.713316e+000
3.488652e+003,4.708268e+000
3.490581e+003,4.704813e+000
3.492509e+003,4.700075e+000
3.494438e+003,4.694508e+000
3.496366e+003,4.689360e+000
3.498295e+003,4.685765e+000
3.500223e+003,4.680097e+000
3.502152e+003,4.673539e+000
3.504080e+003,4.668612e+000
3.506009e+003,4.666824e+000
3.507937e+003,4.659173e+000
3.509866e+003,4.653409e+000
3.511794e+003,4.651319e+000
3.513723e+003,4.647507e+000
3.515651e+003,4.641406e+000
3.517580e+003,4.635067e+000
3.519508e+003,4.628156e+000
3.521437e+003,4.620121e+000
3.523365e+003,4.611513e+000
3.525294e+003,4.604959e+000
3.527222e+003,4.595805e+000
3.529151e+003,4.589446e+000
3.531079e+003,4.583553e+000
3.533008e+003,4.576637e+000
3.534936e+003,4.565319e+000
3.536865e+003,4.555246e+000
3.538793e+003,4.545256e+000
3.540722e+003,4.534823e+000
3.542650e+003,4.519582e+000
3.544579e+003,4.502414e+000
3.546507e+003,4.487787e+000
3.548436e+003,4.481733e+000
3.550364e+003,4.468247e+000
3.552293e+003,4.451730e+000
3.554221e+003,4.441764e+000
3.556150e+003,4.429251e+000
3.558078e+003,4.411444e+000
3.560007e+003,4.393538e+000
3.561935e+003,4.375607e+000
3.563864e+003,4.352149e+000
3.565792e+003,4.315859e+000
3.567721e+003,4.295164e+000
3.569649e+003,4.297341e+000
3.571578e+003,4.288278e+000
3.573506e+003,4.269144e+000
3.575435e+003,4.249198e+000
3.577363e+003,4.227355e+000
3.579292e+003,4.204174e+000
3.581220e+003,4.179161e+000
3.583149e+003,4.149883e+000
3.585077e+003,4.106233e+000
3.587006e+003,4.057848e+000
3.588934e+003,4.037323e+000
3.590863e+003,4.030224e+000
3.592791e+003,4.002121e+000
3.594720e+003,3.975910e+000
3.596648e+003,3.960748e+000
3.598577e+003,3.949541e+000
3.600505e+003,3.938004e+000
3.602434e+003,3.939549e+000
3.604362e+003,3.941621e+000
3.606291e+003,3.938352e+000
3.608219e+003,3.933913e+000
3.610148e+003,3.963388e+000
3.612076e+003,3.980370e+000
3.614005e+003,3.964399e+000
3.615933e+003,3.922500e+000
3.617862e+003,3.860329e+000
3.619790e+003,3.819277e+000
3.621719e+003,3.812593e+000
3.623647e+003,3.798727e+000
3.625576e+003,3.776387e+000
3.627504e+003,3.720837e+000
3.629433e+003,3.715060e+000
3.631361e+003,3.782341e+000
3.633290e+003,3.810631e+000
3.635218e+003,3.833014e+000
3.637146e+003,3.851915e+000
3.639075e+003,3.866407e+000
3.641004e+003,3.875680e+000
3.642932e+003,3.881199e+000
3.644861e+003,3.873192e+000
3.646789e+003,3.835598e+000
3.648718e+003,3.801979e+000
3.650646e+003,3.823083e+000
3.652574e+003,3.869541e+000
3.654503e+003,3.859141e+000
3.656432e+003,3.844574e+000
3.658360e+003,3.869529e+000
3.660289e+003,3.875795e+000
3.662217e+003,3.871645e+000
3.664146e+003,3.868973e+000
3.666074e+003,3.858864e+000
3.668002e+003,3.820267e+000
3.669931e+003,3.774678e+000
3.671860e+003,3.797379e+000
3.673788e+003,3.768717e+000
3.675717e+003,3.726355e+000
3.677645e+003,3.785760e+000
3.679573e+003,3.810374e+000
3.681502e+003,3.817544e+000
3.683430e+003,3.807987e+000
3.685359e+003,3.786815e+000
3.687288e+003,3.717210e+000
3.689216e+003,3.698212e+000
3.691145e+003,3.721854e+000
3.693073e+003,3.731769e+000
3.695001e+003,3.728229e+000
3.696930e+003,3.717085e+000
3.698858e+003,3.707727e+000
3.700787e+003,3.689749e+000
3.702716e+003,3.699205e+000
3.704644e+003,3.723673e+000
3.706573e+003,3.742221e+000
3.708501e+003,3.754350e+000
3.710429e+003,3.773500e+000
3.712358e+003,3.827969e+000
3.714286e+003,3.911018e+000
3.716215e+003,3.907793e+000
3.718144e+003,3.861360e+000
3.720072e+003,3.815773e+000
3.722000e+003,3.781111e+000
3.723929e+003,3.759423e+000
3.725857e+003,3.747770e+000
3.727786e+003,3.759666e+000
3.729714e+003,3.775611e+000
3.731643e+003,3.771974e+000
3.733572e+003,3.809927e+000
3.735500e+003,3.840020e+000
3.737428e+003,3.923160e+000
3.739357e+003,4.008555e+000
3.741285e+003,4.053873e+000
3.743214e+003,4.003171e+000
3.745142e+003,4.043227e+000
3.747071e+003,4.146608e+000
3.749000e+003,4.126903e+000
3.750928e+003,4.140708e+000
3.752856e+003,4.201801e+000
3.754785e+003,4.290354e+000
3.756713e+003,4.306376e+000
3.758642e+003,4.322206e+000
3.760570e+003,4.342356e+000
3.762499e+003,4.379921e+000
3.764427e+003,4.380014e+000
3.766356e+003,4.400550e+000
3.768284e+003,4.405602e+000
3.770213e+003,4.420020e+000
3.772141e+003,4.457859e+000
3.774070e+003,4.482868e+000
3.775998e+003,4.493095e+000
3.777927e+003,4.495504e+000
3.779855e+003,4.503481e+000
3.781784e+003,4.534503e+000
3.783712e+003,4.543988e+000
3.785641e+003,4.561123e+000
3.787569e+003,4.576404e+000
3.789498e+003,4.592840e+000
3.791426e+003,4.602690e+000
3.793355e+003,4.612485e+000
3.795283e+003,4.602015e+000
3.797212e+003,4.614483e+000
3.799140e+003,4.597913e+000
3.801069e+003,4.552674e+000
3.802997e+003,4.615514e+000
3.804926e+003,4.639719e+000
3.806854e+003,4.616071e+000
3.808783e+003,4.673516e+000
3.810711e+003,4.701484e+000
3.812640e+003,4.704484e+000
3.814568e+003,4.645439e+000
3.816497e+003,4.640994e+000
3.818425e+003,4.695271e+000
3.820354e+003,4.664526e+000
3.822282e+003,4.693592e+000
3.824211e+003,4.745564e+000
3.826139e+003,4.747581e+000
3.828068e+003,4.761052e+000
3.829996e+003,4.756372e+000
3.831925e+003,4.751514e+000
3.833853e+003,4.753958e+000
3.835782e+003,4.720895e+000
3.837710e+003,4.687865e+000
3.839639e+003,4.744338e+000
3.841567e+003,4.777546e+000
3.843496e+003,4.789695e+000
3.845424e+003,4.806616e+000
3.847353e+003,4.821015e+000
3.849281e+003,4.798530e+000
3.851210e+003,4.713421e+000
3.853138e+003,4.617908e+000
3.855067e+003,4.701901e+000
3.856995e+003,4.809500e+000
3.858924e+003,4.826082e+000
3.860852e+003,4.814166e+000
3.862781e+003,4.800066e+000
3.864709e+003,4.788120e+000
3.866638e+003,4.808765e+000
3.868566e+003,4.772182e+000
3.870495e+003,4.767590e+000
3.872423e+003,4.811093e+000
3.874352e+003,4.812053e+000
3.876280e+003,4.834644e+000
3.878209e+003,4.822411e+000
3.880137e+003,4.804176e+000
3.882066e+003,4.817589e+000
3.883994e+003,4.798335e+000
3.885923e+003,4.782283e+000
3.887851e+003,4.824893e+000
3.889780e+003,4.804664e+000
3.891708e+003,4.796701e+000
3.893637e+003,4.823404e+000
3.895565e+003,4.831242e+000
3.897494e+003,4.808672e+000
3.899422e+003,4.783494e+000
3.901351e+003,4.774660e+000
3.903279e+003,4.769056e+000
3.905208e+003,4.789762e+000
3.907136e+003,4.816338e+000
3.909065e+003,4.820352e+000
3.910993e+003,4.819301e+000
3.912922e+003,4.816008e+000
3.914850e+003,4.804273e+000
3.916779e+003,4.787557e+000
3.918707e+003,4.789713e+000
3.920636e+003,4.793953e+000
3.922564e+003,4.793901e+000
3.924493e+003,4.785011e+000
3.926421e+003,4.789600e+000
3.928350e+003,4.786402e+000
3.930278e+003,4.776178e+000
3.932207e+003,4.767915e+000
3.934135e+003,4.773763e+000
3.936064e+003,4.774337e+000
3.937992e+003,4.770077e+000
3.939921e+003,4.762960e+000
3.941849e+003,4.751080e+000
3.943778e+003,4.748236e+000
3.945706e+003,4.747230e+000
3.947635e+003,4.737740e+000
3.949563e+003,4.734252e+000
3.951492e+003,4.732737e+000
3.953420e+003,4.730280e+000
3.955349e+003,4.723968e+000
3.957277e+003,4.718287e+000
3.959206e+003,4.711530e+000
3.961134e+003,4.704873e+000
3.963063e+003,4.699327e+000
3.964991e+003,4.695395e+000
3.966920e+003,4.688049e+000
3.968848e+003,4.681351e+000
3.970777e+003,4.674118e+000
3.972705e+003,4.667686e+000
3.974634e+003,4.660651e+000
3.976562e+003,4.654851e+000
3.978491e+003,4.647513e+000
3.980419e+003,4.640117e+000
3.982348e+003,4.632679e+000
3.984276e+003,4.626575e+000
3.986205e+003,4.619496e+000
3.988133e+003,4.612007e+000
3.990062e+003,4.604027e+000
3.991990e+003,4.597920e+000
3.993919e+003,4.589755e+000
3.995847e+003,4.582504e+000
3.997776e+003,4.574333e+000
3.999704e+003,4.566369e+000
4.001633e+003,0.000000e+000
