3.991989e+002,8.928386e-001
4.011274e+002,9.589984e-001
4.030559e+002,1.032375e+000
4.049844e+002,1.100821e+000
4.069129e+002,1.175076e+000
4.088414e+002,1.251745e+000
4.107699e+002,1.334067e+000
4.126984e+002,1.415318e+000
4.146269e+002,1.501845e+000
4.165554e+002,1.575476e+000
4.184839e+002,1.646375e+000
4.204124e+002,1.741724e+000
4.223409e+002,1.840277e+000
4.242694e+002,1.925486e+000
4.261979e+002,2.020955e+000
4.281264e+002,2.106560e+000
4.300549e+002,2.198969e+000
4.319834e+002,2.282325e+000
4.339119e+002,2.365273e+000
4.358404e+002,2.442571e+000
4.377689e+002,2.527745e+000
4.396974e+002,2.604150e+000
4.416259e+002,2.678894e+000
4.435544e+002,2.742242e+000
4.454829e+002,2.811898e+000
4.474114e+002,2.880067e+000
4.493399e+002,2.944874e+000
4.512684e+002,2.998015e+000
4.531969e+002,3.066191e+000
4.551254e+002,3.122959e+000
4.570539e+002,3.173609e+000
4.589824e+002,3.239536e+000
4.609109e+002,3.311738e+000
4.628394e+002,3.364212e+000
4.647679e+002,3.426201e+000
4.666964e+002,3.473376e+000
4.686249e+002,3.535297e+000
4.705533e+002,3.594444e+000
4.724819e+002,3.651321e+000
4.744103e+002,3.714754e+000
4.763389e+002,3.787460e+000
4.782673e+002,3.848515e+000
4.801959e+002,3.928854e+000
4.821243e+002,4.005081e+000
4.840529e+002,4.079415e+000
4.859813e+002,4.152457e+000
4.879099e+002,4.227978e+000
4.898383e+002,4.282074e+000
4.917668e+002,4.346065e+000
4.936953e+002,4.392004e+000
4.956238e+002,4.434880e+000
4.975523e+002,4.474791e+000
4.994808e+002,4.519775e+000
5.014093e+002,4.554808e+000
5.033378e+002,4.615517e+000
5.052663e+002,4.667665e+000
5.071948e+002,4.724675e+000
5.091233e+002,4.780151e+000
5.110518e+002,4.835552e+000
5.129803e+002,4.881320e+000
5.149088e+002,4.936119e+000
5.168373e+002,4.971353e+000
5.187658e+002,5.025992e+000
5.206943e+002,5.080550e+000
5.226228e+002,5.139754e+000
5.245513e+002,5.191429e+000
5.264798e+002,5.264459e+000
5.284083e+002,5.325983e+000
5.303368e+002,5.396024e+000
5.322653e+002,5.455667e+000
5.341938e+002,5.516902e+000
5.361223e+002,5.566215e+000
5.380508e+002,5.625497e+000
5.399792e+002,5.666075e+000
5.419078e+002,5.721337e+000
5.438363e+002,5.761526e+000
5.457648e+002,5.804083e+000
5.476932e+002,5.845391e+000
5.496218e+002,5.895423e+000
5.515503e+002,5.929148e+000
5.534788e+002,5.979548e+000
5.554072e+002,6.015768e+000
5.573358e+002,6.064504e+000
5.592643e+002,6.106938e+000
5.611927e+002,6.169329e+000
5.631212e+002,6.215223e+000
5.650497e+002,6.279326e+000
5.669783e+002,6.321058e+000
5.689067e+002,6.375439e+000
5.708352e+002,6.414105e+000
5.727637e+002,6.460953e+000
5.746923e+002,6.490561e+000
5.766207e+002,6.539770e+000
5.785492e+002,6.564236e+000
5.804777e+002,6.600500e+000
5.824063e+002,6.628759e+000
5.843347e+002,6.674106e+000
5.862632e+002,6.698519e+000
5.881917e+002,6.745559e+000
5.901202e+002,6.791259e+000
5.920487e+002,6.867404e+000
5.939772e+002,6.923789e+000
5.959057e+002,6.997155e+000
5.978342e+002,7.058845e+000
5.997627e+002,7.153235e+000
6.016912e+002,7.209280e+000
6.036197e+002,7.295022e+000
6.055482e+002,7.351446e+000
6.074767e+002,7.435045e+000
6.094052e+002,7.492878e+000
6.113337e+002,7.592914e+000
6.132622e+002,7.669908e+000
6.151907e+002,7.713631e+000
6.171192e+002,7.571792e+000
6.190477e+002,7.756430e+000
6.209762e+002,7.970034e+000
6.229047e+002,8.054539e+000
6.248332e+002,8.104700e+000
6.267617e+002,8.181712e+000
6.286902e+002,8.224542e+000
6.306187e+002,8.289972e+000
6.325472e+002,8.312297e+000
6.344756e+002,8.353303e+000
6.364042e+002,8.338111e+000
6.383326e+002,8.351883e+000
6.402612e+002,8.296008e+000
6.421896e+002,8.270715e+000
6.441182e+002,8.174523e+000
6.460466e+002,8.088090e+000
6.479752e+002,7.854746e+000
6.499036e+002,7.866570e+000
6.518322e+002,7.914367e+000
6.537606e+002,7.967727e+000
6.556891e+002,7.956525e+000
6.576177e+002,8.084115e+000
6.595461e+002,8.157977e+000
6.614746e+002,8.375319e+000
6.634031e+002,8.583455e+000
6.653317e+002,8.117406e+000
6.672601e+002,4.898372e+000
6.691886e+002,4.939937e+000
6.711171e+002,7.771060e+000
6.730457e+002,8.240108e+000
6.749741e+002,8.181978e+000
6.769026e+002,8.050934e+000
6.788311e+002,8.108229e+000
6.807596e+002,8.095626e+000
6.826881e+002,8.246009e+000
6.846166e+002,8.334447e+000
6.865451e+002,8.538923e+000
6.884736e+002,8.659381e+000
6.904021e+002,8.900768e+000
6.923306e+002,9.091528e+000
6.942591e+002,9.341279e+000
6.961876e+002,9.518488e+000
6.981161e+002,9.745158e+000
7.000446e+002,9.898951e+000
7.019731e+002,1.008660e+001
7.039016e+002,1.019918e+001
7.058301e+002,1.034914e+001
7.077585e+002,1.042837e+001
7.096871e+002,1.054486e+001
7.116156e+002,1.059592e+001
7.135441e+002,1.069166e+001
7.154725e+002,1.072818e+001
7.174011e+002,1.073841e+001
7.193296e+002,1.046470e+001
7.212581e+002,1.054932e+001
7.231865e+002,1.085779e+001
7.251151e+002,1.091929e+001
7.270436e+002,1.092765e+001
7.289720e+002,1.094614e+001
7.309005e+002,1.095784e+001
7.328290e+002,1.097823e+001
7.347576e+002,1.098770e+001
7.366860e+002,1.100907e+001
7.386145e+002,1.102065e+001
7.405430e+002,1.103302e+001
7.424716e+002,1.104711e+001
7.444000e+002,1.108526e+001
7.463285e+002,1.110314e+001
7.482570e+002,1.113456e+001
7.501855e+002,1.115240e+001
7.521140e+002,1.118176e+001
7.540425e+002,1.119683e+001
7.559710e+002,1.123012e+001
7.578995e+002,1.125491e+001
7.598280e+002,1.129358e+001
7.617565e+002,1.131995e+001
7.636850e+002,1.135843e+001
7.656135e+002,1.138394e+001
7.675420e+002,1.142480e+001
7.694705e+002,1.145274e+001
7.713990e+002,1.149167e+001
7.733275e+002,1.151837e+001
7.752560e+002,1.155269e+001
7.771844e+002,1.157463e+001
7.791130e+002,1.160760e+001
7.810415e+002,1.162557e+001
7.829700e+002,1.164885e+001
7.848984e+002,1.165481e+001
7.868270e+002,1.166227e+001
7.887555e+002,1.164982e+001
7.906840e+002,1.164455e+001
7.926124e+002,1.162493e+001
7.945410e+002,1.161521e+001
7.964695e+002,1.159494e+001
7.983979e+002,1.158722e+001
8.003264e+002,1.157219e+001
8.022549e+002,1.157424e+001
8.041835e+002,1.156781e+001
8.061119e+002,1.157452e+001
8.080404e+002,1.157658e+001
8.099689e+002,1.159001e+001
8.118975e+002,1.159479e+001
8.138259e+002,1.160930e+001
8.157545e+002,1.160886e+001
8.176830e+002,1.161541e+001
8.196115e+002,1.161149e+001
8.215399e+002,1.161871e+001
8.234684e+002,1.162314e+001
8.253970e+002,1.164704e+001
8.273254e+002,1.166715e+001
8.292539e+002,1.169660e+001
8.311824e+002,1.171384e+001
8.331110e+002,1.173547e+001
8.350394e+002,1.175032e+001
8.369679e+002,1.177462e+001
8.388964e+002,1.178990e+001
8.408250e+002,1.181517e+001
8.427534e+002,1.183308e+001
8.446819e+002,1.185938e+001
8.466104e+002,1.188258e+001
8.485389e+002,1.191339e+001
8.504674e+002,1.193594e+001
8.523959e+002,1.197001e+001
8.543244e+002,1.199586e+001
8.562529e+002,1.202777e+001
8.581814e+002,1.205486e+001
8.601099e+002,1.208583e+001
8.620384e+002,1.210749e+001
8.639669e+002,1.214226e+001
8.658954e+002,1.216886e+001
8.678239e+002,1.220309e+001
8.697524e+002,1.223153e+001
8.716809e+002,1.226568e+001
8.736094e+002,1.229714e+001
8.755378e+002,1.233789e+001
8.774664e+002,1.237114e+001
8.793949e+002,1.241208e+001
8.813234e+002,1.244844e+001
8.832518e+002,1.249040e+001
8.851804e+002,1.252735e+001
8.871089e+002,1.257034e+001
8.890374e+002,1.260275e+001
8.909658e+002,1.264462e+001
8.928943e+002,1.268404e+001
8.948229e+002,1.272870e+001
8.967513e+002,1.277056e+001
8.986798e+002,1.282020e+001
9.006083e+002,1.286452e+001
9.025369e+002,1.292012e+001
9.044653e+002,1.296956e+001
9.063938e+002,1.302365e+001
9.083223e+002,1.307325e+001
9.102509e+002,1.312901e+001
9.121793e+002,1.317900e+001
9.141078e+002,1.323630e+001
9.160364e+002,1.328774e+001
9.179648e+002,1.334870e+001
9.198933e+002,1.341133e+001
9.218218e+002,1.347836e+001
9.237504e+002,1.353757e+001
9.256788e+002,1.360598e+001
9.276073e+002,1.366720e+001
9.295358e+002,1.373322e+001
9.314644e+002,1.379414e+001
9.333928e+002,1.385789e+001
9.353213e+002,1.391570e+001
9.372498e+002,1.397848e+001
9.391783e+002,1.403115e+001
9.411068e+002,1.408932e+001
9.430353e+002,1.414177e+001
9.449637e+002,1.419568e+001
9.468923e+002,1.424671e+001
9.488208e+002,1.430341e+001
9.507493e+002,1.435283e+001
9.526777e+002,1.440949e+001
9.546063e+002,1.446171e+001
9.565348e+002,1.451685e+001
9.584633e+002,1.456895e+001
9.603917e+002,1.462547e+001
9.623203e+002,1.467736e+001
9.642488e+002,1.474449e+001
9.661772e+002,1.481097e+001
9.681057e+002,1.488260e+001
9.700343e+002,1.495098e+001
9.719628e+002,1.501931e+001
9.738912e+002,1.508437e+001
9.758197e+002,1.516422e+001
9.777483e+002,1.523674e+001
9.796768e+002,1.530401e+001
9.816052e+002,1.536256e+001
9.835337e+002,1.542319e+001
9.854623e+002,1.547832e+001
9.873907e+002,1.554242e+001
9.893192e+002,1.559844e+001
9.912477e+002,1.565777e+001
9.931763e+002,1.571565e+001
9.951047e+002,1.577678e+001
9.970332e+002,1.583208e+001
9.989617e+002,1.589009e+001
1.000890e+003,1.593487e+001
1.002819e+003,1.597840e+001
1.004747e+003,1.600951e+001
1.006676e+003,1.603563e+001
1.008604e+003,1.605202e+001
1.010533e+003,1.607031e+001
1.012461e+003,1.607919e+001
1.014390e+003,1.609440e+001
1.016318e+003,1.610648e+001
1.018247e+003,1.612443e+001
1.020175e+003,1.614626e+001
1.022104e+003,1.617684e+001
1.024032e+003,1.620314e+001
1.025961e+003,1.623904e+001
1.027889e+003,1.627160e+001
1.029818e+003,1.630911e+001
1.031746e+003,1.634765e+001
1.033675e+003,1.638920e+001
1.035603e+003,1.642629e+001
1.037532e+003,1.646824e+001
1.039460e+003,1.649719e+001
1.041389e+003,1.652100e+001
1.043317e+003,1.653262e+001
1.045246e+003,1.654175e+001
1.047174e+003,1.654964e+001
1.049103e+003,1.656483e+001
1.051031e+003,1.657644e+001
1.052960e+003,1.659602e+001
1.054888e+003,1.661529e+001
1.056817e+003,1.663825e+001
1.058745e+003,1.666026e+001
1.060674e+003,1.669061e+001
1.062602e+003,1.671691e+001
1.064531e+003,1.674809e+001
1.066459e+003,1.677250e+001
1.068388e+003,1.679579e+001
1.070316e+003,1.681214e+001
1.072245e+003,1.682232e+001
1.074173e+003,1.682156e+001
1.076102e+003,1.684888e+001
1.078030e+003,1.689220e+001
1.079959e+003,1.693829e+001
1.081887e+003,1.700321e+001
1.083816e+003,1.707763e+001
1.085744e+003,1.712621e+001
1.087673e+003,1.716365e+001
1.089601e+003,1.718816e+001
1.091530e+003,1.721002e+001
1.093458e+003,1.722931e+001
1.095387e+003,1.725395e+001
1.097315e+003,1.728087e+001
1.099244e+003,1.731733e+001
1.101172e+003,1.734929e+001
1.103101e+003,1.739025e+001
1.105029e+003,1.743794e+001
1.106958e+003,1.749213e+001
1.108886e+003,1.754824e+001
1.110815e+003,1.761806e+001
1.112743e+003,1.769220e+001
1.114672e+003,1.777996e+001
1.116600e+003,1.786817e+001
1.118529e+003,1.795234e+001
1.120457e+003,1.803282e+001
1.122386e+003,1.811900e+001
1.124314e+003,1.820041e+001
1.126243e+003,1.828567e+001
1.128171e+003,1.836216e+001
1.130100e+003,1.842932e+001
1.132028e+003,1.848513e+001
1.133957e+003,1.853503e+001
1.135885e+003,1.856928e+001
1.137814e+003,1.859256e+001
1.139742e+003,1.858639e+001
1.141671e+003,1.857981e+001
1.143599e+003,1.861571e+001
1.145528e+003,1.867374e+001
1.147456e+003,1.871257e+001
1.149385e+003,1.875097e+001
1.151313e+003,1.880854e+001
1.153242e+003,1.889790e+001
1.155170e+003,1.898434e+001
1.157099e+003,1.906167e+001
1.159027e+003,1.913141e+001
1.160956e+003,1.921035e+001
1.162884e+003,1.928723e+001
1.164813e+003,1.937421e+001
1.166741e+003,1.947087e+001
1.168670e+003,1.956437e+001
1.170598e+003,1.964021e+001
1.172526e+003,1.970636e+001
1.174455e+003,1.974711e+001
1.176384e+003,1.975744e+001
1.178312e+003,1.969740e+001
1.180240e+003,1.963494e+001
1.182169e+003,1.975049e+001
1.184098e+003,1.992539e+001
1.186026e+003,1.999519e+001
1.187954e+003,2.003279e+001
1.189883e+003,2.005713e+001
1.191812e+003,2.008249e+001
1.193740e+003,2.010583e+001
1.195668e+003,2.013808e+001
1.197597e+003,2.016853e+001
1.199526e+003,2.021416e+001
1.201454e+003,2.025606e+001
1.203382e+003,2.030415e+001
1.205311e+003,2.034972e+001
1.207240e+003,2.039935e+001
1.209168e+003,2.044079e+001
1.211096e+003,2.048382e+001
1.213025e+003,2.051458e+001
1.214953e+003,2.054893e+001
1.216882e+003,2.057890e+001
1.218810e+003,2.061117e+001
1.220739e+003,2.063946e+001
1.222667e+003,2.067584e+001
1.224596e+003,2.070475e+001
1.226524e+003,2.074028e+001
1.228453e+003,2.077149e+001
1.230381e+003,2.080632e+001
1.232310e+003,2.083959e+001
1.234238e+003,2.087770e+001
1.236167e+003,2.090472e+001
1.238095e+003,2.093726e+001
1.240024e+003,2.096464e+001
1.241952e+003,2.099052e+001
1.243881e+003,2.101192e+001
1.245809e+003,2.103599e+001
1.247738e+003,2.105395e+001
1.249666e+003,2.108001e+001
1.251595e+003,2.109312e+001
1.253523e+003,2.109555e+001
1.255452e+003,2.108230e+001
1.257380e+003,2.105820e+001
1.259309e+003,2.101325e+001
1.261237e+003,2.098753e+001
1.263166e+003,2.098726e+001
1.265094e+003,2.103163e+001
1.267023e+003,2.112067e+001
1.268951e+003,2.123837e+001
1.270880e+003,2.133541e+001
1.272808e+003,2.141887e+001
1.274737e+003,2.147365e+001
1.276665e+003,2.152088e+001
1.278594e+003,2.156317e+001
1.280522e+003,2.159686e+001
1.282451e+003,2.161672e+001
1.284379e+003,2.164563e+001
1.286308e+003,2.165653e+001
1.288236e+003,2.166375e+001
1.290165e+003,2.167639e+001
1.292093e+003,2.168874e+001
1.294022e+003,2.169282e+001
1.295950e+003,2.170046e+001
1.297879e+003,2.170324e+001
1.299807e+003,2.170963e+001
1.301736e+003,2.170218e+001
1.303664e+003,2.169298e+001
1.305593e+003,2.169645e+001
1.307521e+003,2.174353e+001
1.309450e+003,2.176920e+001
1.311378e+003,2.177911e+001
1.313307e+003,2.178716e+001
1.315235e+003,2.180461e+001
1.317164e+003,2.181121e+001
1.319092e+003,2.182329e+001
1.321021e+003,2.183548e+001
1.322949e+003,2.185320e+001
1.324878e+003,2.185656e+001
1.326806e+003,2.185507e+001
1.328735e+003,2.186065e+001
1.330663e+003,2.184622e+001
1.332592e+003,2.183562e+001
1.334520e+003,2.189436e+001
1.336449e+003,2.190102e+001
1.338377e+003,2.188164e+001
1.340306e+003,2.187739e+001
1.342234e+003,2.190198e+001
1.344163e+003,2.190440e+001
1.346091e+003,2.189969e+001
1.348020e+003,2.188752e+001
1.349948e+003,2.188600e+001
1.351877e+003,2.187316e+001
1.353805e+003,2.186824e+001
1.355734e+003,2.186390e+001
1.357662e+003,2.187313e+001
1.359591e+003,2.184282e+001
1.361519e+003,2.179259e+001
1.363448e+003,2.179362e+001
1.365376e+003,2.185511e+001
1.367305e+003,2.185153e+001
1.369233e+003,2.184944e+001
1.371162e+003,2.183864e+001
1.373090e+003,2.178760e+001
1.375019e+003,2.176502e+001
1.376947e+003,2.179801e+001
1.378876e+003,2.177499e+001
1.380804e+003,2.172371e+001
1.382733e+003,2.159297e+001
1.384661e+003,2.153951e+001
1.386590e+003,2.154300e+001
1.388518e+003,2.165700e+001
1.390447e+003,2.176309e+001
1.392375e+003,2.173306e+001
1.394304e+003,2.162740e+001
1.396232e+003,2.166307e+001
1.398161e+003,2.165294e+001
1.400089e+003,2.167309e+001
1.402018e+003,2.173340e+001
1.403946e+003,2.169560e+001
1.405875e+003,2.169602e+001
1.407803e+003,2.173912e+001
1.409732e+003,2.173801e+001
1.411660e+003,2.174336e+001
1.413589e+003,2.174974e+001
1.415517e+003,2.173312e+001
1.417446e+003,2.158091e+001
1.419374e+003,2.145970e+001
1.421303e+003,2.166307e+001
1.423231e+003,2.174057e+001
1.425160e+003,2.175369e+001
1.427088e+003,2.178007e+001
1.429017e+003,2.172828e+001
1.430945e+003,2.173623e+001
1.432874e+003,2.176095e+001
1.434802e+003,2.162318e+001
1.436731e+003,2.143789e+001
1.438659e+003,2.163916e+001
1.440588e+003,2.172144e+001
1.442516e+003,2.170415e+001
1.444445e+003,2.166228e+001
1.446373e+003,2.159915e+001
1.448302e+003,2.153083e+001
1.450230e+003,2.157557e+001
1.452159e+003,2.153257e+001
1.454087e+003,2.141385e+001
1.456016e+003,2.099160e+001
1.457944e+003,2.103146e+001
1.459873e+003,2.137909e+001
1.461801e+003,2.147406e+001
1.463730e+003,2.135013e+001
1.465658e+003,2.133640e+001
1.467587e+003,2.145419e+001
1.469515e+003,2.141493e+001
1.471444e+003,2.116977e+001
1.473372e+003,2.110631e+001
1.475301e+003,2.126452e+001
1.477229e+003,2.134243e+001
1.479158e+003,2.141212e+001
1.481086e+003,2.138558e+001
1.483015e+003,2.139095e+001
1.484943e+003,2.134333e+001
1.486872e+003,2.124431e+001
1.488800e+003,2.114922e+001
1.490729e+003,2.115033e+001
1.492657e+003,2.126498e+001
1.494586e+003,2.113694e+001
1.496514e+003,2.095746e+001
1.498443e+003,2.105449e+001
1.500371e+003,2.115373e+001
1.502300e+003,2.118965e+001
1.504228e+003,2.087371e+001
1.506157e+003,2.044456e+001
1.508085e+003,2.066039e+001
1.510014e+003,2.097391e+001
1.511942e+003,2.098729e+001
1.513871e+003,2.099483e+001
1.515799e+003,2.087873e+001
1.517728e+003,2.082306e+001
1.519656e+003,2.065401e+001
1.521585e+003,2.047293e+001
1.523513e+003,2.068634e+001
1.525442e+003,2.069797e+001
1.527370e+003,2.073129e+001
1.529299e+003,2.076379e+001
1.531227e+003,2.070277e+001
1.533156e+003,2.051613e+001
1.535084e+003,2.059282e+001
1.537013e+003,2.045542e+001
1.538941e+003,1.995038e+001
1.540870e+003,1.993252e+001
1.542798e+003,2.020060e+001
1.544727e+003,2.031399e+001
1.546655e+003,2.041397e+001
1.548584e+003,2.039679e+001
1.550512e+003,2.034068e+001
1.552441e+003,2.024995e+001
1.554369e+003,2.009003e+001
1.556298e+003,1.992076e+001
1.558226e+003,1.941516e+001
1.560155e+003,1.949861e+001
1.562083e+003,2.000696e+001
1.564012e+003,2.007999e+001
1.565940e+003,2.004324e+001
1.567869e+003,1.991905e+001
1.569797e+003,1.978380e+001
1.571726e+003,1.988270e+001
1.573654e+003,1.978882e+001
1.575583e+003,1.940759e+001
1.577511e+003,1.951534e+001
1.579440e+003,1.972978e+001
1.581368e+003,1.967972e+001
1.583297e+003,1.963488e+001
1.585225e+003,1.957026e+001
1.587154e+003,1.952403e+001
1.589082e+003,1.945420e+001
1.591010e+003,1.939976e+001
1.592939e+003,1.932651e+001
1.594868e+003,1.926445e+001
1.596796e+003,1.920054e+001
1.598724e+003,1.914517e+001
1.600653e+003,1.906541e+001
1.602582e+003,1.899664e+001
1.604510e+003,1.892003e+001
1.606438e+003,1.884052e+001
1.608367e+003,1.873959e+001
1.610296e+003,1.866672e+001
1.612224e+003,1.859171e+001
1.614152e+003,1.841802e+001
1.616081e+003,1.803120e+001
1.618010e+003,1.803648e+001
1.619938e+003,1.815578e+001
1.621866e+003,1.802871e+001
1.623795e+003,1.795607e+001
1.625724e+003,1.798642e+001
1.627652e+003,1.792708e+001
1.629580e+003,1.789684e+001
1.631509e+003,1.786015e+001
1.633438e+003,1.762515e+001
1.635366e+003,1.731939e+001
1.637294e+003,1.743138e+001
1.639223e+003,1.754342e+001
1.641151e+003,1.749059e+001
1.643080e+003,1.739569e+001
1.645008e+003,1.711394e+001
1.646937e+003,1.698112e+001
1.648865e+003,1.709630e+001
1.650794e+003,1.681738e+001
1.652722e+003,1.626055e+001
1.654651e+003,1.655785e+001
1.656579e+003,1.689331e+001
1.658508e+003,1.687261e+001
1.660436e+003,1.676129e+001
1.662365e+003,1.660822e+001
1.664293e+003,1.659614e+001
1.666222e+003,1.656490e+001
1.668150e+003,1.634980e+001
1.670079e+003,1.623761e+001
1.672007e+003,1.626339e+001
1.673936e+003,1.612218e+001
1.675864e+003,1.601064e+001
1.677793e+003,1.609141e+001
1.679721e+003,1.600047e+001
1.681650e+003,1.584117e+001
1.683578e+003,1.541063e+001
1.685507e+003,1.540707e+001
1.687435e+003,1.564413e+001
1.689364e+003,1.560573e+001
1.691292e+003,1.554407e+001
1.693221e+003,1.539589e+001
1.695149e+003,1.500110e+001
1.697078e+003,1.497991e+001
1.699006e+003,1.484222e+001
1.700935e+003,1.470913e+001
1.702863e+003,1.493892e+001
1.704792e+003,1.483673e+001
1.706720e+003,1.479509e+001
1.708649e+003,1.474316e+001
1.710577e+003,1.468785e+001
1.712506e+003,1.454996e+001
1.714434e+003,1.437181e+001
1.716363e+003,1.408923e+001
1.718291e+003,1.402160e+001
1.720220e+003,1.415442e+001
1.722148e+003,1.412472e+001
1.724077e+003,1.402212e+001
1.726005e+003,1.394506e+001
1.727934e+003,1.383429e+001
1.729862e+003,1.371845e+001
1.731791e+003,1.350786e+001
1.733719e+003,1.322040e+001
1.735648e+003,1.330254e+001
1.737576e+003,1.336453e+001
1.739505e+003,1.321453e+001
1.741433e+003,1.318702e+001
1.743362e+003,1.313288e+001
1.745290e+003,1.306694e+001
1.747219e+003,1.295634e+001
1.749147e+003,1.282849e+001
1.751076e+003,1.268859e+001
1.753004e+003,1.269570e+001
1.754933e+003,1.263291e+001
1.756861e+003,1.251097e+001
1.758790e+003,1.243843e+001
1.760718e+003,1.229821e+001
1.762647e+003,1.219293e+001
1.764575e+003,1.215110e+001
1.766504e+003,1.200253e+001
1.768432e+003,1.185951e+001
1.770361e+003,1.170664e+001
1.772289e+003,1.150248e+001
1.774218e+003,1.145403e+001
1.776146e+003,1.136662e+001
1.778075e+003,1.122153e+001
1.780003e+003,1.109950e+001
1.781932e+003,1.100929e+001
1.783860e+003,1.090799e+001
1.785789e+003,1.081050e+001
1.787717e+003,1.073708e+001
1.789646e+003,1.060531e+001
1.791574e+003,1.043370e+001
1.793503e+003,1.034383e+001
1.795431e+003,1.030223e+001
1.797360e+003,1.018188e+001
1.799288e+003,1.004815e+001
1.801217e+003,9.910536e+000
1.803145e+003,9.799078e+000
1.805074e+003,9.656921e+000
1.807002e+003,9.501184e+000
1.808931e+003,9.307243e+000
1.810859e+003,9.107033e+000
1.812788e+003,8.878261e+000
1.814716e+003,8.585231e+000
1.816645e+003,8.165039e+000
1.818573e+003,7.818931e+000
1.820502e+003,7.628667e+000
1.822430e+003,7.510599e+000
1.824359e+003,7.380316e+000
1.826287e+003,7.271595e+000
1.828216e+003,7.141301e+000
1.830144e+003,7.006445e+000
1.832073e+003,6.903378e+000
1.834001e+003,6.781848e+000
1.835930e+003,6.639328e+000
1.837858e+003,6.505552e+000
1.839787e+003,6.375054e+000
1.841715e+003,6.232078e+000
1.843644e+003,6.061989e+000
1.845572e+003,5.963498e+000
1.847501e+003,5.872695e+000
1.849429e+003,5.763614e+000
1.851358e+003,5.653869e+000
1.853286e+003,5.546999e+000
1.855215e+003,5.441600e+000
1.857143e+003,5.342398e+000
1.859072e+003,5.243062e+000
1.861000e+003,5.149584e+000
1.862929e+003,5.055862e+000
1.864857e+003,4.963359e+000
1.866786e+003,4.859544e+000
1.868714e+003,4.758272e+000
1.870643e+003,4.680869e+000
1.872571e+003,4.606134e+000
1.874500e+003,4.515929e+000
1.876428e+003,4.429744e+000
1.878357e+003,4.339410e+000
1.880285e+003,4.252496e+000
1.882214e+003,4.162500e+000
1.884142e+003,4.077141e+000
1.886071e+003,3.989041e+000
1.887999e+003,3.900766e+000
1.889928e+003,3.811940e+000
1.891856e+003,3.738051e+000
1.893785e+003,3.653469e+000
1.895713e+003,3.573837e+000
1.897642e+003,3.493495e+000
1.899570e+003,3.417149e+000
1.901499e+003,3.336898e+000
1.903427e+003,3.261330e+000
1.905356e+003,3.182506e+000
1.907284e+003,3.107991e+000
1.909213e+003,3.030604e+000
1.911141e+003,2.960497e+000
1.913070e+003,2.886655e+000
1.914998e+003,2.815151e+000
1.916927e+003,2.735412e+000
1.918855e+003,2.670799e+000
1.920784e+003,2.608644e+000
1.922712e+003,2.523160e+000
1.924641e+003,2.423879e+000
1.926569e+003,2.327540e+000
1.928498e+003,2.231837e+000
1.930426e+003,2.142865e+000
1.932355e+003,2.053042e+000
1.934283e+003,1.969314e+000
1.936212e+003,1.885609e+000
1.938140e+003,1.807851e+000
1.940069e+003,1.727716e+000
1.941997e+003,1.651878e+000
1.943926e+003,1.579760e+000
1.945854e+003,1.512627e+000
1.947783e+003,1.443657e+000
1.949711e+003,1.379971e+000
1.951640e+003,1.316094e+000
1.953568e+003,1.255190e+000
1.955497e+003,1.184746e+000
1.957425e+003,1.094382e+000
1.959354e+003,1.001639e+000
1.961282e+003,9.461177e-001
1.963211e+003,9.016776e-001
1.965139e+003,8.623455e-001
1.967068e+003,8.200848e-001
1.968996e+003,7.834442e-001
1.970925e+003,7.456971e-001
1.972853e+003,7.131883e-001
1.974782e+003,6.781029e-001
1.976710e+003,6.538968e-001
1.978639e+003,6.756080e-001
1.980567e+003,7.542609e-001
1.982496e+003,8.144238e-001
1.984424e+003,8.534517e-001
1.986353e+003,8.765959e-001
1.988281e+003,8.961817e-001
1.990210e+003,9.055558e-001
1.992138e+003,9.123992e-001
1.994067e+003,9.129861e-001
1.995995e+003,9.112953e-001
1.997924e+003,8.978634e-001
1.999852e+003,8.765157e-001
2.001781e+003,8.395097e-001
2.003709e+003,7.918742e-001
2.005638e+003,7.289667e-001
2.007566e+003,6.901967e-001
2.009495e+003,6.816577e-001
2.011423e+003,6.799931e-001
2.013352e+003,6.711758e-001
2.015280e+003,6.632667e-001
2.017208e+003,6.509280e-001
2.019137e+003,6.426466e-001
2.021066e+003,6.323394e-001
2.022994e+003,6.271486e-001
2.024922e+003,6.200498e-001
2.026851e+003,6.150290e-001
2.028780e+003,6.088890e-001
2.030708e+003,6.098661e-001
2.032636e+003,6.112150e-001
2.034565e+003,6.296713e-001
2.036494e+003,6.671841e-001
2.038422e+003,7.129211e-001
2.040350e+003,7.517336e-001
2.042279e+003,7.904739e-001
2.044208e+003,8.233739e-001
2.046136e+003,8.596200e-001
2.048064e+003,9.048363e-001
2.049993e+003,1.003954e+000
2.051921e+003,1.132103e+000
2.053850e+003,1.194024e+000
2.055778e+003,1.239358e+000
2.057707e+003,1.288741e+000
2.059635e+003,1.321740e+000
2.061564e+003,1.353552e+000
2.063492e+003,1.383435e+000
2.065421e+003,1.416925e+000
2.067349e+003,1.450415e+000
2.069278e+003,1.488809e+000
2.071206e+003,1.527463e+000
2.073135e+003,1.571828e+000
2.075063e+003,1.616719e+000
2.076992e+003,1.667538e+000
2.078920e+003,1.720392e+000
2.080849e+003,1.773962e+000
2.082777e+003,1.819402e+000
2.084706e+003,1.859720e+000
2.086634e+003,1.888700e+000
2.088563e+003,1.909772e+000
2.090491e+003,1.911530e+000
2.092420e+003,1.891597e+000
2.094348e+003,1.844660e+000
2.096277e+003,1.822088e+000
2.098205e+003,1.832831e+000
2.100134e+003,1.854885e+000
2.102062e+003,1.873258e+000
2.103991e+003,1.892316e+000
2.105919e+003,1.907982e+000
2.107848e+003,1.924878e+000
2.109776e+003,1.941334e+000
2.111705e+003,1.961231e+000
2.113633e+003,1.981763e+000
2.115562e+003,1.996802e+000
2.117490e+003,1.988112e+000
2.119419e+003,1.960113e+000
2.121347e+003,1.918157e+000
2.123276e+003,1.863878e+000
2.125204e+003,1.792964e+000
2.127133e+003,1.708311e+000
2.129061e+003,1.605726e+000
2.130990e+003,1.488371e+000
2.132918e+003,1.351011e+000
2.134847e+003,1.227137e+000
2.136775e+003,1.141482e+000
2.138704e+003,1.075582e+000
2.140632e+003,1.010687e+000
2.142561e+003,9.475632e-001
2.144489e+003,8.836430e-001
2.146418e+003,8.245454e-001
2.148346e+003,7.707516e-001
2.150275e+003,7.220888e-001
2.152203e+003,6.654748e-001
2.154132e+003,6.004953e-001
2.156060e+003,5.217692e-001
2.157989e+003,4.437718e-001
2.159917e+003,4.272667e-001
2.161846e+003,4.793822e-001
2.163774e+003,5.299641e-001
2.165703e+003,5.761294e-001
2.167631e+003,6.208735e-001
2.169560e+003,6.605638e-001
2.171488e+003,6.822186e-001
2.173417e+003,6.896874e-001
2.175345e+003,6.873046e-001
2.177274e+003,6.996659e-001
2.179202e+003,7.105017e-001
2.181131e+003,7.130473e-001
2.183059e+003,7.247376e-001
2.184988e+003,7.549463e-001
2.186916e+003,7.858781e-001
2.188845e+003,8.173427e-001
2.190773e+003,8.448969e-001
2.192702e+003,8.731753e-001
2.194630e+003,8.978708e-001
2.196559e+003,9.237786e-001
2.198487e+003,9.459237e-001
2.200416e+003,9.685801e-001
2.202344e+003,9.889481e-001
2.204273e+003,1.011197e+000
2.206201e+003,1.031891e+000
2.208130e+003,1.053847e+000
2.210058e+003,1.073841e+000
2.211987e+003,1.097072e+000
2.213915e+003,1.118465e+000
2.215844e+003,1.143146e+000
2.217772e+003,1.166482e+000
2.219701e+003,1.192786e+000
2.221629e+003,1.218553e+000
2.223558e+003,1.247650e+000
2.225486e+003,1.276344e+000
2.227415e+003,1.308189e+000
2.229343e+003,1.338668e+000
2.231272e+003,1.373373e+000
2.233200e+003,1.407654e+000
2.235129e+003,1.444432e+000
2.237057e+003,1.481146e+000
2.238986e+003,1.521395e+000
2.240914e+003,1.559522e+000
2.242843e+003,1.600118e+000
2.244771e+003,1.637751e+000
2.246700e+003,1.676390e+000
2.248628e+003,1.712335e+000
2.250557e+003,1.747470e+000
2.252485e+003,1.775838e+000
2.254414e+003,1.804990e+000
2.256342e+003,1.847558e+000
2.258271e+003,1.905983e+000
2.260199e+003,1.959515e+000
2.262128e+003,2.008423e+000
2.264056e+003,2.051952e+000
2.265985e+003,2.101583e+000
2.267913e+003,2.164555e+000
2.269842e+003,2.240775e+000
2.271770e+003,2.319739e+000
2.273699e+003,2.407401e+000
2.275627e+003,2.502863e+000
2.277556e+003,2.614281e+000
2.279484e+003,2.739352e+000
2.281413e+003,2.885157e+000
2.283341e+003,3.037836e+000
2.285270e+003,3.185667e+000
2.287198e+003,3.323129e+000
2.289127e+003,3.453060e+000
2.291055e+003,3.568512e+000
2.292984e+003,3.664695e+000
2.294912e+003,3.739738e+000
2.296841e+003,3.799409e+000
2.298769e+003,3.837562e+000
2.300698e+003,3.859086e+000
2.302626e+003,3.867943e+000
2.304555e+003,3.839214e+000
2.306483e+003,3.757575e+000
2.308412e+003,3.657279e+000
2.310340e+003,3.551025e+000
2.312269e+003,3.467155e+000
2.314197e+003,3.429250e+000
2.316125e+003,3.366218e+000
2.318054e+003,3.197721e+000
2.319983e+003,3.011707e+000
2.321911e+003,2.918460e+000
2.323840e+003,2.987195e+000
2.325768e+003,3.076285e+000
2.327697e+003,2.939635e+000
2.329625e+003,2.725214e+000
2.331553e+003,2.614951e+000
2.333482e+003,2.598548e+000
2.335411e+003,2.524507e+000
2.337339e+003,2.431959e+000
2.339268e+003,2.366019e+000
2.341196e+003,2.319597e+000
2.343125e+003,2.373437e+000
2.345053e+003,2.638733e+000
2.346981e+003,3.456094e+000
2.348910e+003,3.957525e+000
2.350839e+003,3.203126e+000
2.352767e+003,2.369088e+000
2.354696e+003,1.864062e+000
2.356624e+003,1.567854e+000
2.358552e+003,1.406444e+000
2.360481e+003,1.359849e+000
2.362409e+003,1.380388e+000
2.364338e+003,1.463922e+000
2.366267e+003,1.615455e+000
2.368195e+003,1.841189e+000
2.370124e+003,2.144094e+000
2.372052e+003,2.526972e+000
2.373980e+003,2.980060e+000
2.375909e+003,3.493555e+000
2.377838e+003,4.048911e+000
2.379766e+003,4.614323e+000
2.381695e+003,5.116021e+000
2.383623e+003,5.473526e+000
2.385552e+003,5.653978e+000
2.387480e+003,5.694877e+000
2.389408e+003,5.655347e+000
2.391337e+003,5.579523e+000
2.393266e+003,5.491107e+000
2.395194e+003,5.401062e+000
2.397123e+003,5.313753e+000
2.399051e+003,5.228238e+000
2.400979e+003,5.144647e+000
2.402908e+003,5.061162e+000
2.404836e+003,4.975572e+000
2.406765e+003,4.897464e+000
2.408694e+003,4.846344e+000
2.410622e+003,4.808112e+000
2.412551e+003,4.767393e+000
2.414479e+003,4.723526e+000
2.416407e+003,4.679739e+000
2.418336e+003,4.635377e+000
2.420264e+003,4.592778e+000
2.422193e+003,4.551763e+000
2.424122e+003,4.514330e+000
2.426050e+003,4.479874e+000
2.427979e+003,4.448016e+000
2.429907e+003,4.418005e+000
2.431835e+003,4.391840e+000
2.433764e+003,4.368609e+000
2.435692e+003,4.348456e+000
2.437621e+003,4.331298e+000
2.439550e+003,4.317874e+000
2.441478e+003,4.307123e+000
2.443406e+003,4.301453e+000
2.445335e+003,4.298388e+000
2.447263e+003,4.299925e+000
2.449192e+003,4.305801e+000
2.451121e+003,4.315133e+000
2.453049e+003,4.327570e+000
2.454978e+003,4.344057e+000
2.456906e+003,4.357472e+000
2.458834e+003,4.364431e+000
2.460763e+003,4.363743e+000
2.462691e+003,4.358378e+000
2.464620e+003,4.348499e+000
2.466549e+003,4.337219e+000
2.468477e+003,4.324739e+000
2.470406e+003,4.311611e+000
2.472334e+003,4.297041e+000
2.474262e+003,4.282665e+000
2.476191e+003,4.268421e+000
2.478119e+003,4.254883e+000
2.480048e+003,4.240117e+000
2.481977e+003,4.227758e+000
2.483905e+003,4.216307e+000
2.485833e+003,4.206509e+000
2.487762e+003,4.196445e+000
2.489690e+003,4.188939e+000
2.491619e+003,4.183446e+000
2.493547e+003,4.179279e+000
2.495476e+003,4.175245e+000
2.497405e+003,4.171561e+000
2.499333e+003,4.166269e+000
2.501261e+003,4.161357e+000
2.503190e+003,4.154489e+000
2.505118e+003,4.148544e+000
2.507047e+003,4.143244e+000
2.508975e+003,4.139055e+000
2.510904e+003,4.133891e+000
2.512833e+003,4.129707e+000
2.514761e+003,4.125932e+000
2.516689e+003,4.123493e+000
2.518618e+003,4.121692e+000
2.520546e+003,4.121322e+000
2.522475e+003,4.120651e+000
2.524403e+003,4.121015e+000
2.526332e+003,4.121536e+000
2.528260e+003,4.123769e+000
2.530189e+003,4.126063e+000
2.532117e+003,4.130192e+000
2.534046e+003,4.135604e+000
2.535974e+003,4.141078e+000
2.537903e+003,4.146693e+000
2.539831e+003,4.155219e+000
2.541760e+003,4.165489e+000
2.543688e+003,4.176912e+000
2.545617e+003,4.188816e+000
2.547545e+003,4.203175e+000
2.549474e+003,4.218125e+000
2.551402e+003,4.234502e+000
2.553331e+003,4.251892e+000
2.555259e+003,4.272746e+000
2.557188e+003,4.294341e+000
2.559116e+003,4.317888e+000
2.561045e+003,4.342420e+000
2.562973e+003,4.369917e+000
2.564902e+003,4.399305e+000
2.566830e+003,4.430744e+000
2.568759e+003,4.463032e+000
2.570687e+003,4.498643e+000
2.572616e+003,4.536317e+000
2.574544e+003,4.576851e+000
2.576473e+003,4.619009e+000
2.578401e+003,4.664669e+000
2.580330e+003,4.711378e+000
2.582258e+003,4.762211e+000
2.584187e+003,4.815804e+000
2.586115e+003,4.871461e+000
2.588044e+003,4.930176e+000
2.589972e+003,4.993000e+000
2.591901e+003,5.058332e+000
2.593829e+003,5.127022e+000
2.595758e+003,5.199148e+000
2.597686e+003,5.275257e+000
2.599615e+003,5.354573e+000
2.601543e+003,5.439611e+000
2.603472e+003,5.528566e+000
2.605400e+003,5.621100e+000
2.607329e+003,5.718114e+000
2.609257e+003,5.821388e+000
2.611186e+003,5.928608e+000
2.613114e+003,6.041101e+000
2.615043e+003,6.158176e+000
2.616971e+003,6.281901e+000
2.618900e+003,6.410576e+000
2.620828e+003,6.545811e+000
2.622757e+003,6.686816e+000
2.624685e+003,6.834479e+000
2.626614e+003,6.987934e+000
2.628542e+003,7.149399e+000
2.630471e+003,7.316355e+000
2.632399e+003,7.490779e+000
2.634328e+003,7.670406e+000
2.636256e+003,7.856518e+000
2.638185e+003,8.048047e+000
2.640113e+003,8.246175e+000
2.642042e+003,8.450459e+000
2.643970e+003,8.659363e+000
2.645899e+003,8.871866e+000
2.647827e+003,9.087708e+000
2.649756e+003,9.303561e+000
2.651684e+003,9.519992e+000
2.653613e+003,9.730845e+000
2.655541e+003,9.934387e+000
2.657470e+003,1.012554e+001
2.659398e+003,1.029873e+001
2.661327e+003,1.044159e+001
2.663255e+003,1.054240e+001
2.665184e+003,1.059414e+001
2.667112e+003,1.060943e+001
2.669041e+003,1.060731e+001
2.670969e+003,1.059987e+001
2.672898e+003,1.058865e+001
2.674826e+003,1.057580e+001
2.676755e+003,1.056087e+001
2.678683e+003,1.054493e+001
2.680612e+003,1.052813e+001
2.682540e+003,1.051071e+001
2.684469e+003,1.049149e+001
2.686397e+003,1.047335e+001
2.688326e+003,1.045627e+001
2.690254e+003,1.043770e+001
2.692183e+003,1.041807e+001
2.694111e+003,1.040039e+001
2.696040e+003,1.038134e+001
2.697968e+003,1.036298e+001
2.699897e+003,1.034415e+001
2.701825e+003,1.032561e+001
2.703754e+003,1.030644e+001
2.705682e+003,1.028814e+001
2.707611e+003,1.026874e+001
2.709539e+003,1.025015e+001
2.711468e+003,1.023172e+001
2.713396e+003,1.021313e+001
2.715325e+003,1.019467e+001
2.717253e+003,1.017613e+001
2.719182e+003,1.015725e+001
2.721110e+003,1.013987e+001
2.723039e+003,1.012150e+001
2.724967e+003,1.010353e+001
2.726896e+003,1.008423e+001
2.728824e+003,1.006579e+001
2.730753e+003,1.004739e+001
2.732681e+003,1.002971e+001
2.734610e+003,1.001229e+001
2.736538e+003,9.994462e+000
2.738467e+003,9.975560e+000
2.740395e+003,9.956544e+000
2.742324e+003,9.937784e+000
2.744252e+003,9.919834e+000
2.746181e+003,9.902446e+000
2.748109e+003,9.884039e+000
2.750038e+003,9.864138e+000
2.751966e+003,9.845487e+000
2.753895e+003,9.826393e+000
2.755823e+003,9.808115e+000
2.757752e+003,9.789399e+000
2.759680e+003,9.769121e+000
2.761609e+003,9.749258e+000
2.763537e+003,9.730770e+000
2.765466e+003,9.712542e+000
2.767394e+003,9.694356e+000
2.769323e+003,9.674788e+000
2.771251e+003,9.655733e+000
2.773180e+003,9.636429e+000
2.775108e+003,9.617999e+000
2.777037e+003,9.597420e+000
2.778965e+003,9.577504e+000
2.780894e+003,9.557683e+000
2.782822e+003,9.538592e+000
2.784750e+003,9.519261e+000
2.786679e+003,9.500196e+000
2.788608e+003,9.481651e+000
2.790536e+003,9.461508e+000
2.792465e+003,9.441499e+000
2.794393e+003,9.421829e+000
2.796322e+003,9.402731e+000
2.798250e+003,9.384566e+000
2.800178e+003,9.364220e+000
2.802107e+003,9.344047e+000
2.804036e+003,9.323765e+000
2.805964e+003,9.304334e+000
2.807893e+003,9.284678e+000
2.809821e+003,9.265629e+000
2.811750e+003,9.244929e+000
2.813678e+003,9.224544e+000
2.815606e+003,9.204638e+000
2.817535e+003,9.184637e+000
2.819464e+003,9.163472e+000
2.821392e+003,9.142750e+000
2.823321e+003,9.121653e+000
2.825249e+003,9.100512e+000
2.827177e+003,9.079316e+000
2.829106e+003,9.058208e+000
2.831034e+003,9.036345e+000
2.832963e+003,9.014185e+000
2.834892e+003,8.991185e+000
2.836820e+003,8.969635e+000
2.838749e+003,8.947019e+000
2.840677e+003,8.918217e+000
2.842605e+003,8.888600e+000
2.844534e+003,8.859411e+000
2.846462e+003,8.829266e+000
2.848391e+003,8.800542e+000
2.850320e+003,8.773211e+000
2.852248e+003,8.750098e+000
2.854177e+003,8.729139e+000
2.856105e+003,8.708960e+000
2.858033e+003,8.690352e+000
2.859962e+003,8.671472e+000
2.861890e+003,8.650247e+000
2.863819e+003,8.630527e+000
2.865748e+003,8.610069e+000
2.867676e+003,8.587918e+000
2.869604e+003,8.565356e+000
2.871533e+003,8.544942e+000
2.873461e+003,8.524120e+000
2.875390e+003,8.499912e+000
2.877319e+003,8.478186e+000
2.879247e+003,8.457502e+000
2.881176e+003,8.436856e+000
2.883104e+003,8.415228e+000
2.885032e+003,8.392906e+000
2.886961e+003,8.370536e+000
2.888889e+003,8.348271e+000
2.890818e+003,8.325178e+000
2.892747e+003,8.301919e+000
2.894675e+003,8.277927e+000
2.896604e+003,8.253649e+000
2.898532e+003,8.229321e+000
2.900460e+003,8.204704e+000
2.902389e+003,8.180157e+000
2.904317e+003,8.154709e+000
2.906246e+003,8.127454e+000
2.908175e+003,8.101515e+000
2.910103e+003,8.074885e+000
2.912031e+003,8.050946e+000
2.913960e+003,8.023010e+000
2.915888e+003,7.988163e+000
2.917817e+003,7.960928e+000
2.919745e+003,7.937340e+000
2.921674e+003,7.913288e+000
2.923603e+003,7.889925e+000
2.925531e+003,7.865435e+000
2.927459e+003,7.846042e+000
2.929388e+003,7.833413e+000
2.931316e+003,7.816964e+000
2.933245e+003,7.800820e+000
2.935173e+003,7.784290e+000
2.937102e+003,7.764369e+000
2.939031e+003,7.751902e+000
2.940959e+003,7.742409e+000
2.942887e+003,7.727890e+000
2.944816e+003,7.710270e+000
2.946744e+003,7.686825e+000
2.948673e+003,7.663962e+000
2.950601e+003,7.645166e+000
2.952530e+003,7.622946e+000
2.954458e+003,7.597765e+000
2.956387e+003,7.568591e+000
2.958315e+003,7.539259e+000
2.960244e+003,7.520633e+000
2.962172e+003,7.500923e+000
2.964101e+003,7.481044e+000
2.966029e+003,7.462671e+000
2.967958e+003,7.448452e+000
2.969886e+003,7.443508e+000
2.971815e+003,7.439321e+000
2.973743e+003,7.430617e+000
2.975672e+003,7.419152e+000
2.977600e+003,7.401228e+000
2.979529e+003,7.388550e+000
2.981457e+003,7.378286e+000
2.983386e+003,7.363056e+000
2.985314e+003,7.346245e+000
2.987243e+003,7.327414e+000
2.989171e+003,7.309748e+000
2.991100e+003,7.298478e+000
2.993028e+003,7.280276e+000
2.994957e+003,7.258659e+000
2.996885e+003,7.239776e+000
2.998814e+003,7.219622e+000
3.000742e+003,7.200750e+000
3.002671e+003,7.182086e+000
3.004599e+003,7.161619e+000
3.006528e+003,7.141662e+000
3.008456e+003,7.123143e+000
3.010385e+003,7.106468e+000
3.012313e+003,7.083253e+000
3.014242e+003,7.050776e+000
3.016170e+003,7.011366e+000
3.018099e+003,6.998693e+000
3.020027e+003,7.003192e+000
3.021956e+003,6.990169e+000
3.023884e+003,6.972750e+000
3.025813e+003,6.952791e+000
3.027741e+003,6.933239e+000
3.029670e+003,6.914570e+000
3.031598e+003,6.897000e+000
3.033527e+003,6.881228e+000
3.035455e+003,6.863167e+000
3.037384e+003,6.843100e+000
3.039312e+003,6.826989e+000
3.041241e+003,6.814146e+000
3.043169e+003,6.796565e+000
3.045098e+003,6.776018e+000
3.047026e+003,6.754232e+000
3.048955e+003,6.737849e+000
3.050883e+003,6.724899e+000
3.052812e+003,6.706608e+000
3.054740e+003,6.687760e+000
3.056669e+003,6.664549e+000
3.058597e+003,6.648573e+000
3.060526e+003,6.637138e+000
3.062454e+003,6.620796e+000
3.064383e+003,6.602570e+000
3.066311e+003,6.580543e+000
3.068240e+003,6.565916e+000
3.070168e+003,6.554860e+000
3.072097e+003,6.539122e+000
3.074025e+003,6.520504e+000
3.075954e+003,6.501117e+000
3.077882e+003,6.491092e+000
3.079811e+003,6.476851e+000
3.081739e+003,6.457555e+000
3.083668e+003,6.436384e+000
3.085596e+003,6.410455e+000
3.087525e+003,6.398966e+000
3.089453e+003,6.388392e+000
3.091382e+003,6.370477e+000
3.093310e+003,6.347438e+000
3.095239e+003,6.325599e+000
3.097167e+003,6.315576e+000
3.099096e+003,6.302270e+000
3.101024e+003,6.284584e+000
3.102953e+003,6.262887e+000
3.104881e+003,6.245830e+000
3.106810e+003,6.235770e+000
3.108738e+003,6.221688e+000
3.110667e+003,6.202212e+000
3.112595e+003,6.181989e+000
3.114524e+003,6.170722e+000
3.116452e+003,6.161135e+000
3.118381e+003,6.145164e+000
3.120309e+003,6.125642e+000
3.122238e+003,6.096296e+000
3.124166e+003,6.080162e+000
3.126095e+003,6.072036e+000
3.128023e+003,6.060989e+000
3.129952e+003,6.044701e+000
3.131880e+003,6.028284e+000
3.133809e+003,6.015553e+000
3.135737e+003,6.001886e+000
3.137666e+003,5.987400e+000
3.139594e+003,5.971880e+000
3.141523e+003,5.955367e+000
3.143451e+003,5.940863e+000
3.145380e+003,5.925702e+000
3.147308e+003,5.910508e+000
3.149237e+003,5.895753e+000
3.151165e+003,5.887206e+000
3.153094e+003,5.873663e+000
3.155022e+003,5.856535e+000
3.156951e+003,5.841299e+000
3.158879e+003,5.827959e+000
3.160808e+003,5.815345e+000
3.162736e+003,5.802318e+000
3.164665e+003,5.788477e+000
3.166593e+003,5.774714e+000
3.168522e+003,5.761854e+000
3.170450e+003,5.749316e+000
3.172379e+003,5.735724e+000
3.174307e+003,5.722442e+000
3.176236e+003,5.709606e+000
3.178164e+003,5.696240e+000
3.180093e+003,5.684304e+000
3.182021e+003,5.673179e+000
3.183950e+003,5.660793e+000
3.185878e+003,5.649518e+000
3.187807e+003,5.638629e+000
3.189735e+003,5.627497e+000
3.191664e+003,5.616065e+000
3.193592e+003,5.605232e+000
3.195521e+003,5.593830e+000
3.197449e+003,5.582713e+000
3.199378e+003,5.572663e+000
3.201306e+003,5.562688e+000
3.203235e+003,5.553066e+000
3.205163e+003,5.544895e+000
3.207092e+003,5.536602e+000
3.209020e+003,5.527824e+000
3.210948e+003,5.520159e+000
3.212877e+003,5.513128e+000
3.214806e+003,5.506317e+000
3.216734e+003,5.500710e+000
3.218663e+003,5.493896e+000
3.220591e+003,5.487684e+000
3.222520e+003,5.481551e+000
3.224448e+003,5.475894e+000
3.226376e+003,5.470149e+000
3.228305e+003,5.464996e+000
3.230234e+003,5.460624e+000
3.232162e+003,5.459103e+000
3.234091e+003,5.454582e+000
3.236019e+003,5.447170e+000
3.237948e+003,5.442053e+000
3.239876e+003,5.437998e+000
3.241804e+003,5.434820e+000
3.243733e+003,5.431188e+000
3.245662e+003,5.428813e+000
3.247590e+003,5.426466e+000
3.249519e+003,5.422609e+000
3.251447e+003,5.420277e+000
3.253375e+003,5.418326e+000
3.255304e+003,5.417706e+000
3.257232e+003,5.416047e+000
3.259161e+003,5.415250e+000
3.261090e+003,5.414999e+000
3.263018e+003,5.415008e+000
3.264947e+003,5.414919e+000
3.266875e+003,5.416911e+000
3.268803e+003,5.420802e+000
3.270732e+003,5.424272e+000
3.272660e+003,5.422508e+000
3.274589e+003,5.422675e+000
3.276518e+003,5.422853e+000
3.278446e+003,5.424206e+000
3.280375e+003,5.425538e+000
3.282303e+003,5.426409e+000
3.284231e+003,5.426885e+000
3.286160e+003,5.427357e+000
3.288088e+003,5.427024e+000
3.290017e+003,5.428985e+000
3.291946e+003,5.430415e+000
3.293874e+003,5.429566e+000
3.295802e+003,5.429236e+000
3.297731e+003,5.427929e+000
3.299659e+003,5.426589e+000
3.301588e+003,5.426811e+000
3.303516e+003,5.431007e+000
3.305445e+003,5.434241e+000
3.307374e+003,5.429781e+000
3.309302e+003,5.425491e+000
3.311230e+003,5.422475e+000
3.313159e+003,5.421027e+000
3.315087e+003,5.419930e+000
3.317016e+003,5.419031e+000
3.318944e+003,5.417148e+000
3.320873e+003,5.415309e+000
3.322802e+003,5.412976e+000
3.324730e+003,5.412165e+000
3.326658e+003,5.410854e+000
3.328587e+003,5.409168e+000
3.330515e+003,5.407460e+000
3.332444e+003,5.405303e+000
3.334372e+003,5.402560e+000
3.336301e+003,5.400317e+000
3.338229e+003,5.399283e+000
3.340158e+003,5.396049e+000
3.342086e+003,5.392449e+000
3.344015e+003,5.389208e+000
3.345943e+003,5.386266e+000
3.347872e+003,5.384635e+000
3.349800e+003,5.382720e+000
3.351729e+003,5.378191e+000
3.353657e+003,5.373029e+000
3.355586e+003,5.369660e+000
3.357514e+003,5.366358e+000
3.359443e+003,5.363044e+000
3.361371e+003,5.359295e+000
3.363300e+003,5.355289e+000
3.365229e+003,5.351105e+000
3.367157e+003,5.348982e+000
3.369085e+003,5.346712e+000
3.371014e+003,5.338370e+000
3.372942e+003,5.329659e+000
3.374871e+003,5.324277e+000
3.376799e+003,5.318640e+000
3.378728e+003,5.312611e+000
3.380656e+003,5.304818e+000
3.382585e+003,5.297784e+000
3.384513e+003,5.290021e+000
3.386442e+003,5.282735e+000
3.388370e+003,5.275950e+000
3.390299e+003,5.271574e+000
3.392227e+003,5.262081e+000
3.394156e+003,5.250517e+000
3.396084e+003,5.240557e+000
3.398013e+003,5.233643e+000
3.399941e+003,5.227523e+000
3.401870e+003,5.214795e+000
3.403798e+003,5.201636e+000
3.405727e+003,5.190991e+000
3.407655e+003,5.180202e+000
3.409584e+003,5.169334e+000
3.411512e+003,5.158304e+000
3.413441e+003,5.147197e+000
3.415369e+003,5.133869e+000
3.417298e+003,5.120203e+000
3.419226e+003,5.105132e+000
3.421155e+003,5.091951e+000
3.423083e+003,5.079631e+000
3.425012e+003,5.066328e+000
3.426940e+003,5.051517e+000
3.428869e+003,5.037234e+000
3.430797e+003,5.021665e+000
3.432726e+003,5.007629e+000
3.434654e+003,4.994382e+000
3.436583e+003,4.978972e+000
3.438511e+003,4.965245e+000
3.440440e+003,4.953539e+000
3.442368e+003,4.942097e+000
3.444297e+003,4.933164e+000
3.446225e+003,4.922128e+000
3.448154e+003,4.914403e+000
3.450082e+003,4.907818e+000
3.452011e+003,4.899702e+000
3.453939e+003,4.890905e+000
3.455868e+003,4.881723e+000
3.457796e+003,4.872283e+000
3.459725e+003,4.863363e+000
3.461653e+003,4.853088e+000
3.463582e+003,4.844695e+000
3.465510e+003,4.836973e+000
3.467439e+003,4.828997e+000
3.469367e+003,4.819658e+000
3.471296e+003,4.809417e+000
3.473224e+003,4.800113e+000
3.475153e+003,4.791826e+000
3.477081e+003,4.785344e+000
3.479010e+003,4.778274e+000
3.480938e+003,4.768462e+000
3.482867e+003,4.762168e+000
3.484795e+003,4.758239e+000
3.486724e+003,4.752021e+000
3.488652e+003,4.746467e+000
3.490581e+003,4.742350e+000
3.492509e+003,4.737426e+000
3.494438e+003,4.732164e+000
3.496366e+003,4.727235e+000
3.498295e+003,4.723543e+000
3.500223e+003,4.717936e+000
3.502152e+003,4.710661e+000
3.504080e+003,4.705076e+000
3.506009e+003,4.703155e+000
3.507937e+003,4.696588e+000
3.509866e+003,4.690883e+000
3.511794e+003,4.688164e+000
3.513723e+003,4.684391e+000
3.515651e+003,4.678620e+000
3.517580e+003,4.672160e+000
3.519508e+003,4.665629e+000
3.521437e+003,4.657529e+000
3.523365e+003,4.648720e+000
3.525294e+003,4.642222e+000
3.527222e+003,4.632653e+000
3.529151e+003,4.626258e+000
3.531079e+003,4.619963e+000
3.533008e+003,4.612874e+000
3.534936e+003,4.600689e+000
3.536865e+003,4.590481e+000
3.538793e+003,4.580944e+000
3.540722e+003,4.569692e+000
3.542650e+003,4.554877e+000
3.544579e+003,4.538905e+000
3.546507e+003,4.524407e+000
3.548436e+003,4.517188e+000
3.550364e+003,4.504285e+000
3.552293e+003,4.488380e+000
3.554221e+003,4.477332e+000
3.556150e+003,4.465137e+000
3.558078e+003,4.447880e+000
3.560007e+003,4.429038e+000
3.561935e+003,4.409860e+000
3.563864e+003,4.387105e+000
3.565792e+003,4.352958e+000
3.567721e+003,4.332283e+000
3.569649e+003,4.332984e+000
3.571578e+003,4.322671e+000
3.573506e+003,4.302507e+000
3.575435e+003,4.282142e+000
3.577363e+003,4.260362e+000
3.579292e+003,4.237092e+000
3.581220e+003,4.212343e+000
3.583149e+003,4.182983e+000
3.585077e+003,4.139533e+000
3.587006e+003,4.092221e+000
3.588934e+003,4.071203e+000
3.590863e+003,4.061980e+000
3.592791e+003,4.033077e+000
3.594720e+003,4.006401e+000
3.596648e+003,3.990098e+000
3.598577e+003,3.978211e+000
3.600505e+003,3.966941e+000
3.602434e+003,3.968361e+000
3.604362e+003,3.970762e+000
3.606291e+003,3.968834e+000
3.608219e+003,3.966439e+000
3.610148e+003,3.995121e+000
3.612076e+003,4.012580e+000
3.614005e+003,3.996214e+000
3.615933e+003,3.952803e+000
3.617862e+003,3.890797e+000
3.619790e+003,3.848785e+000
3.621719e+003,3.839948e+000
3.623647e+003,3.824643e+000
3.625576e+003,3.802775e+000
3.627504e+003,3.751754e+000
3.629433e+003,3.747206e+000
3.631361e+003,3.809508e+000
3.633290e+003,3.836756e+000
3.635218e+003,3.859149e+000
3.637146e+003,3.878890e+000
3.639075e+003,3.893615e+000
3.641004e+003,3.903063e+000
3.642932e+003,3.908765e+000
3.644861e+003,3.902142e+000
3.646789e+003,3.868129e+000
3.648718e+003,3.838036e+000
3.650646e+003,3.857313e+000
3.652574e+003,3.898876e+000
3.654503e+003,3.889128e+000
3.656432e+003,3.875462e+000
3.658360e+003,3.897841e+000
3.660289e+003,3.903532e+000
3.662217e+003,3.899777e+000
3.664146e+003,3.896794e+000
3.666074e+003,3.886837e+000
3.668002e+003,3.851367e+000
3.669931e+003,3.809580e+000
3.671860e+003,3.828974e+000
3.673788e+003,3.801785e+000
3.675717e+003,3.761631e+000
3.677645e+003,3.814912e+000
3.679573e+003,3.837501e+000
3.681502e+003,3.844086e+000
3.683430e+003,3.834646e+000
3.685359e+003,3.814278e+000
3.687288e+003,3.749964e+000
3.689216e+003,3.730981e+000
3.691145e+003,3.750850e+000
3.693073e+003,3.758368e+000
3.695001e+003,3.753440e+000
3.696930e+003,3.742334e+000
3.698858e+003,3.733025e+000
3.700787e+003,3.715980e+000
3.702716e+003,3.724401e+000
3.704644e+003,3.748170e+000
3.706573e+003,3.767381e+000
3.708501e+003,3.782134e+000
3.710429e+003,3.804882e+000
3.712358e+003,3.859977e+000
3.714286e+003,3.938594e+000
3.716215e+003,3.934311e+000
3.718144e+003,3.888064e+000
3.720072e+003,3.842296e+000
3.722000e+003,3.807238e+000
3.723929e+003,3.784941e+000
3.725857e+003,3.772924e+000
3.727786e+003,3.783896e+000
3.729714e+003,3.800275e+000
3.731643e+003,3.799863e+000
3.733572e+003,3.839017e+000
3.735500e+003,3.872155e+000
3.737428e+003,3.952890e+000
3.739357e+003,4.036249e+000
3.741285e+003,4.083526e+000
3.743214e+003,4.042653e+000
3.745142e+003,4.083457e+000
3.747071e+003,4.180494e+000
3.749000e+003,4.165459e+000
3.750928e+003,4.180361e+000
3.752856e+003,4.238261e+000
3.754785e+003,4.321050e+000
3.756713e+003,4.337897e+000
3.758642e+003,4.353892e+000
3.760570e+003,4.374210e+000
3.762499e+003,4.410738e+000
3.764427e+003,4.412627e+000
3.766356e+003,4.432674e+000
3.768284e+003,4.438231e+000
3.770213e+003,4.452657e+000
3.772141e+003,4.488691e+000
3.774070e+003,4.513655e+000
3.775998e+003,4.524018e+000
3.777927e+003,4.527577e+000
3.779855e+003,4.536663e+000
3.781784e+003,4.566448e+000
3.783712e+003,4.576521e+000
3.785641e+003,4.593972e+000
3.787569e+003,4.608666e+000
3.789498e+003,4.624163e+000
3.791426e+003,4.633963e+000
3.793355e+003,4.643920e+000
3.795283e+003,4.636280e+000
3.797212e+003,4.648584e+000
3.799140e+003,4.634625e+000
3.801069e+003,4.594357e+000
3.802997e+003,4.652492e+000
3.804926e+003,4.676152e+000
3.806854e+003,4.655056e+000
3.808783e+003,4.707890e+000
3.810711e+003,4.734858e+000
3.812640e+003,4.739258e+000
3.814568e+003,4.686281e+000
3.816497e+003,4.682268e+000
3.818425e+003,4.732803e+000
3.820354e+003,4.706171e+000
3.822282e+003,4.732657e+000
3.824211e+003,4.780548e+000
3.826139e+003,4.782731e+000
3.828068e+003,4.796262e+000
3.829996e+003,4.792861e+000
3.831925e+003,4.789055e+000
3.833853e+003,4.791650e+000
3.835782e+003,4.761425e+000
3.837710e+003,4.731416e+000
3.839639e+003,4.783155e+000
3.841567e+003,4.813999e+000
3.843496e+003,4.826899e+000
3.845424e+003,4.843059e+000
3.847353e+003,4.855426e+000
3.849281e+003,4.834916e+000
3.851210e+003,4.757460e+000
3.853138e+003,4.670911e+000
3.855067e+003,4.747752e+000
3.856995e+003,4.846424e+000
3.858924e+003,4.861908e+000
3.860852e+003,4.850187e+000
3.862781e+003,4.837727e+000
3.864709e+003,4.827946e+000
3.866638e+003,4.846639e+000
3.868566e+003,4.813232e+000
3.870495e+003,4.809708e+000
3.872423e+003,4.849228e+000
3.874352e+003,4.850034e+000
3.876280e+003,4.870351e+000
3.878209e+003,4.859172e+000
3.880137e+003,4.842459e+000
3.882066e+003,4.854590e+000
3.883994e+003,4.836880e+000
3.885923e+003,4.821435e+000
3.887851e+003,4.859521e+000
3.889780e+003,4.842717e+000
3.891708e+003,4.835567e+000
3.893637e+003,4.859636e+000
3.895565e+003,4.866405e+000
3.897494e+003,4.845144e+000
3.899422e+003,4.821824e+000
3.901351e+003,4.813701e+000
3.903279e+003,4.808817e+000
3.905208e+003,4.827333e+000
3.907136e+003,4.851793e+000
3.909065e+003,4.856054e+000
3.910993e+003,4.853820e+000
3.912922e+003,4.850272e+000
3.914850e+003,4.840256e+000
3.916779e+003,4.825312e+000
3.918707e+003,4.826156e+000
3.920636e+003,4.829339e+000
3.922564e+003,4.829181e+000
3.924493e+003,4.821002e+000
3.926421e+003,4.824402e+000
3.928350e+003,4.821086e+000
3.930278e+003,4.811310e+000
3.932207e+003,4.802884e+000
3.934135e+003,4.808356e+000
3.936064e+003,4.809145e+000
3.937992e+003,4.804546e+000
3.939921e+003,4.797256e+000
3.941849e+003,4.786097e+000
3.943778e+003,4.783369e+000
3.945706e+003,4.782397e+000
3.947635e+003,4.773106e+000
3.949563e+003,4.768544e+000
3.951492e+003,4.766566e+000
3.953420e+003,4.763891e+000
3.955349e+003,4.757653e+000
3.957277e+003,4.752347e+000
3.959206e+003,4.746425e+000
3.961134e+003,4.740069e+000
3.963063e+003,4.734076e+000
3.964991e+003,4.729129e+000
3.966920e+003,4.722350e+000
3.968848e+003,4.715400e+000
3.970777e+003,4.707996e+000
3.972705e+003,4.701491e+000
3.974634e+003,4.694388e+000
3.976562e+003,4.688706e+000
3.978491e+003,4.681895e+000
3.980419e+003,4.675119e+000
3.982348e+003,4.666943e+000
3.984276e+003,4.660099e+000
3.986205e+003,4.652710e+000
3.988133e+003,4.645488e+000
3.990062e+003,4.636919e+000
3.991990e+003,4.629765e+000
3.993919e+003,4.622177e+000
3.995847e+003,4.615021e+000
3.997776e+003,4.607634e+000
3.999704e+003,4.600257e+000
4.001633e+003,0.000000e+000
