3.991989e+002,8.881676e-001
4.011274e+002,9.582474e-001
4.030559e+002,1.031584e+000
4.049844e+002,1.099494e+000
4.069129e+002,1.172180e+000
4.088414e+002,1.249555e+000
4.107699e+002,1.324050e+000
4.126984e+002,1.403677e+000
4.146269e+002,1.491616e+000
4.165554e+002,1.565448e+000
4.184839e+002,1.636958e+000
4.204124e+002,1.728993e+000
4.223409e+002,1.826999e+000
4.242694e+002,1.916202e+000
4.261979e+002,2.009382e+000
4.281264e+002,2.093139e+000
4.300549e+002,2.181297e+000
4.319834e+002,2.260825e+000
4.339119e+002,2.342984e+000
4.358404e+002,2.423424e+000
4.377689e+002,2.509935e+000
4.396974e+002,2.583421e+000
4.416259e+002,2.656324e+000
4.435544e+002,2.725812e+000
4.454829e+002,2.794476e+000
4.474114e+002,2.858298e+000
4.493399e+002,2.921938e+000
4.512684e+002,2.977225e+000
4.531969e+002,3.040492e+000
4.551254e+002,3.094355e+000
4.570539e+002,3.146197e+000
4.589824e+002,3.216292e+000
4.609109e+002,3.285903e+000
4.628394e+002,3.335926e+000
4.647679e+002,3.397729e+000
4.666964e+002,3.446758e+000
4.686249e+002,3.509133e+000
4.705533e+002,3.567013e+000
4.724819e+002,3.618847e+000
4.744103e+002,3.682378e+000
4.763389e+002,3.751984e+000
4.782673e+002,3.811149e+000
4.801959e+002,3.892250e+000
4.821243e+002,3.971132e+000
4.840529e+002,4.046016e+000
4.859813e+002,4.115973e+000
4.879099e+002,4.188307e+000
4.898383e+002,4.241948e+000
4.917668e+002,4.299370e+000
4.936953e+002,4.344520e+000
4.956238e+002,4.390935e+000
4.975523e+002,4.433384e+000
4.994808e+002,4.479826e+000
5.014093e+002,4.513719e+000
5.033378e+002,4.575445e+000
5.052663e+002,4.629333e+000
5.071948e+002,4.685129e+000
5.091233e+002,4.740425e+000
5.110518e+002,4.792488e+000
5.129803e+002,4.833746e+000
5.149088e+002,4.887447e+000
5.168373e+002,4.923991e+000
5.187658e+002,4.974771e+000
5.206943e+002,5.031703e+000
5.226228e+002,5.092994e+000
5.245513e+002,5.143888e+000
5.264798e+002,5.213353e+000
5.284083e+002,5.279788e+000
5.303368e+002,5.349752e+000
5.322653e+002,5.406034e+000
5.341938e+002,5.463959e+000
5.361223e+002,5.512236e+000
5.380508e+002,5.570698e+000
5.399792e+002,5.612467e+000
5.419078e+002,5.664204e+000
5.438363e+002,5.703802e+000
5.457648e+002,5.747379e+000
5.476932e+002,5.788300e+000
5.496218e+002,5.837734e+000
5.515503e+002,5.871700e+000
5.534788e+002,5.922038e+000
5.554072e+002,5.957386e+000
5.573358e+002,6.005732e+000
5.592643e+002,6.050863e+000
5.611927e+002,6.109260e+000
5.631212e+002,6.155744e+000
5.650497e+002,6.220008e+000
5.669783e+002,6.260889e+000
5.689067e+002,6.312692e+000
5.708352e+002,6.353289e+000
5.727637e+002,6.399251e+000
5.746923e+002,6.427437e+000
5.766207e+002,6.473737e+000
5.785492e+002,6.498280e+000
5.804777e+002,6.536107e+000
5.824063e+002,6.563752e+000
5.843347e+002,6.608361e+000
5.862632e+002,6.634849e+000
5.881917e+002,6.679963e+000
5.901202e+002,6.724350e+000
5.920487e+002,6.797903e+000
5.939772e+002,6.856647e+000
5.959057e+002,6.931117e+000
5.978342e+002,6.991159e+000
5.997627e+002,7.081558e+000
6.016912e+002,7.140278e+000
6.036197e+002,7.227418e+000
6.055482e+002,7.282869e+000
6.074767e+002,7.364892e+000
6.094052e+002,7.422303e+000
6.113337e+002,7.518100e+000
6.132622e+002,7.594563e+000
6.151907e+002,7.643462e+000
6.171192e+002,7.519754e+000
6.190477e+002,7.694963e+000
6.209762e+002,7.894429e+000
6.229047e+002,7.978715e+000
6.248332e+002,8.029579e+000
6.267617e+002,8.106611e+000
6.286902e+002,8.148197e+000
6.306187e+002,8.215501e+000
6.325472e+002,8.243117e+000
6.344756e+002,8.288467e+000
6.364042e+002,8.279558e+000
6.383326e+002,8.298252e+000
6.402612e+002,8.247382e+000
6.421896e+002,8.226954e+000
6.441182e+002,8.140859e+000
6.460466e+002,8.069079e+000
6.479752e+002,7.858494e+000
6.499036e+002,7.876906e+000
6.518322e+002,7.924009e+000
6.537606e+002,7.981522e+000
6.556891e+002,7.965386e+000
6.576177e+002,8.089424e+000
6.595461e+002,8.158734e+000
6.614746e+002,8.365877e+000
6.634031e+002,8.561238e+000
6.653317e+002,8.097414e+000
6.672601e+002,4.964728e+000
6.691886e+002,5.056419e+000
6.711171e+002,7.812062e+000
6.730457e+002,8.251342e+000
6.749741e+002,8.205357e+000
6.769026e+002,8.082289e+000
6.788311e+002,8.140443e+000
6.807596e+002,8.126050e+000
6.826881e+002,8.271759e+000
6.846166e+002,8.351782e+000
6.865451e+002,8.550191e+000
6.884736e+002,8.666883e+000
6.904021e+002,8.898043e+000
6.923306e+002,9.076621e+000
6.942591e+002,9.312481e+000
6.961876e+002,9.478741e+000
6.981161e+002,9.695465e+000
7.000446e+002,9.837838e+000
7.019731e+002,1.001646e+001
7.039016e+002,1.012321e+001
7.058301e+002,1.026837e+001
7.077585e+002,1.034339e+001
7.096871e+002,1.045550e+001
7.116156e+002,1.050594e+001
7.135441e+002,1.059768e+001
7.154725e+002,1.063121e+001
7.174011e+002,1.064563e+001
7.193296e+002,1.039744e+001
7.212581e+002,1.047793e+001
7.231865e+002,1.076122e+001
7.251151e+002,1.082232e+001
7.270436e+002,1.082841e+001
7.289720e+002,1.084972e+001
7.309005e+002,1.086016e+001
7.328290e+002,1.088049e+001
7.347576e+002,1.089198e+001
7.366860e+002,1.091533e+001
7.386145e+002,1.092229e+001
7.405430e+002,1.093539e+001
7.424716e+002,1.095014e+001
7.444000e+002,1.098862e+001
7.463285e+002,1.100505e+001
7.482570e+002,1.103394e+001
7.501855e+002,1.105046e+001
7.521140e+002,1.108228e+001
7.540425e+002,1.109657e+001
7.559710e+002,1.113047e+001
7.578995e+002,1.115337e+001
7.598280e+002,1.119075e+001
7.617565e+002,1.121648e+001
7.636850e+002,1.125641e+001
7.656135e+002,1.128126e+001
7.675420e+002,1.132127e+001
7.694705e+002,1.134811e+001
7.713990e+002,1.138697e+001
7.733275e+002,1.141279e+001
7.752560e+002,1.144875e+001
7.771844e+002,1.147016e+001
7.791130e+002,1.150337e+001
7.810415e+002,1.152269e+001
7.829700e+002,1.154649e+001
7.848984e+002,1.155192e+001
7.868270e+002,1.156321e+001
7.887555e+002,1.155236e+001
7.906840e+002,1.154662e+001
7.926124e+002,1.152682e+001
7.945410e+002,1.151799e+001
7.964695e+002,1.149760e+001
7.983979e+002,1.148963e+001
8.003264e+002,1.147389e+001
8.022549e+002,1.147684e+001
8.041835e+002,1.147186e+001
8.061119e+002,1.147782e+001
8.080404e+002,1.147711e+001
8.099689e+002,1.148922e+001
8.118975e+002,1.149381e+001
8.138259e+002,1.150931e+001
8.157545e+002,1.150916e+001
8.176830e+002,1.151513e+001
8.196115e+002,1.151089e+001
8.215399e+002,1.151754e+001
8.234684e+002,1.152141e+001
8.253970e+002,1.154352e+001
8.273254e+002,1.156145e+001
8.292539e+002,1.159202e+001
8.311824e+002,1.160985e+001
8.331110e+002,1.163216e+001
8.350394e+002,1.164437e+001
8.369679e+002,1.166632e+001
8.388964e+002,1.168101e+001
8.408250e+002,1.170744e+001
8.427534e+002,1.172503e+001
8.446819e+002,1.175201e+001
8.466104e+002,1.177475e+001
8.485389e+002,1.180745e+001
8.504674e+002,1.182895e+001
8.523959e+002,1.186240e+001
8.543244e+002,1.188664e+001
8.562529e+002,1.191756e+001
8.581814e+002,1.194319e+001
8.601099e+002,1.197477e+001
8.620384e+002,1.199872e+001
8.639669e+002,1.203306e+001
8.658954e+002,1.205777e+001
8.678239e+002,1.209208e+001
8.697524e+002,1.212176e+001
8.716809e+002,1.215639e+001
8.736094e+002,1.218572e+001
8.755378e+002,1.222605e+001
8.774664e+002,1.225954e+001
8.793949e+002,1.230226e+001
8.813234e+002,1.233881e+001
8.832518e+002,1.237861e+001
8.851804e+002,1.241356e+001
8.871089e+002,1.245760e+001
8.890374e+002,1.248967e+001
8.909658e+002,1.253195e+001
8.928943e+002,1.257080e+001
8.948229e+002,1.261468e+001
8.967513e+002,1.265525e+001
8.986798e+002,1.270505e+001
9.006083e+002,1.274956e+001
9.025369e+002,1.280485e+001
9.044653e+002,1.285299e+001
9.063938e+002,1.290648e+001
9.083223e+002,1.295604e+001
9.102509e+002,1.301180e+001
9.121793e+002,1.305954e+001
9.141078e+002,1.311661e+001
9.160364e+002,1.316706e+001
9.179648e+002,1.322856e+001
9.198933e+002,1.328872e+001
9.218218e+002,1.335467e+001
9.237504e+002,1.341530e+001
9.256788e+002,1.348319e+001
9.276073e+002,1.354239e+001
9.295358e+002,1.360844e+001
9.314644e+002,1.366943e+001
9.333928e+002,1.373281e+001
9.353213e+002,1.378981e+001
9.372498e+002,1.385426e+001
9.391783e+002,1.390711e+001
9.411068e+002,1.396502e+001
9.430353e+002,1.401595e+001
9.449637e+002,1.406969e+001
9.468923e+002,1.412093e+001
9.488208e+002,1.417773e+001
9.507493e+002,1.422586e+001
9.526777e+002,1.428197e+001
9.546063e+002,1.433237e+001
9.565348e+002,1.438733e+001
9.584633e+002,1.443937e+001
9.603917e+002,1.449656e+001
9.623203e+002,1.454949e+001
9.642488e+002,1.461611e+001
9.661772e+002,1.467942e+001
9.681057e+002,1.475101e+001
9.700343e+002,1.481858e+001
9.719628e+002,1.488533e+001
9.738912e+002,1.494939e+001
9.758197e+002,1.502879e+001
9.777483e+002,1.509936e+001
9.796768e+002,1.516603e+001
9.816052e+002,1.522306e+001
9.835337e+002,1.528197e+001
9.854623e+002,1.533619e+001
9.873907e+002,1.539920e+001
9.893192e+002,1.545466e+001
9.912477e+002,1.551540e+001
9.931763e+002,1.557226e+001
9.951047e+002,1.563313e+001
9.970332e+002,1.568764e+001
9.989617e+002,1.574483e+001
1.000890e+003,1.579031e+001
1.002819e+003,1.583594e+001
1.004747e+003,1.586814e+001
1.006676e+003,1.589291e+001
1.008604e+003,1.590875e+001
1.010533e+003,1.592771e+001
1.012461e+003,1.593702e+001
1.014390e+003,1.595317e+001
1.016318e+003,1.596608e+001
1.018247e+003,1.598521e+001
1.020175e+003,1.600531e+001
1.022104e+003,1.603386e+001
1.024032e+003,1.605949e+001
1.025961e+003,1.609435e+001
1.027889e+003,1.612637e+001
1.029818e+003,1.616336e+001
1.031746e+003,1.619872e+001
1.033675e+003,1.623922e+001
1.035603e+003,1.627563e+001
1.037532e+003,1.631645e+001
1.039460e+003,1.634416e+001
1.041389e+003,1.636598e+001
1.043317e+003,1.637654e+001
1.045246e+003,1.638788e+001
1.047174e+003,1.639413e+001
1.049103e+003,1.640894e+001
1.051031e+003,1.641986e+001
1.052960e+003,1.643918e+001
1.054888e+003,1.645877e+001
1.056817e+003,1.648116e+001
1.058745e+003,1.650353e+001
1.060674e+003,1.653524e+001
1.062602e+003,1.656067e+001
1.064531e+003,1.659149e+001
1.066459e+003,1.661651e+001
1.068388e+003,1.664008e+001
1.070316e+003,1.665437e+001
1.072245e+003,1.666412e+001
1.074173e+003,1.666319e+001
1.076102e+003,1.669075e+001
1.078030e+003,1.673345e+001
1.079959e+003,1.678067e+001
1.081887e+003,1.684570e+001
1.083816e+003,1.692002e+001
1.085744e+003,1.696628e+001
1.087673e+003,1.700467e+001
1.089601e+003,1.702994e+001
1.091530e+003,1.705266e+001
1.093458e+003,1.707119e+001
1.095387e+003,1.709456e+001
1.097315e+003,1.711906e+001
1.099244e+003,1.715552e+001
1.101172e+003,1.718824e+001
1.103101e+003,1.723025e+001
1.105029e+003,1.727570e+001
1.106958e+003,1.732793e+001
1.108886e+003,1.738228e+001
1.110815e+003,1.745135e+001
1.112743e+003,1.752257e+001
1.114672e+003,1.760839e+001
1.116600e+003,1.769452e+001
1.118529e+003,1.778025e+001
1.120457e+003,1.786094e+001
1.122386e+003,1.794742e+001
1.124314e+003,1.802887e+001
1.126243e+003,1.811395e+001
1.128171e+003,1.818919e+001
1.130100e+003,1.825760e+001
1.132028e+003,1.831517e+001
1.133957e+003,1.836550e+001
1.135885e+003,1.839886e+001
1.137814e+003,1.842129e+001
1.139742e+003,1.841351e+001
1.141671e+003,1.840766e+001
1.143599e+003,1.844397e+001
1.145528e+003,1.850150e+001
1.147456e+003,1.854013e+001
1.149385e+003,1.857843e+001
1.151313e+003,1.863291e+001
1.153242e+003,1.872266e+001
1.155170e+003,1.880879e+001
1.157099e+003,1.888463e+001
1.159027e+003,1.895423e+001
1.160956e+003,1.903218e+001
1.162884e+003,1.910679e+001
1.164813e+003,1.919403e+001
1.166741e+003,1.928988e+001
1.168670e+003,1.938239e+001
1.170598e+003,1.945832e+001
1.172526e+003,1.952426e+001
1.174455e+003,1.956515e+001
1.176384e+003,1.957683e+001
1.178312e+003,1.951647e+001
1.180240e+003,1.945507e+001
1.182169e+003,1.957100e+001
1.184098e+003,1.974390e+001
1.186026e+003,1.981304e+001
1.187954e+003,1.985135e+001
1.189883e+003,1.987350e+001
1.191812e+003,1.989905e+001
1.193740e+003,1.992251e+001
1.195668e+003,1.995529e+001
1.197597e+003,1.998581e+001
1.199526e+003,2.002985e+001
1.201454e+003,2.006828e+001
1.203382e+003,2.011518e+001
1.205311e+003,2.016105e+001
1.207240e+003,2.021117e+001
1.209168e+003,2.025206e+001
1.211096e+003,2.029418e+001
1.213025e+003,2.032414e+001
1.214953e+003,2.035850e+001
1.216882e+003,2.038676e+001
1.218810e+003,2.041826e+001
1.220739e+003,2.044459e+001
1.222667e+003,2.047992e+001
1.224596e+003,2.050856e+001
1.226524e+003,2.054637e+001
1.228453e+003,2.057730e+001
1.230381e+003,2.061104e+001
1.232310e+003,2.064192e+001
1.234238e+003,2.068030e+001
1.236167e+003,2.070658e+001
1.238095e+003,2.073983e+001
1.240024e+003,2.076628e+001
1.241952e+003,2.079139e+001
1.243881e+003,2.081085e+001
1.245809e+003,2.083369e+001
1.247738e+003,2.085143e+001
1.249666e+003,2.087975e+001
1.251595e+003,2.089358e+001
1.253523e+003,2.089841e+001
1.255452e+003,2.088699e+001
1.257380e+003,2.086536e+001
1.259309e+003,2.082164e+001
1.261237e+003,2.079891e+001
1.263166e+003,2.079976e+001
1.265094e+003,2.084199e+001
1.267023e+003,2.092710e+001
1.268951e+003,2.104446e+001
1.270880e+003,2.114034e+001
1.272808e+003,2.121971e+001
1.274737e+003,2.127348e+001
1.276665e+003,2.132234e+001
1.278594e+003,2.136411e+001
1.280522e+003,2.139711e+001
1.282451e+003,2.141812e+001
1.284379e+003,2.144588e+001
1.286308e+003,2.145481e+001
1.288236e+003,2.146426e+001
1.290165e+003,2.147792e+001
1.292093e+003,2.149006e+001
1.294022e+003,2.149323e+001
1.295950e+003,2.150222e+001
1.297879e+003,2.150227e+001
1.299807e+003,2.150870e+001
1.301736e+003,2.150287e+001
1.303664e+003,2.149585e+001
1.305593e+003,2.149916e+001
1.307521e+003,2.154378e+001
1.309450e+003,2.156842e+001
1.311378e+003,2.157934e+001
1.313307e+003,2.158583e+001
1.315235e+003,2.160419e+001
1.317164e+003,2.161039e+001
1.319092e+003,2.162228e+001
1.321021e+003,2.163544e+001
1.322949e+003,2.165385e+001
1.324878e+003,2.165751e+001
1.326806e+003,2.165676e+001
1.328735e+003,2.166096e+001
1.330663e+003,2.164727e+001
1.332592e+003,2.163667e+001
1.334520e+003,2.169393e+001
1.336449e+003,2.169743e+001
1.338377e+003,2.167705e+001
1.340306e+003,2.167209e+001
1.342234e+003,2.169933e+001
1.344163e+003,2.170202e+001
1.346091e+003,2.169635e+001
1.348020e+003,2.168230e+001
1.349948e+003,2.167953e+001
1.351877e+003,2.166709e+001
1.353805e+003,2.166402e+001
1.355734e+003,2.166090e+001
1.357662e+003,2.166959e+001
1.359591e+003,2.163473e+001
1.361519e+003,2.157989e+001
1.363448e+003,2.158001e+001
1.365376e+003,2.164654e+001
1.367305e+003,2.164287e+001
1.369233e+003,2.164049e+001
1.371162e+003,2.162827e+001
1.373090e+003,2.157200e+001
1.375019e+003,2.154899e+001
1.376947e+003,2.158654e+001
1.378876e+003,2.156309e+001
1.380804e+003,2.151529e+001
1.382733e+003,2.138654e+001
1.384661e+003,2.133325e+001
1.386590e+003,2.132972e+001
1.388518e+003,2.144799e+001
1.390447e+003,2.156046e+001
1.392375e+003,2.152641e+001
1.394304e+003,2.141035e+001
1.396232e+003,2.145073e+001
1.398161e+003,2.144054e+001
1.400089e+003,2.146259e+001
1.402018e+003,2.152815e+001
1.403946e+003,2.148925e+001
1.405875e+003,2.149015e+001
1.407803e+003,2.153563e+001
1.409732e+003,2.153394e+001
1.411660e+003,2.153889e+001
1.413589e+003,2.154478e+001
1.415517e+003,2.152520e+001
1.417446e+003,2.136073e+001
1.419374e+003,2.123106e+001
1.421303e+003,2.145021e+001
1.423231e+003,2.153296e+001
1.425160e+003,2.154709e+001
1.427088e+003,2.157582e+001
1.429017e+003,2.151905e+001
1.430945e+003,2.152575e+001
1.432874e+003,2.155214e+001
1.434802e+003,2.140504e+001
1.436731e+003,2.120662e+001
1.438659e+003,2.142369e+001
1.440588e+003,2.151244e+001
1.442516e+003,2.149601e+001
1.444445e+003,2.145187e+001
1.446373e+003,2.138433e+001
1.448302e+003,2.131144e+001
1.450230e+003,2.136074e+001
1.452159e+003,2.131719e+001
1.454087e+003,2.119178e+001
1.456016e+003,2.073771e+001
1.457944e+003,2.078040e+001
1.459873e+003,2.115516e+001
1.461801e+003,2.125650e+001
1.463730e+003,2.112130e+001
1.465658e+003,2.110603e+001
1.467587e+003,2.123505e+001
1.469515e+003,2.119589e+001
1.471444e+003,2.093858e+001
1.473372e+003,2.087461e+001
1.475301e+003,2.104902e+001
1.477229e+003,2.113612e+001
1.479158e+003,2.121342e+001
1.481086e+003,2.118742e+001
1.483015e+003,2.119587e+001
1.484943e+003,2.114533e+001
1.486872e+003,2.103880e+001
1.488800e+003,2.093825e+001
1.490729e+003,2.094159e+001
1.492657e+003,2.106656e+001
1.494586e+003,2.092981e+001
1.496514e+003,2.073853e+001
1.498443e+003,2.084449e+001
1.500371e+003,2.095236e+001
1.502300e+003,2.099181e+001
1.504228e+003,2.065306e+001
1.506157e+003,2.019484e+001
1.508085e+003,2.042783e+001
1.510014e+003,2.076402e+001
1.511942e+003,2.077849e+001
1.513871e+003,2.078887e+001
1.515799e+003,2.066631e+001
1.517728e+003,2.060863e+001
1.519656e+003,2.042970e+001
1.521585e+003,2.023721e+001
1.523513e+003,2.046853e+001
1.525442e+003,2.048424e+001
1.527370e+003,2.052368e+001
1.529299e+003,2.056281e+001
1.531227e+003,2.050119e+001
1.533156e+003,2.030177e+001
1.535084e+003,2.038541e+001
1.537013e+003,2.024153e+001
1.538941e+003,1.970321e+001
1.540870e+003,1.968663e+001
1.542798e+003,1.997674e+001
1.544727e+003,2.010296e+001
1.546655e+003,2.021412e+001
1.548584e+003,2.019742e+001
1.550512e+003,2.013935e+001
1.552441e+003,2.004606e+001
1.554369e+003,1.987677e+001
1.556298e+003,1.969782e+001
1.558226e+003,1.916079e+001
1.560155e+003,1.925613e+001
1.562083e+003,1.980467e+001
1.564012e+003,1.988548e+001
1.565940e+003,1.984976e+001
1.567869e+003,1.971920e+001
1.569797e+003,1.957754e+001
1.571726e+003,1.968739e+001
1.573654e+003,1.959079e+001
1.575583e+003,1.918625e+001
1.577511e+003,1.930519e+001
1.579440e+003,1.953673e+001
1.581368e+003,1.948648e+001
1.583297e+003,1.944414e+001
1.585225e+003,1.937918e+001
1.587154e+003,1.933170e+001
1.589082e+003,1.926043e+001
1.591010e+003,1.920774e+001
1.592939e+003,1.913370e+001
1.594868e+003,1.907153e+001
1.596796e+003,1.900830e+001
1.598724e+003,1.895490e+001
1.600653e+003,1.887470e+001
1.602582e+003,1.880486e+001
1.604510e+003,1.872823e+001
1.606438e+003,1.865026e+001
1.608367e+003,1.854790e+001
1.610296e+003,1.847664e+001
1.612224e+003,1.840359e+001
1.614152e+003,1.822355e+001
1.616081e+003,1.781654e+001
1.618010e+003,1.783271e+001
1.619938e+003,1.796935e+001
1.621866e+003,1.783586e+001
1.623795e+003,1.775935e+001
1.625724e+003,1.779477e+001
1.627652e+003,1.773479e+001
1.629580e+003,1.770814e+001
1.631509e+003,1.767560e+001
1.633438e+003,1.742832e+001
1.635366e+003,1.710715e+001
1.637294e+003,1.723559e+001
1.639223e+003,1.736132e+001
1.641151e+003,1.730960e+001
1.643080e+003,1.721358e+001
1.645008e+003,1.691619e+001
1.646937e+003,1.678135e+001
1.648865e+003,1.691103e+001
1.650794e+003,1.661711e+001
1.652722e+003,1.602772e+001
1.654651e+003,1.635287e+001
1.656579e+003,1.671727e+001
1.658508e+003,1.670091e+001
1.660436e+003,1.658772e+001
1.662365e+003,1.642913e+001
1.664293e+003,1.642202e+001
1.666222e+003,1.639592e+001
1.668150e+003,1.617234e+001
1.670079e+003,1.605790e+001
1.672007e+003,1.609241e+001
1.673936e+003,1.594788e+001
1.675864e+003,1.583624e+001
1.677793e+003,1.593166e+001
1.679721e+003,1.584232e+001
1.681650e+003,1.567885e+001
1.683578e+003,1.522407e+001
1.685507e+003,1.522950e+001
1.687435e+003,1.549029e+001
1.689364e+003,1.545522e+001
1.691292e+003,1.539569e+001
1.693221e+003,1.524324e+001
1.695149e+003,1.482930e+001
1.697078e+003,1.481447e+001
1.699006e+003,1.467117e+001
1.700935e+003,1.453602e+001
1.702863e+003,1.479087e+001
1.704792e+003,1.468699e+001
1.706720e+003,1.464869e+001
1.708649e+003,1.460060e+001
1.710577e+003,1.454830e+001
1.712506e+003,1.440670e+001
1.714434e+003,1.422221e+001
1.716363e+003,1.392790e+001
1.718291e+003,1.386232e+001
1.720220e+003,1.401054e+001
1.722148e+003,1.398593e+001
1.724077e+003,1.388516e+001
1.726005e+003,1.380913e+001
1.727934e+003,1.369524e+001
1.729862e+003,1.357621e+001
1.731791e+003,1.335640e+001
1.733719e+003,1.305449e+001
1.735648e+003,1.314830e+001
1.737576e+003,1.322053e+001
1.739505e+003,1.306681e+001
1.741433e+003,1.304465e+001
1.743362e+003,1.299360e+001
1.745290e+003,1.293063e+001
1.747219e+003,1.281877e+001
1.749147e+003,1.268983e+001
1.751076e+003,1.255023e+001
1.753004e+003,1.256882e+001
1.754933e+003,1.251110e+001
1.756861e+003,1.238933e+001
1.758790e+003,1.232165e+001
1.760718e+003,1.218102e+001
1.762647e+003,1.207726e+001
1.764575e+003,1.204144e+001
1.766504e+003,1.189182e+001
1.768432e+003,1.174738e+001
1.770361e+003,1.159157e+001
1.772289e+003,1.138346e+001
1.774218e+003,1.134419e+001
1.776146e+003,1.126308e+001
1.778075e+003,1.111860e+001
1.780003e+003,1.099568e+001
1.781932e+003,1.090717e+001
1.783860e+003,1.080746e+001
1.785789e+003,1.071104e+001
1.787717e+003,1.063937e+001
1.789646e+003,1.050560e+001
1.791574e+003,1.033019e+001
1.793503e+003,1.024259e+001
1.795431e+003,1.020650e+001
1.797360e+003,1.008668e+001
1.799288e+003,9.952508e+000
1.801217e+003,9.815717e+000
1.803145e+003,9.708338e+000
1.805074e+003,9.567039e+000
1.807002e+003,9.413396e+000
1.808931e+003,9.222090e+000
1.810859e+003,9.022629e+000
1.812788e+003,8.794883e+000
1.814716e+003,8.506267e+000
1.816645e+003,8.088934e+000
1.818573e+003,7.746095e+000
1.820502e+003,7.557182e+000
1.822430e+003,7.440321e+000
1.824359e+003,7.309921e+000
1.826287e+003,7.203372e+000
1.828216e+003,7.072614e+000
1.830144e+003,6.936862e+000
1.832073e+003,6.837640e+000
1.834001e+003,6.718586e+000
1.835930e+003,6.577164e+000
1.837858e+003,6.444237e+000
1.839787e+003,6.313231e+000
1.841715e+003,6.171503e+000
1.843644e+003,5.999732e+000
1.845572e+003,5.903832e+000
1.847501e+003,5.816698e+000
1.849429e+003,5.708412e+000
1.851358e+003,5.599653e+000
1.853286e+003,5.495008e+000
1.855215e+003,5.391055e+000
1.857143e+003,5.291835e+000
1.859072e+003,5.192844e+000
1.861000e+003,5.100629e+000
1.862929e+003,5.008486e+000
1.864857e+003,4.916404e+000
1.866786e+003,4.811808e+000
1.868714e+003,4.711260e+000
1.870643e+003,4.635828e+000
1.872571e+003,4.562941e+000
1.874500e+003,4.474048e+000
1.876428e+003,4.388204e+000
1.878357e+003,4.298380e+000
1.880285e+003,4.212526e+000
1.882214e+003,4.122974e+000
1.884142e+003,4.038273e+000
1.886071e+003,3.951246e+000
1.887999e+003,3.862885e+000
1.889928e+003,3.774827e+000
1.891856e+003,3.702481e+000
1.893785e+003,3.618165e+000
1.895713e+003,3.539312e+000
1.897642e+003,3.460079e+000
1.899570e+003,3.383597e+000
1.901499e+003,3.304375e+000
1.903427e+003,3.230028e+000
1.905356e+003,3.151398e+000
1.907284e+003,3.077619e+000
1.909213e+003,2.999657e+000
1.911141e+003,2.930579e+000
1.913070e+003,2.857895e+000
1.914998e+003,2.787007e+000
1.916927e+003,2.706578e+000
1.918855e+003,2.642610e+000
1.920784e+003,2.580820e+000
1.922712e+003,2.496381e+000
1.924641e+003,2.398796e+000
1.926569e+003,2.304497e+000
1.928498e+003,2.208655e+000
1.930426e+003,2.119565e+000
1.932355e+003,2.030300e+000
1.934283e+003,1.947125e+000
1.936212e+003,1.864341e+000
1.938140e+003,1.787389e+000
1.940069e+003,1.708393e+000
1.941997e+003,1.633117e+000
1.943926e+003,1.561226e+000
1.945854e+003,1.495975e+000
1.947783e+003,1.427122e+000
1.949711e+003,1.363084e+000
1.951640e+003,1.299439e+000
1.953568e+003,1.240045e+000
1.955497e+003,1.170741e+000
1.957425e+003,1.082325e+000
1.959354e+003,9.907342e-001
1.961282e+003,9.353071e-001
1.963211e+003,8.906274e-001
1.965139e+003,8.514246e-001
1.967068e+003,8.106856e-001
1.968996e+003,7.748473e-001
1.970925e+003,7.373214e-001
1.972853e+003,7.043516e-001
1.974782e+003,6.699704e-001
1.976710e+003,6.465259e-001
1.978639e+003,6.679280e-001
1.980567e+003,7.459962e-001
1.982496e+003,8.058655e-001
1.984424e+003,8.453936e-001
1.986353e+003,8.683393e-001
1.988281e+003,8.872121e-001
1.990210e+003,8.963215e-001
1.992138e+003,9.045730e-001
1.994067e+003,9.050488e-001
1.995995e+003,9.027571e-001
1.997924e+003,8.895041e-001
1.999852e+003,8.674443e-001
2.001781e+003,8.310546e-001
2.003709e+003,7.849934e-001
2.005638e+003,7.230592e-001
2.007566e+003,6.851456e-001
2.009495e+003,6.770735e-001
2.011423e+003,6.757867e-001
2.013352e+003,6.664284e-001
2.015280e+003,6.578795e-001
2.017208e+003,6.462352e-001
2.019137e+003,6.393645e-001
2.021066e+003,6.297340e-001
2.022994e+003,6.230714e-001
2.024922e+003,6.148487e-001
2.026851e+003,6.103042e-001
2.028780e+003,6.046148e-001
2.030708e+003,6.070251e-001
2.032636e+003,6.085567e-001
2.034565e+003,6.257200e-001
2.036494e+003,6.619589e-001
2.038422e+003,7.082700e-001
2.040350e+003,7.458650e-001
2.042279e+003,7.837043e-001
2.044208e+003,8.179341e-001
2.046136e+003,8.558807e-001
2.048064e+003,9.011724e-001
2.049993e+003,9.991080e-001
2.051921e+003,1.126226e+000
2.053850e+003,1.187622e+000
2.055778e+003,1.232247e+000
2.057707e+003,1.281371e+000
2.059635e+003,1.314287e+000
2.061564e+003,1.346036e+000
2.063492e+003,1.374432e+000
2.065421e+003,1.407720e+000
2.067349e+003,1.441338e+000
2.069278e+003,1.479934e+000
2.071206e+003,1.517896e+000
2.073135e+003,1.562814e+000
2.075063e+003,1.607766e+000
2.076992e+003,1.657103e+000
2.078920e+003,1.709243e+000
2.080849e+003,1.762656e+000
2.082777e+003,1.806821e+000
2.084706e+003,1.847089e+000
2.086634e+003,1.875388e+000
2.088563e+003,1.895257e+000
2.090491e+003,1.897015e+000
2.092420e+003,1.876934e+000
2.094348e+003,1.830418e+000
2.096277e+003,1.807622e+000
2.098205e+003,1.817625e+000
2.100134e+003,1.839997e+000
2.102062e+003,1.859254e+000
2.103991e+003,1.876808e+000
2.105919e+003,1.891366e+000
2.107848e+003,1.908308e+000
2.109776e+003,1.924292e+000
2.111705e+003,1.943641e+000
2.113633e+003,1.964001e+000
2.115562e+003,1.978656e+000
2.117490e+003,1.968918e+000
2.119419e+003,1.940837e+000
2.121347e+003,1.898548e+000
2.123276e+003,1.844799e+000
2.125204e+003,1.775541e+000
2.127133e+003,1.692268e+000
2.129061e+003,1.590924e+000
2.130990e+003,1.473742e+000
2.132918e+003,1.336166e+000
2.134847e+003,1.213170e+000
2.136775e+003,1.128314e+000
2.138704e+003,1.063875e+000
2.140632e+003,9.999723e-001
2.142561e+003,9.385743e-001
2.144489e+003,8.752059e-001
2.146418e+003,8.158606e-001
2.148346e+003,7.620343e-001
2.150275e+003,7.140282e-001
2.152203e+003,6.585097e-001
2.154132e+003,5.941567e-001
2.156060e+003,5.162000e-001
2.157989e+003,4.390777e-001
2.159917e+003,4.221337e-001
2.161846e+003,4.733391e-001
2.163774e+003,5.234429e-001
2.165703e+003,5.704766e-001
2.167631e+003,6.163447e-001
2.169560e+003,6.561269e-001
2.171488e+003,6.774234e-001
2.173417e+003,6.853023e-001
2.175345e+003,6.829103e-001
2.177274e+003,6.946477e-001
2.179202e+003,7.054993e-001
2.181131e+003,7.084247e-001
2.183059e+003,7.209308e-001
2.184988e+003,7.505193e-001
2.186916e+003,7.811130e-001
2.188845e+003,8.125744e-001
2.190773e+003,8.400381e-001
2.192702e+003,8.685864e-001
2.194630e+003,8.929037e-001
2.196559e+003,9.187143e-001
2.198487e+003,9.414273e-001
2.200416e+003,9.648225e-001
2.202344e+003,9.849936e-001
2.204273e+003,1.007143e+000
2.206201e+003,1.026305e+000
2.208130e+003,1.047203e+000
2.210058e+003,1.066873e+000
2.211987e+003,1.090220e+000
2.213915e+003,1.110870e+000
2.215844e+003,1.135392e+000
2.217772e+003,1.158540e+000
2.219701e+003,1.185002e+000
2.221629e+003,1.211180e+000
2.223558e+003,1.240916e+000
2.225486e+003,1.268883e+000
2.227415e+003,1.300535e+000
2.229343e+003,1.331604e+000
2.231272e+003,1.365698e+000
2.233200e+003,1.398995e+000
2.235129e+003,1.436556e+000
2.237057e+003,1.474129e+000
2.238986e+003,1.513611e+000
2.240914e+003,1.551682e+000
2.242843e+003,1.592283e+000
2.244771e+003,1.629781e+000
2.246700e+003,1.668651e+000
2.248628e+003,1.704974e+000
2.250557e+003,1.741008e+000
2.252485e+003,1.768698e+000
2.254414e+003,1.798287e+000
2.256342e+003,1.842959e+000
2.258271e+003,1.902319e+000
2.260199e+003,1.955474e+000
2.262128e+003,2.004095e+000
2.264056e+003,2.047598e+000
2.265985e+003,2.097724e+000
2.267913e+003,2.160437e+000
2.269842e+003,2.236080e+000
2.271770e+003,2.313653e+000
2.273699e+003,2.401469e+000
2.275627e+003,2.498060e+000
2.277556e+003,2.608827e+000
2.279484e+003,2.732073e+000
2.281413e+003,2.873910e+000
2.283341e+003,3.024260e+000
2.285270e+003,3.173664e+000
2.287198e+003,3.314101e+000
2.289127e+003,3.447130e+000
2.291055e+003,3.565773e+000
2.292984e+003,3.666585e+000
2.294912e+003,3.746463e+000
2.296841e+003,3.811442e+000
2.298769e+003,3.857398e+000
2.300698e+003,3.885833e+000
2.302626e+003,3.901083e+000
2.304555e+003,3.882091e+000
2.306483e+003,3.813619e+000
2.308412e+003,3.727296e+000
2.310340e+003,3.632758e+000
2.312269e+003,3.557082e+000
2.314197e+003,3.524746e+000
2.316125e+003,3.470002e+000
2.318054e+003,3.314740e+000
2.319983e+003,3.143289e+000
2.321911e+003,3.065458e+000
2.323840e+003,3.151380e+000
2.325768e+003,3.260093e+000
2.327697e+003,3.131761e+000
2.329625e+003,2.915882e+000
2.331553e+003,2.804825e+000
2.333482e+003,2.790524e+000
2.335411e+003,2.719360e+000
2.337339e+003,2.629438e+000
2.339268e+003,2.565109e+000
2.341196e+003,2.523847e+000
2.343125e+003,2.578876e+000
2.345053e+003,2.842088e+000
2.346981e+003,3.652648e+000
2.348910e+003,4.150059e+000
2.350839e+003,3.401942e+000
2.352767e+003,2.566813e+000
2.354696e+003,2.054765e+000
2.356624e+003,1.753574e+000
2.358552e+003,1.586716e+000
2.360481e+003,1.538293e+000
2.362409e+003,1.557781e+000
2.364338e+003,1.640772e+000
2.366267e+003,1.791743e+000
2.368195e+003,2.014826e+000
2.370124e+003,2.312379e+000
2.372052e+003,2.685410e+000
2.373980e+003,3.123631e+000
2.375909e+003,3.618002e+000
2.377838e+003,4.150352e+000
2.379766e+003,4.685233e+000
2.381695e+003,5.151667e+000
2.383623e+003,5.474921e+000
2.385552e+003,5.632704e+000
2.387480e+003,5.662097e+000
2.389408e+003,5.618402e+000
2.391337e+003,5.541561e+000
2.393266e+003,5.454854e+000
2.395194e+003,5.365910e+000
2.397123e+003,5.278182e+000
2.399051e+003,5.192362e+000
2.400979e+003,5.110408e+000
2.402908e+003,5.028060e+000
2.404836e+003,4.942874e+000
2.406765e+003,4.863950e+000
2.408694e+003,4.811925e+000
2.410622e+003,4.772807e+000
2.412551e+003,4.731690e+000
2.414479e+003,4.687672e+000
2.416407e+003,4.643600e+000
2.418336e+003,4.599152e+000
2.420264e+003,4.556376e+000
2.422193e+003,4.516213e+000
2.424122e+003,4.478428e+000
2.426050e+003,4.442971e+000
2.427979e+003,4.411341e+000
2.429907e+003,4.382908e+000
2.431835e+003,4.357961e+000
2.433764e+003,4.334356e+000
2.435692e+003,4.314594e+000
2.437621e+003,4.297833e+000
2.439550e+003,4.284738e+000
2.441478e+003,4.274043e+000
2.443406e+003,4.268495e+000
2.445335e+003,4.265291e+000
2.447263e+003,4.266907e+000
2.449192e+003,4.271248e+000
2.451121e+003,4.280480e+000
2.453049e+003,4.293143e+000
2.454978e+003,4.308864e+000
2.456906e+003,4.322294e+000
2.458834e+003,4.330197e+000
2.460763e+003,4.329463e+000
2.462691e+003,4.324518e+000
2.464620e+003,4.315211e+000
2.466549e+003,4.304314e+000
2.468477e+003,4.291375e+000
2.470406e+003,4.279323e+000
2.472334e+003,4.264983e+000
2.474262e+003,4.249724e+000
2.476191e+003,4.234590e+000
2.478119e+003,4.221025e+000
2.480048e+003,4.207517e+000
2.481977e+003,4.194948e+000
2.483905e+003,4.182254e+000
2.485833e+003,4.172645e+000
2.487762e+003,4.163324e+000
2.489690e+003,4.156008e+000
2.491619e+003,4.150042e+000
2.493547e+003,4.146533e+000
2.495476e+003,4.142690e+000
2.497405e+003,4.139246e+000
2.499333e+003,4.133462e+000
2.501261e+003,4.128163e+000
2.503190e+003,4.122087e+000
2.505118e+003,4.116739e+000
2.507047e+003,4.111392e+000
2.508975e+003,4.107149e+000
2.510904e+003,4.102201e+000
2.512833e+003,4.098417e+000
2.514761e+003,4.095502e+000
2.516689e+003,4.093065e+000
2.518618e+003,4.090651e+000
2.520546e+003,4.090319e+000
2.522475e+003,4.089360e+000
2.524403e+003,4.089657e+000
2.526332e+003,4.091070e+000
2.528260e+003,4.093702e+000
2.530189e+003,4.096320e+000
2.532117e+003,4.099586e+000
2.534046e+003,4.103988e+000
2.535974e+003,4.111403e+000
2.537903e+003,4.117886e+000
2.539831e+003,4.126118e+000
2.541760e+003,4.135073e+000
2.543688e+003,4.146373e+000
2.545617e+003,4.158851e+000
2.547545e+003,4.173656e+000
2.549474e+003,4.188489e+000
2.551402e+003,4.205048e+000
2.553331e+003,4.222451e+000
2.555259e+003,4.243125e+000
2.557188e+003,4.264610e+000
2.559116e+003,4.288079e+000
2.561045e+003,4.313749e+000
2.562973e+003,4.341084e+000
2.564902e+003,4.369780e+000
2.566830e+003,4.400378e+000
2.568759e+003,4.433121e+000
2.570687e+003,4.468956e+000
2.572616e+003,4.505930e+000
2.574544e+003,4.545962e+000
2.576473e+003,4.588167e+000
2.578401e+003,4.633328e+000
2.580330e+003,4.680077e+000
2.582258e+003,4.731070e+000
2.584187e+003,4.783739e+000
2.586115e+003,4.839838e+000
2.588044e+003,4.899034e+000
2.589972e+003,4.961048e+000
2.591901e+003,5.025642e+000
2.593829e+003,5.094620e+000
2.595758e+003,5.166387e+000
2.597686e+003,5.242684e+000
2.599615e+003,5.322160e+000
2.601543e+003,5.405885e+000
2.603472e+003,5.493897e+000
2.605400e+003,5.586967e+000
2.607329e+003,5.684191e+000
2.609257e+003,5.787048e+000
2.611186e+003,5.894363e+000
2.613114e+003,6.007019e+000
2.615043e+003,6.123631e+000
2.616971e+003,6.246182e+000
2.618900e+003,6.374362e+000
2.620828e+003,6.508476e+000
2.622757e+003,6.648447e+000
2.624685e+003,6.795074e+000
2.626614e+003,6.946982e+000
2.628542e+003,7.105969e+000
2.630471e+003,7.271410e+000
2.632399e+003,7.443918e+000
2.634328e+003,7.621868e+000
2.636256e+003,7.807045e+000
2.638185e+003,7.997838e+000
2.640113e+003,8.194166e+000
2.642042e+003,8.395869e+000
2.643970e+003,8.602910e+000
2.645899e+003,8.812296e+000
2.647827e+003,9.025698e+000
2.649756e+003,9.239288e+000
2.651684e+003,9.452306e+000
2.653613e+003,9.661633e+000
2.655541e+003,9.863959e+000
2.657470e+003,1.005249e+001
2.659398e+003,1.022355e+001
2.661327e+003,1.036517e+001
2.663255e+003,1.046520e+001
2.665184e+003,1.051485e+001
2.667112e+003,1.052917e+001
2.669041e+003,1.052742e+001
2.670969e+003,1.051926e+001
2.672898e+003,1.050749e+001
2.674826e+003,1.049501e+001
2.676755e+003,1.047932e+001
2.678683e+003,1.046230e+001
2.680612e+003,1.044403e+001
2.682540e+003,1.042693e+001
2.684469e+003,1.040873e+001
2.686397e+003,1.039009e+001
2.688326e+003,1.037143e+001
2.690254e+003,1.035305e+001
2.692183e+003,1.033282e+001
2.694111e+003,1.031366e+001
2.696040e+003,1.029525e+001
2.697968e+003,1.027747e+001
2.699897e+003,1.025738e+001
2.701825e+003,1.023837e+001
2.703754e+003,1.021972e+001
2.705682e+003,1.020125e+001
2.707611e+003,1.018268e+001
2.709539e+003,1.016421e+001
2.711468e+003,1.014519e+001
2.713396e+003,1.012712e+001
2.715325e+003,1.010864e+001
2.717253e+003,1.009000e+001
2.719182e+003,1.007186e+001
2.721110e+003,1.005452e+001
2.723039e+003,1.003642e+001
2.724967e+003,1.001801e+001
2.726896e+003,9.998929e+000
2.728824e+003,9.981162e+000
2.730753e+003,9.963229e+000
2.732681e+003,9.945270e+000
2.734610e+003,9.927441e+000
2.736538e+003,9.909534e+000
2.738467e+003,9.890644e+000
2.740395e+003,9.872134e+000
2.742324e+003,9.853905e+000
2.744252e+003,9.835835e+000
2.746181e+003,9.818911e+000
2.748109e+003,9.801418e+000
2.750038e+003,9.781674e+000
2.751966e+003,9.762540e+000
2.753895e+003,9.743334e+000
2.755823e+003,9.724734e+000
2.757752e+003,9.705708e+000
2.759680e+003,9.686702e+000
2.761609e+003,9.667674e+000
2.763537e+003,9.649102e+000
2.765466e+003,9.630567e+000
2.767394e+003,9.611882e+000
2.769323e+003,9.592412e+000
2.771251e+003,9.573479e+000
2.773180e+003,9.555230e+000
2.775108e+003,9.536293e+000
2.777037e+003,9.515044e+000
2.778965e+003,9.495626e+000
2.780894e+003,9.475578e+000
2.782822e+003,9.456265e+000
2.784750e+003,9.436994e+000
2.786679e+003,9.419024e+000
2.788608e+003,9.400976e+000
2.790536e+003,9.380626e+000
2.792465e+003,9.360487e+000
2.794393e+003,9.341705e+000
2.796322e+003,9.322422e+000
2.798250e+003,9.303629e+000
2.800178e+003,9.283296e+000
2.802107e+003,9.263187e+000
2.804036e+003,9.242756e+000
2.805964e+003,9.223262e+000
2.807893e+003,9.203659e+000
2.809821e+003,9.184528e+000
2.811750e+003,9.164165e+000
2.813678e+003,9.144111e+000
2.815606e+003,9.123638e+000
2.817535e+003,9.103164e+000
2.819464e+003,9.082357e+000
2.821392e+003,9.061554e+000
2.823321e+003,9.040070e+000
2.825249e+003,9.018775e+000
2.827177e+003,8.997197e+000
2.829106e+003,8.976276e+000
2.831034e+003,8.954021e+000
2.832963e+003,8.931002e+000
2.834892e+003,8.907759e+000
2.836820e+003,8.885505e+000
2.838749e+003,8.861821e+000
2.840677e+003,8.831429e+000
2.842605e+003,8.799915e+000
2.844534e+003,8.766343e+000
2.846462e+003,8.731680e+000
2.848391e+003,8.697758e+000
2.850320e+003,8.668117e+000
2.852248e+003,8.644203e+000
2.854177e+003,8.624249e+000
2.856105e+003,8.607704e+000
2.858033e+003,8.591886e+000
2.859962e+003,8.576371e+000
2.861890e+003,8.557963e+000
2.863819e+003,8.538640e+000
2.865748e+003,8.518409e+000
2.867676e+003,8.497940e+000
2.869604e+003,8.476681e+000
2.871533e+003,8.457107e+000
2.873461e+003,8.437167e+000
2.875390e+003,8.413038e+000
2.877319e+003,8.390622e+000
2.879247e+003,8.370829e+000
2.881176e+003,8.351129e+000
2.883104e+003,8.329652e+000
2.885032e+003,8.307284e+000
2.886961e+003,8.284888e+000
2.888889e+003,8.262137e+000
2.890818e+003,8.238613e+000
2.892747e+003,8.214181e+000
2.894675e+003,8.189655e+000
2.896604e+003,8.164516e+000
2.898532e+003,8.140030e+000
2.900460e+003,8.115661e+000
2.902389e+003,8.090074e+000
2.904317e+003,8.063461e+000
2.906246e+003,8.034583e+000
2.908175e+003,8.007354e+000
2.910103e+003,7.978739e+000
2.912031e+003,7.950673e+000
2.913960e+003,7.918333e+000
2.915888e+003,7.880016e+000
2.917817e+003,7.849687e+000
2.919745e+003,7.824250e+000
2.921674e+003,7.800039e+000
2.923603e+003,7.777629e+000
2.925531e+003,7.754772e+000
2.927459e+003,7.737278e+000
2.929388e+003,7.728070e+000
2.931316e+003,7.714366e+000
2.933245e+003,7.701535e+000
2.935173e+003,7.688003e+000
2.937102e+003,7.671183e+000
2.939031e+003,7.661749e+000
2.940959e+003,7.654705e+000
2.942887e+003,7.643036e+000
2.944816e+003,7.627273e+000
2.946744e+003,7.604501e+000
2.948673e+003,7.582075e+000
2.950601e+003,7.563340e+000
2.952530e+003,7.540878e+000
2.954458e+003,7.515133e+000
2.956387e+003,7.486708e+000
2.958315e+003,7.459092e+000
2.960244e+003,7.441817e+000
2.962172e+003,7.422600e+000
2.964101e+003,7.402876e+000
2.966029e+003,7.385851e+000
2.967958e+003,7.373371e+000
2.969886e+003,7.368907e+000
2.971815e+003,7.365521e+000
2.973743e+003,7.358155e+000
2.975672e+003,7.347573e+000
2.977600e+003,7.331474e+000
2.979529e+003,7.319401e+000
2.981457e+003,7.309619e+000
2.983386e+003,7.295182e+000
2.985314e+003,7.278609e+000
2.987243e+003,7.259806e+000
2.989171e+003,7.242479e+000
2.991100e+003,7.231074e+000
2.993028e+003,7.212883e+000
2.994957e+003,7.192055e+000
2.996885e+003,7.174242e+000
2.998814e+003,7.154830e+000
3.000742e+003,7.136090e+000
3.002671e+003,7.117693e+000
3.004599e+003,7.097545e+000
3.006528e+003,7.078169e+000
3.008456e+003,7.059948e+000
3.010385e+003,7.043445e+000
3.012313e+003,7.019237e+000
3.014242e+003,6.987225e+000
3.016170e+003,6.948697e+000
3.018099e+003,6.936982e+000
3.020027e+003,6.941467e+000
3.021956e+003,6.927751e+000
3.023884e+003,6.909985e+000
3.025813e+003,6.890850e+000
3.027741e+003,6.870967e+000
3.029670e+003,6.853013e+000
3.031598e+003,6.835861e+000
3.033527e+003,6.820500e+000
3.035455e+003,6.802027e+000
3.037384e+003,6.782053e+000
3.039312e+003,6.766800e+000
3.041241e+003,6.753972e+000
3.043169e+003,6.736770e+000
3.045098e+003,6.716785e+000
3.047026e+003,6.694852e+000
3.048955e+003,6.677929e+000
3.050883e+003,6.665298e+000
3.052812e+003,6.647477e+000
3.054740e+003,6.628932e+000
3.056669e+003,6.605510e+000
3.058597e+003,6.589900e+000
3.060526e+003,6.577988e+000
3.062454e+003,6.561526e+000
3.064383e+003,6.543859e+000
3.066311e+003,6.522669e+000
3.068240e+003,6.508374e+000
3.070168e+003,6.495740e+000
3.072097e+003,6.479005e+000
3.074025e+003,6.461859e+000
3.075954e+003,6.443339e+000
3.077882e+003,6.433560e+000
3.079811e+003,6.419404e+000
3.081739e+003,6.400621e+000
3.083668e+003,6.379863e+000
3.085596e+003,6.354061e+000
3.087525e+003,6.342253e+000
3.089453e+003,6.331031e+000
3.091382e+003,6.313056e+000
3.093310e+003,6.291150e+000
3.095239e+003,6.269805e+000
3.097167e+003,6.259827e+000
3.099096e+003,6.245332e+000
3.101024e+003,6.227774e+000
3.102953e+003,6.206681e+000
3.104881e+003,6.190293e+000
3.106810e+003,6.181105e+000
3.108738e+003,6.167289e+000
3.110667e+003,6.146954e+000
3.112595e+003,6.126717e+000
3.114524e+003,6.116358e+000
3.116452e+003,6.106774e+000
3.118381e+003,6.090480e+000
3.120309e+003,6.070722e+000
3.122238e+003,6.041385e+000
3.124166e+003,6.025104e+000
3.126095e+003,6.016524e+000
3.128023e+003,6.006055e+000
3.129952e+003,5.991212e+000
3.131880e+003,5.974997e+000
3.133809e+003,5.961068e+000
3.135737e+003,5.947238e+000
3.137666e+003,5.933552e+000
3.139594e+003,5.917216e+000
3.141523e+003,5.900244e+000
3.143451e+003,5.885925e+000
3.145380e+003,5.871300e+000
3.147308e+003,5.856290e+000
3.149237e+003,5.842664e+000
3.151165e+003,5.834680e+000
3.153094e+003,5.820406e+000
3.155022e+003,5.802152e+000
3.156951e+003,5.786751e+000
3.158879e+003,5.773104e+000
3.160808e+003,5.760143e+000
3.162736e+003,5.747488e+000
3.164665e+003,5.734476e+000
3.166593e+003,5.721007e+000
3.168522e+003,5.708054e+000
3.170450e+003,5.695261e+000
3.172379e+003,5.681931e+000
3.174307e+003,5.669079e+000
3.176236e+003,5.655654e+000
3.178164e+003,5.643027e+000
3.180093e+003,5.631600e+000
3.182021e+003,5.619878e+000
3.183950e+003,5.608136e+000
3.185878e+003,5.596470e+000
3.187807e+003,5.585254e+000
3.189735e+003,5.573909e+000
3.191664e+003,5.562710e+000
3.193592e+003,5.551865e+000
3.195521e+003,5.540678e+000
3.197449e+003,5.530080e+000
3.199378e+003,5.520551e+000
3.201306e+003,5.511115e+000
3.203235e+003,5.501376e+000
3.205163e+003,5.491828e+000
3.207092e+003,5.482784e+000
3.209020e+003,5.474032e+000
3.210948e+003,5.466987e+000
3.212877e+003,5.460162e+000
3.214806e+003,5.452808e+000
3.216734e+003,5.446931e+000
3.218663e+003,5.440658e+000
3.220591e+003,5.435365e+000
3.222520e+003,5.429391e+000
3.224448e+003,5.423759e+000
3.226376e+003,5.417959e+000
3.228305e+003,5.412063e+000
3.230234e+003,5.407462e+000
3.232162e+003,5.406621e+000
3.234091e+003,5.401744e+000
3.236019e+003,5.394076e+000
3.237948e+003,5.389670e+000
3.239876e+003,5.385761e+000
3.241804e+003,5.382105e+000
3.243733e+003,5.377907e+000
3.245662e+003,5.375737e+000
3.247590e+003,5.373722e+000
3.249519e+003,5.370613e+000
3.251447e+003,5.368526e+000
3.253375e+003,5.366129e+000
3.255304e+003,5.365046e+000
3.257232e+003,5.363858e+000
3.259161e+003,5.363466e+000
3.261090e+003,5.362979e+000
3.263018e+003,5.363171e+000
3.264947e+003,5.363780e+000
3.266875e+003,5.364754e+000
3.268803e+003,5.368451e+000
3.270732e+003,5.372768e+000
3.272660e+003,5.370244e+000
3.274589e+003,5.369805e+000
3.276518e+003,5.370426e+000
3.278446e+003,5.371365e+000
3.280375e+003,5.372358e+000
3.282303e+003,5.372951e+000
3.284231e+003,5.373486e+000
3.286160e+003,5.374041e+000
3.288088e+003,5.374158e+000
3.290017e+003,5.375984e+000
3.291946e+003,5.377061e+000
3.293874e+003,5.377066e+000
3.295802e+003,5.376473e+000
3.297731e+003,5.374218e+000
3.299659e+003,5.372841e+000
3.301588e+003,5.373477e+000
3.303516e+003,5.377761e+000
3.305445e+003,5.380900e+000
3.307374e+003,5.375931e+000
3.309302e+003,5.370844e+000
3.311230e+003,5.368132e+000
3.313159e+003,5.367560e+000
3.315087e+003,5.366720e+000
3.317016e+003,5.365448e+000
3.318944e+003,5.363317e+000
3.320873e+003,5.361351e+000
3.322802e+003,5.358368e+000
3.324730e+003,5.357702e+000
3.326658e+003,5.356862e+000
3.328587e+003,5.355420e+000
3.330515e+003,5.353167e+000
3.332444e+003,5.350863e+000
3.334372e+003,5.348336e+000
3.336301e+003,5.346483e+000
3.338229e+003,5.344940e+000
3.340158e+003,5.341733e+000
3.342086e+003,5.339139e+000
3.344015e+003,5.336262e+000
3.345943e+003,5.331787e+000
3.347872e+003,5.329936e+000
3.349800e+003,5.328621e+000
3.351729e+003,5.323936e+000
3.353657e+003,5.318289e+000
3.355586e+003,5.315255e+000
3.357514e+003,5.312062e+000
3.359443e+003,5.308791e+000
3.361371e+003,5.304232e+000
3.363300e+003,5.300573e+000
3.365229e+003,5.296943e+000
3.367157e+003,5.295157e+000
3.369085e+003,5.292571e+000
3.371014e+003,5.284383e+000
3.372942e+003,5.275984e+000
3.374871e+003,5.270399e+000
3.376799e+003,5.264276e+000
3.378728e+003,5.258333e+000
3.380656e+003,5.251647e+000
3.382585e+003,5.244759e+000
3.384513e+003,5.236944e+000
3.386442e+003,5.229793e+000
3.388370e+003,5.222239e+000
3.390299e+003,5.217977e+000
3.392227e+003,5.209025e+000
3.394156e+003,5.197327e+000
3.396084e+003,5.186789e+000
3.398013e+003,5.179770e+000
3.399941e+003,5.174115e+000
3.401870e+003,5.162278e+000
3.403798e+003,5.149149e+000
3.405727e+003,5.138217e+000
3.407655e+003,5.127578e+000
3.409584e+003,5.117433e+000
3.411512e+003,5.106403e+000
3.413441e+003,5.094686e+000
3.415369e+003,5.081367e+000
3.417298e+003,5.068509e+000
3.419226e+003,5.053957e+000
3.421155e+003,5.040576e+000
3.423083e+003,5.027888e+000
3.425012e+003,5.014798e+000
3.426940e+003,5.000365e+000
3.428869e+003,4.986582e+000
3.430797e+003,4.971044e+000
3.432726e+003,4.957600e+000
3.434654e+003,4.945271e+000
3.436583e+003,4.930483e+000
3.438511e+003,4.915797e+000
3.440440e+003,4.903901e+000
3.442368e+003,4.892797e+000
3.444297e+003,4.883538e+000
3.446225e+003,4.872581e+000
3.448154e+003,4.865510e+000
3.450082e+003,4.858822e+000
3.452011e+003,4.850760e+000
3.453939e+003,4.842710e+000
3.455868e+003,4.833498e+000
3.457796e+003,4.823561e+000
3.459725e+003,4.814091e+000
3.461653e+003,4.803544e+000
3.463582e+003,4.795789e+000
3.465510e+003,4.788961e+000
3.467439e+003,4.781950e+000
3.469367e+003,4.772590e+000
3.471296e+003,4.762573e+000
3.473224e+003,4.753234e+000
3.475153e+003,4.745178e+000
3.477081e+003,4.738786e+000
3.479010e+003,4.732291e+000
3.480938e+003,4.722739e+000
3.482867e+003,4.716559e+000
3.484795e+003,4.712200e+000
3.486724e+003,4.706362e+000
3.488652e+003,4.700968e+000
3.490581e+003,4.696812e+000
3.492509e+003,4.691950e+000
3.494438e+003,4.687381e+000
3.496366e+003,4.682700e+000
3.498295e+003,4.679046e+000
3.500223e+003,4.673115e+000
3.502152e+003,4.666109e+000
3.504080e+003,4.661381e+000
3.506009e+003,4.660019e+000
3.507937e+003,4.652692e+000
3.509866e+003,4.646684e+000
3.511794e+003,4.644522e+000
3.513723e+003,4.641396e+000
3.515651e+003,4.635275e+000
3.517580e+003,4.628881e+000
3.519508e+003,4.622034e+000
3.521437e+003,4.614269e+000
3.523365e+003,4.605959e+000
3.525294e+003,4.598907e+000
3.527222e+003,4.589299e+000
3.529151e+003,4.583125e+000
3.531079e+003,4.577224e+000
3.533008e+003,4.570516e+000
3.534936e+003,4.558647e+000
3.536865e+003,4.547962e+000
3.538793e+003,4.538762e+000
3.540722e+003,4.529061e+000
3.542650e+003,4.514321e+000
3.544579e+003,4.497160e+000
3.546507e+003,4.482406e+000
3.548436e+003,4.475597e+000
3.550364e+003,4.462166e+000
3.552293e+003,4.446246e+000
3.554221e+003,4.435917e+000
3.556150e+003,4.423627e+000
3.558078e+003,4.405972e+000
3.560007e+003,4.388133e+000
3.561935e+003,4.370356e+000
3.563864e+003,4.346813e+000
3.565792e+003,4.311128e+000
3.567721e+003,4.291230e+000
3.569649e+003,4.294122e+000
3.571578e+003,4.285338e+000
3.573506e+003,4.265426e+000
3.575435e+003,4.245060e+000
3.577363e+003,4.223990e+000
3.579292e+003,4.201355e+000
3.581220e+003,4.176855e+000
3.583149e+003,4.148671e+000
3.585077e+003,4.106462e+000
3.587006e+003,4.059629e+000
3.588934e+003,4.040218e+000
3.590863e+003,4.034429e+000
3.592791e+003,4.006863e+000
3.594720e+003,3.981434e+000
3.596648e+003,3.966242e+000
3.598577e+003,3.954947e+000
3.600505e+003,3.943506e+000
3.602434e+003,3.944492e+000
3.604362e+003,3.946153e+000
3.606291e+003,3.941640e+000
3.608219e+003,3.935683e+000
3.610148e+003,3.962472e+000
3.612076e+003,3.978129e+000
3.614005e+003,3.962637e+000
3.615933e+003,3.922679e+000
3.617862e+003,3.862960e+000
3.619790e+003,3.824547e+000
3.621719e+003,3.819788e+000
3.623647e+003,3.806496e+000
3.625576e+003,3.784261e+000
3.627504e+003,3.729850e+000
3.629433e+003,3.723238e+000
3.631361e+003,3.788278e+000
3.633290e+003,3.815332e+000
3.635218e+003,3.835729e+000
3.637146e+003,3.852563e+000
3.639075e+003,3.865674e+000
3.641004e+003,3.873920e+000
3.642932e+003,3.878296e+000
3.644861e+003,3.869792e+000
3.646789e+003,3.832513e+000
3.648718e+003,3.798966e+000
3.650646e+003,3.819984e+000
3.652574e+003,3.865531e+000
3.654503e+003,3.855113e+000
3.656432e+003,3.840450e+000
3.658360e+003,3.864522e+000
3.660289e+003,3.870711e+000
3.662217e+003,3.866746e+000
3.664146e+003,3.864180e+000
3.666074e+003,3.854288e+000
3.668002e+003,3.816953e+000
3.669931e+003,3.772332e+000
3.671860e+003,3.794250e+000
3.673788e+003,3.766311e+000
3.675717e+003,3.725467e+000
3.677645e+003,3.784515e+000
3.679573e+003,3.808972e+000
3.681502e+003,3.816480e+000
3.683430e+003,3.808265e+000
3.685359e+003,3.788400e+000
3.687288e+003,3.721080e+000
3.689216e+003,3.703514e+000
3.691145e+003,3.727160e+000
3.693073e+003,3.738288e+000
3.695001e+003,3.735842e+000
3.696930e+003,3.725607e+000
3.698858e+003,3.717113e+000
3.700787e+003,3.700073e+000
3.702716e+003,3.709861e+000
3.704644e+003,3.734209e+000
3.706573e+003,3.751682e+000
3.708501e+003,3.762881e+000
3.710429e+003,3.780055e+000
3.712358e+003,3.831173e+000
3.714286e+003,3.910649e+000
3.716215e+003,3.910169e+000
3.718144e+003,3.867955e+000
3.720072e+003,3.825341e+000
3.722000e+003,3.793215e+000
3.723929e+003,3.773746e+000
3.725857e+003,3.762928e+000
3.727786e+003,3.775412e+000
3.729714e+003,3.791732e+000
3.731643e+003,3.787853e+000
3.733572e+003,3.824706e+000
3.735500e+003,3.853143e+000
3.737428e+003,3.932576e+000
3.739357e+003,4.014857e+000
3.741285e+003,4.058090e+000
3.743214e+003,4.007460e+000
3.745142e+003,4.045685e+000
3.747071e+003,4.146402e+000
3.749000e+003,4.126758e+000
3.750928e+003,4.140236e+000
3.752856e+003,4.200329e+000
3.754785e+003,4.287348e+000
3.756713e+003,4.303381e+000
3.758642e+003,4.318772e+000
3.760570e+003,4.338623e+000
3.762499e+003,4.376483e+000
3.764427e+003,4.377138e+000
3.766356e+003,4.397569e+000
3.768284e+003,4.402796e+000
3.770213e+003,4.416915e+000
3.772141e+003,4.453470e+000
3.774070e+003,4.478202e+000
3.775998e+003,4.489245e+000
3.777927e+003,4.491864e+000
3.779855e+003,4.499817e+000
3.781784e+003,4.530972e+000
3.783712e+003,4.540387e+000
3.785641e+003,4.557117e+000
3.787569e+003,4.572299e+000
3.789498e+003,4.587952e+000
3.791426e+003,4.597101e+000
3.793355e+003,4.607557e+000
3.795283e+003,4.598310e+000
3.797212e+003,4.610657e+000
3.799140e+003,4.594272e+000
3.801069e+003,4.549617e+000
3.802997e+003,4.611449e+000
3.804926e+003,4.636059e+000
3.806854e+003,4.613187e+000
3.808783e+003,4.668986e+000
3.810711e+003,4.697023e+000
3.812640e+003,4.700451e+000
3.814568e+003,4.642493e+000
3.816497e+003,4.637861e+000
3.818425e+003,4.690555e+000
3.820354e+003,4.661110e+000
3.822282e+003,4.690076e+000
3.824211e+003,4.740349e+000
3.826139e+003,4.741642e+000
3.828068e+003,4.755330e+000
3.829996e+003,4.751307e+000
3.831925e+003,4.747149e+000
3.833853e+003,4.749320e+000
3.835782e+003,4.716985e+000
3.837710e+003,4.684854e+000
3.839639e+003,4.739805e+000
3.841567e+003,4.772131e+000
3.843496e+003,4.784907e+000
3.845424e+003,4.802139e+000
3.847353e+003,4.815357e+000
3.849281e+003,4.793165e+000
3.851210e+003,4.709938e+000
3.853138e+003,4.617000e+000
3.855067e+003,4.699114e+000
3.856995e+003,4.804483e+000
3.858924e+003,4.821621e+000
3.860852e+003,4.809494e+000
3.862781e+003,4.794589e+000
3.864709e+003,4.783570e+000
3.866638e+003,4.804166e+000
3.868566e+003,4.768721e+000
3.870495e+003,4.764599e+000
3.872423e+003,4.806582e+000
3.874352e+003,4.806734e+000
3.876280e+003,4.828673e+000
3.878209e+003,4.816931e+000
3.880137e+003,4.799542e+000
3.882066e+003,4.812397e+000
3.883994e+003,4.793496e+000
3.885923e+003,4.777670e+000
3.887851e+003,4.819259e+000
3.889780e+003,4.801022e+000
3.891708e+003,4.792907e+000
3.893637e+003,4.818229e+000
3.895565e+003,4.825422e+000
3.897494e+003,4.803419e+000
3.899422e+003,4.778478e+000
3.901351e+003,4.770034e+000
3.903279e+003,4.764722e+000
3.905208e+003,4.784680e+000
3.907136e+003,4.810985e+000
3.909065e+003,4.814714e+000
3.910993e+003,4.812455e+000
3.912922e+003,4.809417e+000
3.914850e+003,4.798286e+000
3.916779e+003,4.782069e+000
3.918707e+003,4.784171e+000
3.920636e+003,4.787750e+000
3.922564e+003,4.787721e+000
3.924493e+003,4.779423e+000
3.926421e+003,4.783204e+000
3.928350e+003,4.779941e+000
3.930278e+003,4.770155e+000
3.932207e+003,4.761823e+000
3.934135e+003,4.767490e+000
3.936064e+003,4.768144e+000
3.937992e+003,4.764083e+000
3.939921e+003,4.756810e+000
3.941849e+003,4.745145e+000
3.943778e+003,4.742655e+000
3.945706e+003,4.741860e+000
3.947635e+003,4.732207e+000
3.949563e+003,4.727778e+000
3.951492e+003,4.726035e+000
3.953420e+003,4.723580e+000
3.955349e+003,4.717393e+000
3.957277e+003,4.712016e+000
3.959206e+003,4.705416e+000
3.961134e+003,4.698846e+000
3.963063e+003,4.693464e+000
3.964991e+003,4.689246e+000
3.966920e+003,4.682233e+000
3.968848e+003,4.675215e+000
3.970777e+003,4.667409e+000
3.972705e+003,4.660745e+000
3.974634e+003,4.653917e+000
3.976562e+003,4.648175e+000
3.978491e+003,4.641272e+000
3.980419e+003,4.634885e+000
3.982348e+003,4.627567e+000
3.984276e+003,4.620823e+000
3.986205e+003,4.613461e+000
3.988133e+003,4.605760e+000
3.990062e+003,4.597166e+000
3.991990e+003,4.591362e+000
3.993919e+003,4.583568e+000
3.995847e+003,4.575827e+000
3.997776e+003,4.568363e+000
3.999704e+003,4.560204e+000
4.001633e+003,0.000000e+000
