3.991989e+002,9.181981e-001
4.011274e+002,9.865484e-001
4.030559e+002,1.058743e+000
4.049844e+002,1.126044e+000
4.069129e+002,1.198103e+000
4.088414e+002,1.269638e+000
4.107699e+002,1.345931e+000
4.126984e+002,1.426030e+000
4.146269e+002,1.514876e+000
4.165554e+002,1.587850e+000
4.184839e+002,1.656987e+000
4.204124e+002,1.752532e+000
4.223409e+002,1.852739e+000
4.242694e+002,1.940614e+000
4.261979e+002,2.029535e+000
4.281264e+002,2.112816e+000
4.300549e+002,2.203720e+000
4.319834e+002,2.289332e+000
4.339119e+002,2.371967e+000
4.358404e+002,2.448463e+000
4.377689e+002,2.529943e+000
4.396974e+002,2.602136e+000
4.416259e+002,2.678276e+000
4.435544e+002,2.748105e+000
4.454829e+002,2.814205e+000
4.474114e+002,2.877126e+000
4.493399e+002,2.941433e+000
4.512684e+002,2.996730e+000
4.531969e+002,3.059282e+000
4.551254e+002,3.113714e+000
4.570539e+002,3.165472e+000
4.589824e+002,3.234001e+000
4.609109e+002,3.303074e+000
4.628394e+002,3.356478e+000
4.647679e+002,3.418795e+000
4.666964e+002,3.466002e+000
4.686249e+002,3.526571e+000
4.705533e+002,3.581383e+000
4.724819e+002,3.635998e+000
4.744103e+002,3.702882e+000
4.763389e+002,3.773429e+000
4.782673e+002,3.832416e+000
4.801959e+002,3.914557e+000
4.821243e+002,3.991940e+000
4.840529e+002,4.063617e+000
4.859813e+002,4.134231e+000
4.879099e+002,4.207266e+000
4.898383e+002,4.262281e+000
4.917668e+002,4.322139e+000
4.936953e+002,4.365746e+000
4.956238e+002,4.409233e+000
4.975523e+002,4.451676e+000
4.994808e+002,4.496483e+000
5.014093e+002,4.530809e+000
5.033378e+002,4.592205e+000
5.052663e+002,4.645333e+000
5.071948e+002,4.699201e+000
5.091233e+002,4.756354e+000
5.110518e+002,4.809801e+000
5.129803e+002,4.854266e+000
5.149088e+002,4.907444e+000
5.168373e+002,4.940965e+000
5.187658e+002,4.992568e+000
5.206943e+002,5.048880e+000
5.226228e+002,5.110210e+000
5.245513e+002,5.162443e+000
5.264798e+002,5.229773e+000
5.284083e+002,5.294149e+000
5.303368e+002,5.365261e+000
5.322653e+002,5.423607e+000
5.341938e+002,5.481279e+000
5.361223e+002,5.530938e+000
5.380508e+002,5.588717e+000
5.399792e+002,5.628680e+000
5.419078e+002,5.680387e+000
5.438363e+002,5.718089e+000
5.457648e+002,5.759515e+000
5.476932e+002,5.800910e+000
5.496218e+002,5.849361e+000
5.515503e+002,5.883222e+000
5.534788e+002,5.933825e+000
5.554072e+002,5.968314e+000
5.573358e+002,6.018611e+000
5.592643e+002,6.065635e+000
5.611927e+002,6.123404e+000
5.631212e+002,6.165912e+000
5.650497e+002,6.231256e+000
5.669783e+002,6.275311e+000
5.689067e+002,6.328065e+000
5.708352e+002,6.365592e+000
5.727637e+002,6.411911e+000
5.746923e+002,6.440492e+000
5.766207e+002,6.484646e+000
5.785492e+002,6.510812e+000
5.804777e+002,6.551142e+000
5.824063e+002,6.578940e+000
5.843347e+002,6.619888e+000
5.862632e+002,6.643677e+000
5.881917e+002,6.689320e+000
5.901202e+002,6.734468e+000
5.920487e+002,6.808145e+000
5.939772e+002,6.866074e+000
5.959057e+002,6.939982e+000
5.978342e+002,7.000619e+000
5.997627e+002,7.091244e+000
6.016912e+002,7.151221e+000
6.036197e+002,7.236508e+000
6.055482e+002,7.291393e+000
6.074767e+002,7.375637e+000
6.094052e+002,7.433464e+000
6.113337e+002,7.530045e+000
6.132622e+002,7.607051e+000
6.151907e+002,7.653045e+000
6.171192e+002,7.522954e+000
6.190477e+002,7.701769e+000
6.209762e+002,7.906442e+000
6.229047e+002,7.988671e+000
6.248332e+002,8.038529e+000
6.267617e+002,8.115004e+000
6.286902e+002,8.157359e+000
6.306187e+002,8.224402e+000
6.325472e+002,8.249005e+000
6.344756e+002,8.293057e+000
6.364042e+002,8.282496e+000
6.383326e+002,8.301387e+000
6.402612e+002,8.249585e+000
6.421896e+002,8.224833e+000
6.441182e+002,8.136368e+000
6.460466e+002,8.061009e+000
6.479752e+002,7.842022e+000
6.499036e+002,7.857028e+000
6.518322e+002,7.904209e+000
6.537606e+002,7.959368e+000
6.556891e+002,7.944013e+000
6.576177e+002,8.068837e+000
6.595461e+002,8.140584e+000
6.614746e+002,8.352123e+000
6.634031e+002,8.551046e+000
6.653317e+002,8.085802e+000
6.672601e+002,4.927409e+000
6.691886e+002,4.999339e+000
6.711171e+002,7.775529e+000
6.730457e+002,8.224029e+000
6.749741e+002,8.177369e+000
6.769026e+002,8.052132e+000
6.788311e+002,8.107703e+000
6.807596e+002,8.095108e+000
6.826881e+002,8.242745e+000
6.846166e+002,8.322571e+000
6.865451e+002,8.522458e+000
6.884736e+002,8.639698e+000
6.904021e+002,8.873222e+000
6.923306e+002,9.057758e+000
6.942591e+002,9.299282e+000
6.961876e+002,9.467573e+000
6.981161e+002,9.686874e+000
7.000446e+002,9.832736e+000
7.019731e+002,1.001516e+001
7.039016e+002,1.011963e+001
7.058301e+002,1.026590e+001
7.077585e+002,1.034238e+001
7.096871e+002,1.045614e+001
7.116156e+002,1.050937e+001
7.135441e+002,1.060428e+001
7.154725e+002,1.063617e+001
7.174011e+002,1.064738e+001
7.193296e+002,1.039085e+001
7.212581e+002,1.047197e+001
7.231865e+002,1.076339e+001
7.251151e+002,1.082664e+001
7.270436e+002,1.083387e+001
7.289720e+002,1.085274e+001
7.309005e+002,1.086241e+001
7.328290e+002,1.088535e+001
7.347576e+002,1.089626e+001
7.366860e+002,1.091814e+001
7.386145e+002,1.092609e+001
7.405430e+002,1.093991e+001
7.424716e+002,1.095441e+001
7.444000e+002,1.099210e+001
7.463285e+002,1.100776e+001
7.482570e+002,1.103916e+001
7.501855e+002,1.105348e+001
7.521140e+002,1.108252e+001
7.540425e+002,1.109927e+001
7.559710e+002,1.113251e+001
7.578995e+002,1.115271e+001
7.598280e+002,1.119224e+001
7.617565e+002,1.121930e+001
7.636850e+002,1.125907e+001
7.656135e+002,1.128421e+001
7.675420e+002,1.132323e+001
7.694705e+002,1.135029e+001
7.713990e+002,1.139069e+001
7.733275e+002,1.141479e+001
7.752560e+002,1.145041e+001
7.771844e+002,1.147060e+001
7.791130e+002,1.150404e+001
7.810415e+002,1.152283e+001
7.829700e+002,1.154793e+001
7.848984e+002,1.155485e+001
7.868270e+002,1.156442e+001
7.887555e+002,1.155118e+001
7.906840e+002,1.154660e+001
7.926124e+002,1.152946e+001
7.945410e+002,1.152014e+001
7.964695e+002,1.149765e+001
7.983979e+002,1.149006e+001
8.003264e+002,1.147529e+001
8.022549e+002,1.147689e+001
8.041835e+002,1.147085e+001
8.061119e+002,1.147715e+001
8.080404e+002,1.147785e+001
8.099689e+002,1.148990e+001
8.118975e+002,1.149343e+001
8.138259e+002,1.150889e+001
8.157545e+002,1.150871e+001
8.176830e+002,1.151509e+001
8.196115e+002,1.150933e+001
8.215399e+002,1.151516e+001
8.234684e+002,1.152017e+001
8.253970e+002,1.154494e+001
8.273254e+002,1.156260e+001
8.292539e+002,1.159175e+001
8.311824e+002,1.160859e+001
8.331110e+002,1.163033e+001
8.350394e+002,1.164439e+001
8.369679e+002,1.166699e+001
8.388964e+002,1.168135e+001
8.408250e+002,1.170702e+001
8.427534e+002,1.172344e+001
8.446819e+002,1.175020e+001
8.466104e+002,1.177296e+001
8.485389e+002,1.180746e+001
8.504674e+002,1.183108e+001
8.523959e+002,1.186109e+001
8.543244e+002,1.188172e+001
8.562529e+002,1.191393e+001
8.581814e+002,1.194024e+001
8.601099e+002,1.197315e+001
8.620384e+002,1.199633e+001
8.639669e+002,1.202888e+001
8.658954e+002,1.205437e+001
8.678239e+002,1.209012e+001
8.697524e+002,1.211887e+001
8.716809e+002,1.215430e+001
8.736094e+002,1.218240e+001
8.755378e+002,1.222262e+001
8.774664e+002,1.225622e+001
8.793949e+002,1.229646e+001
8.813234e+002,1.233153e+001
8.832518e+002,1.237216e+001
8.851804e+002,1.240942e+001
8.871089e+002,1.245259e+001
8.890374e+002,1.248406e+001
8.909658e+002,1.252629e+001
8.928943e+002,1.256419e+001
8.948229e+002,1.260848e+001
8.967513e+002,1.264879e+001
8.986798e+002,1.269824e+001
9.006083e+002,1.274234e+001
9.025369e+002,1.279734e+001
9.044653e+002,1.284468e+001
9.063938e+002,1.289807e+001
9.083223e+002,1.294867e+001
9.102509e+002,1.300451e+001
9.121793e+002,1.305181e+001
9.141078e+002,1.310886e+001
9.160364e+002,1.315865e+001
9.179648e+002,1.322011e+001
9.198933e+002,1.328092e+001
9.218218e+002,1.334784e+001
9.237504e+002,1.340830e+001
9.256788e+002,1.347575e+001
9.276073e+002,1.353415e+001
9.295358e+002,1.360004e+001
9.314644e+002,1.366094e+001
9.333928e+002,1.372393e+001
9.353213e+002,1.378104e+001
9.372498e+002,1.384371e+001
9.391783e+002,1.389655e+001
9.411068e+002,1.395539e+001
9.430353e+002,1.400647e+001
9.449637e+002,1.406005e+001
9.468923e+002,1.411024e+001
9.488208e+002,1.416606e+001
9.507493e+002,1.421589e+001
9.526777e+002,1.427409e+001
9.546063e+002,1.432315e+001
9.565348e+002,1.437630e+001
9.584633e+002,1.442717e+001
9.603917e+002,1.448348e+001
9.623203e+002,1.453545e+001
9.642488e+002,1.460207e+001
9.661772e+002,1.466583e+001
9.681057e+002,1.473657e+001
9.700343e+002,1.480376e+001
9.719628e+002,1.487156e+001
9.738912e+002,1.493718e+001
9.758197e+002,1.501703e+001
9.777483e+002,1.508630e+001
9.796768e+002,1.515215e+001
9.816052e+002,1.520936e+001
9.835337e+002,1.526816e+001
9.854623e+002,1.532256e+001
9.873907e+002,1.538486e+001
9.893192e+002,1.543957e+001
9.912477e+002,1.550129e+001
9.931763e+002,1.555921e+001
9.951047e+002,1.562055e+001
9.970332e+002,1.567520e+001
9.989617e+002,1.573262e+001
1.000890e+003,1.577658e+001
1.002819e+003,1.582119e+001
1.004747e+003,1.585403e+001
1.006676e+003,1.587962e+001
1.008604e+003,1.589441e+001
1.010533e+003,1.591324e+001
1.012461e+003,1.592367e+001
1.014390e+003,1.593974e+001
1.016318e+003,1.595252e+001
1.018247e+003,1.597127e+001
1.020175e+003,1.599145e+001
1.022104e+003,1.602106e+001
1.024032e+003,1.604584e+001
1.025961e+003,1.608090e+001
1.027889e+003,1.611142e+001
1.029818e+003,1.614821e+001
1.031746e+003,1.618503e+001
1.033675e+003,1.622758e+001
1.035603e+003,1.626395e+001
1.037532e+003,1.630492e+001
1.039460e+003,1.633071e+001
1.041389e+003,1.635226e+001
1.043317e+003,1.636350e+001
1.045246e+003,1.637362e+001
1.047174e+003,1.638057e+001
1.049103e+003,1.639592e+001
1.051031e+003,1.640635e+001
1.052960e+003,1.642581e+001
1.054888e+003,1.644429e+001
1.056817e+003,1.646578e+001
1.058745e+003,1.648666e+001
1.060674e+003,1.651671e+001
1.062602e+003,1.654407e+001
1.064531e+003,1.657646e+001
1.066459e+003,1.660008e+001
1.068388e+003,1.662237e+001
1.070316e+003,1.663761e+001
1.072245e+003,1.664853e+001
1.074173e+003,1.664703e+001
1.076102e+003,1.667357e+001
1.078030e+003,1.671625e+001
1.079959e+003,1.676323e+001
1.081887e+003,1.682717e+001
1.083816e+003,1.690087e+001
1.085744e+003,1.694776e+001
1.087673e+003,1.698578e+001
1.089601e+003,1.701005e+001
1.091530e+003,1.703190e+001
1.093458e+003,1.705100e+001
1.095387e+003,1.707498e+001
1.097315e+003,1.710026e+001
1.099244e+003,1.713660e+001
1.101172e+003,1.716904e+001
1.103101e+003,1.720914e+001
1.105029e+003,1.725306e+001
1.106958e+003,1.730652e+001
1.108886e+003,1.736258e+001
1.110815e+003,1.743047e+001
1.112743e+003,1.750196e+001
1.114672e+003,1.758928e+001
1.116600e+003,1.767486e+001
1.118529e+003,1.775994e+001
1.120457e+003,1.784067e+001
1.122386e+003,1.792576e+001
1.124314e+003,1.800585e+001
1.126243e+003,1.809235e+001
1.128171e+003,1.816731e+001
1.130100e+003,1.823411e+001
1.132028e+003,1.829099e+001
1.133957e+003,1.834269e+001
1.135885e+003,1.837545e+001
1.137814e+003,1.839806e+001
1.139742e+003,1.839237e+001
1.141671e+003,1.838572e+001
1.143599e+003,1.841937e+001
1.145528e+003,1.847536e+001
1.147456e+003,1.851518e+001
1.149385e+003,1.855397e+001
1.151313e+003,1.860846e+001
1.153242e+003,1.869787e+001
1.155170e+003,1.878398e+001
1.157099e+003,1.886044e+001
1.159027e+003,1.892926e+001
1.160956e+003,1.900683e+001
1.162884e+003,1.908222e+001
1.164813e+003,1.916921e+001
1.166741e+003,1.926360e+001
1.168670e+003,1.935824e+001
1.170598e+003,1.943485e+001
1.172526e+003,1.949917e+001
1.174455e+003,1.953956e+001
1.176384e+003,1.955116e+001
1.178312e+003,1.949167e+001
1.180240e+003,1.943039e+001
1.182169e+003,1.954608e+001
1.184098e+003,1.971864e+001
1.186026e+003,1.978686e+001
1.187954e+003,1.982584e+001
1.189883e+003,1.984914e+001
1.191812e+003,1.987350e+001
1.193740e+003,1.989629e+001
1.195668e+003,1.992919e+001
1.197597e+003,1.995835e+001
1.199526e+003,2.000228e+001
1.201454e+003,2.004238e+001
1.203382e+003,2.008927e+001
1.205311e+003,2.013511e+001
1.207240e+003,2.018405e+001
1.209168e+003,2.022348e+001
1.211096e+003,2.026616e+001
1.213025e+003,2.029607e+001
1.214953e+003,2.033025e+001
1.216882e+003,2.035983e+001
1.218810e+003,2.039178e+001
1.220739e+003,2.041947e+001
1.222667e+003,2.045576e+001
1.224596e+003,2.048294e+001
1.226524e+003,2.051850e+001
1.228453e+003,2.055012e+001
1.230381e+003,2.058482e+001
1.232310e+003,2.061615e+001
1.234238e+003,2.065441e+001
1.236167e+003,2.068174e+001
1.238095e+003,2.071428e+001
1.240024e+003,2.073936e+001
1.241952e+003,2.076542e+001
1.243881e+003,2.078556e+001
1.245809e+003,2.080937e+001
1.247738e+003,2.082643e+001
1.249666e+003,2.085369e+001
1.251595e+003,2.086679e+001
1.253523e+003,2.087035e+001
1.255452e+003,2.085893e+001
1.257380e+003,2.083780e+001
1.259309e+003,2.079436e+001
1.261237e+003,2.077053e+001
1.263166e+003,2.076970e+001
1.265094e+003,2.081364e+001
1.267023e+003,2.090097e+001
1.268951e+003,2.101811e+001
1.270880e+003,2.111253e+001
1.272808e+003,2.119294e+001
1.274737e+003,2.124674e+001
1.276665e+003,2.129457e+001
1.278594e+003,2.133623e+001
1.280522e+003,2.136740e+001
1.282451e+003,2.138801e+001
1.284379e+003,2.141880e+001
1.286308e+003,2.142856e+001
1.288236e+003,2.143704e+001
1.290165e+003,2.144966e+001
1.292093e+003,2.146095e+001
1.294022e+003,2.146392e+001
1.295950e+003,2.147304e+001
1.297879e+003,2.147388e+001
1.299807e+003,2.148165e+001
1.301736e+003,2.147639e+001
1.303664e+003,2.146792e+001
1.305593e+003,2.147109e+001
1.307521e+003,2.151680e+001
1.309450e+003,2.154070e+001
1.311378e+003,2.155200e+001
1.313307e+003,2.155961e+001
1.315235e+003,2.157662e+001
1.317164e+003,2.158117e+001
1.319092e+003,2.159371e+001
1.321021e+003,2.160762e+001
1.322949e+003,2.162612e+001
1.324878e+003,2.163050e+001
1.326806e+003,2.162994e+001
1.328735e+003,2.163370e+001
1.330663e+003,2.162009e+001
1.332592e+003,2.160934e+001
1.334520e+003,2.166620e+001
1.336449e+003,2.166904e+001
1.338377e+003,2.164768e+001
1.340306e+003,2.164364e+001
1.342234e+003,2.167215e+001
1.344163e+003,2.167398e+001
1.346091e+003,2.166889e+001
1.348020e+003,2.165526e+001
1.349948e+003,2.165316e+001
1.351877e+003,2.164123e+001
1.353805e+003,2.163687e+001
1.355734e+003,2.163196e+001
1.357662e+003,2.164074e+001
1.359591e+003,2.160661e+001
1.361519e+003,2.155198e+001
1.363448e+003,2.155166e+001
1.365376e+003,2.161874e+001
1.367305e+003,2.161436e+001
1.369233e+003,2.161199e+001
1.371162e+003,2.159932e+001
1.373090e+003,2.154217e+001
1.375019e+003,2.151800e+001
1.376947e+003,2.155786e+001
1.378876e+003,2.153604e+001
1.380804e+003,2.148825e+001
1.382733e+003,2.135838e+001
1.384661e+003,2.130545e+001
1.386590e+003,2.129987e+001
1.388518e+003,2.141885e+001
1.390447e+003,2.153259e+001
1.392375e+003,2.149745e+001
1.394304e+003,2.137955e+001
1.396232e+003,2.142059e+001
1.398161e+003,2.141149e+001
1.400089e+003,2.143446e+001
1.402018e+003,2.150061e+001
1.403946e+003,2.146087e+001
1.405875e+003,2.146123e+001
1.407803e+003,2.150731e+001
1.409732e+003,2.150629e+001
1.411660e+003,2.151120e+001
1.413589e+003,2.151662e+001
1.415517e+003,2.149665e+001
1.417446e+003,2.132974e+001
1.419374e+003,2.119928e+001
1.421303e+003,2.142154e+001
1.423231e+003,2.150537e+001
1.425160e+003,2.151912e+001
1.427088e+003,2.154613e+001
1.429017e+003,2.148976e+001
1.430945e+003,2.149750e+001
1.432874e+003,2.152484e+001
1.434802e+003,2.137609e+001
1.436731e+003,2.117534e+001
1.438659e+003,2.139714e+001
1.440588e+003,2.148754e+001
1.442516e+003,2.147015e+001
1.444445e+003,2.142601e+001
1.446373e+003,2.135731e+001
1.448302e+003,2.128422e+001
1.450230e+003,2.133543e+001
1.452159e+003,2.129152e+001
1.454087e+003,2.116446e+001
1.456016e+003,2.070301e+001
1.457944e+003,2.074619e+001
1.459873e+003,2.112639e+001
1.461801e+003,2.122977e+001
1.463730e+003,2.109414e+001
1.465658e+003,2.107937e+001
1.467587e+003,2.120844e+001
1.469515e+003,2.116771e+001
1.471444e+003,2.090595e+001
1.473372e+003,2.084230e+001
1.475301e+003,2.101936e+001
1.477229e+003,2.110810e+001
1.479158e+003,2.118858e+001
1.481086e+003,2.116155e+001
1.483015e+003,2.117081e+001
1.484943e+003,2.112053e+001
1.486872e+003,2.101167e+001
1.488800e+003,2.090807e+001
1.490729e+003,2.091110e+001
1.492657e+003,2.103948e+001
1.494586e+003,2.090148e+001
1.496514e+003,2.070763e+001
1.498443e+003,2.081541e+001
1.500371e+003,2.092592e+001
1.502300e+003,2.096687e+001
1.504228e+003,2.062304e+001
1.506157e+003,2.015671e+001
1.508085e+003,2.039364e+001
1.510014e+003,2.073585e+001
1.511942e+003,2.075046e+001
1.513871e+003,2.076098e+001
1.515799e+003,2.063637e+001
1.517728e+003,2.057878e+001
1.519656e+003,2.039801e+001
1.521585e+003,2.020389e+001
1.523513e+003,2.043960e+001
1.525442e+003,2.045572e+001
1.527370e+003,2.049642e+001
1.529299e+003,2.053633e+001
1.531227e+003,2.047284e+001
1.533156e+003,2.027231e+001
1.535084e+003,2.035896e+001
1.537013e+003,2.021173e+001
1.538941e+003,1.966736e+001
1.540870e+003,1.965150e+001
1.542798e+003,1.994519e+001
1.544727e+003,2.007278e+001
1.546655e+003,2.018780e+001
1.548584e+003,2.017216e+001
1.550512e+003,2.011375e+001
1.552441e+003,2.001947e+001
1.554369e+003,1.984887e+001
1.556298e+003,1.966805e+001
1.558226e+003,1.912231e+001
1.560155e+003,1.921918e+001
1.562083e+003,1.977737e+001
1.564012e+003,1.986083e+001
1.565940e+003,1.982544e+001
1.567869e+003,1.969448e+001
1.569797e+003,1.955210e+001
1.571726e+003,1.966483e+001
1.573654e+003,1.956726e+001
1.575583e+003,1.915751e+001
1.577511e+003,1.927990e+001
1.579440e+003,1.951686e+001
1.581368e+003,1.946724e+001
1.583297e+003,1.942458e+001
1.585225e+003,1.935990e+001
1.587154e+003,1.931300e+001
1.589082e+003,1.924178e+001
1.591010e+003,1.918954e+001
1.592939e+003,1.911506e+001
1.594868e+003,1.905262e+001
1.596796e+003,1.898954e+001
1.598724e+003,1.893668e+001
1.600653e+003,1.885668e+001
1.602582e+003,1.878688e+001
1.604510e+003,1.871000e+001
1.606438e+003,1.863198e+001
1.608367e+003,1.853057e+001
1.610296e+003,1.846066e+001
1.612224e+003,1.838735e+001
1.614152e+003,1.820588e+001
1.616081e+003,1.779475e+001
1.618010e+003,1.781229e+001
1.619938e+003,1.795234e+001
1.621866e+003,1.781709e+001
1.623795e+003,1.774038e+001
1.625724e+003,1.777765e+001
1.627652e+003,1.771800e+001
1.629580e+003,1.769166e+001
1.631509e+003,1.765884e+001
1.633438e+003,1.741047e+001
1.635366e+003,1.708475e+001
1.637294e+003,1.721568e+001
1.639223e+003,1.734582e+001
1.641151e+003,1.729573e+001
1.643080e+003,1.719781e+001
1.645008e+003,1.689623e+001
1.646937e+003,1.676117e+001
1.648865e+003,1.689512e+001
1.650794e+003,1.659794e+001
1.652722e+003,1.600040e+001
1.654651e+003,1.633139e+001
1.656579e+003,1.670267e+001
1.658508e+003,1.668693e+001
1.660436e+003,1.657458e+001
1.662365e+003,1.641428e+001
1.664293e+003,1.640865e+001
1.666222e+003,1.638320e+001
1.668150e+003,1.615572e+001
1.670079e+003,1.604108e+001
1.672007e+003,1.607911e+001
1.673936e+003,1.593295e+001
1.675864e+003,1.581945e+001
1.677793e+003,1.591626e+001
1.679721e+003,1.582613e+001
1.681650e+003,1.566301e+001
1.683578e+003,1.520403e+001
1.685507e+003,1.521018e+001
1.687435e+003,1.547490e+001
1.689364e+003,1.544014e+001
1.691292e+003,1.538030e+001
1.693221e+003,1.522707e+001
1.695149e+003,1.480921e+001
1.697078e+003,1.479603e+001
1.699006e+003,1.465306e+001
1.700935e+003,1.451762e+001
1.702863e+003,1.477723e+001
1.704792e+003,1.467225e+001
1.706720e+003,1.463502e+001
1.708649e+003,1.458779e+001
1.710577e+003,1.453604e+001
1.712506e+003,1.439436e+001
1.714434e+003,1.420895e+001
1.716363e+003,1.390998e+001
1.718291e+003,1.384502e+001
1.720220e+003,1.399769e+001
1.722148e+003,1.397327e+001
1.724077e+003,1.387306e+001
1.726005e+003,1.379684e+001
1.727934e+003,1.368308e+001
1.729862e+003,1.356389e+001
1.731791e+003,1.334265e+001
1.733719e+003,1.303790e+001
1.735648e+003,1.313485e+001
1.737576e+003,1.320848e+001
1.739505e+003,1.305421e+001
1.741433e+003,1.303345e+001
1.743362e+003,1.298154e+001
1.745290e+003,1.291850e+001
1.747219e+003,1.280690e+001
1.749147e+003,1.267730e+001
1.751076e+003,1.253667e+001
1.753004e+003,1.255583e+001
1.754933e+003,1.249948e+001
1.756861e+003,1.237817e+001
1.758790e+003,1.230957e+001
1.760718e+003,1.216843e+001
1.762647e+003,1.206511e+001
1.764575e+003,1.203108e+001
1.766504e+003,1.188114e+001
1.768432e+003,1.173630e+001
1.770361e+003,1.158121e+001
1.772289e+003,1.137189e+001
1.774218e+003,1.133422e+001
1.776146e+003,1.125473e+001
1.778075e+003,1.111099e+001
1.780003e+003,1.098807e+001
1.781932e+003,1.089926e+001
1.783860e+003,1.079927e+001
1.785789e+003,1.070356e+001
1.787717e+003,1.063314e+001
1.789646e+003,1.049895e+001
1.791574e+003,1.032228e+001
1.793503e+003,1.023524e+001
1.795431e+003,1.020140e+001
1.797360e+003,1.008173e+001
1.799288e+003,9.946919e+000
1.801217e+003,9.809593e+000
1.803145e+003,9.703598e+000
1.805074e+003,9.563655e+000
1.807002e+003,9.409258e+000
1.808931e+003,9.216254e+000
1.810859e+003,9.017818e+000
1.812788e+003,8.791334e+000
1.814716e+003,8.501561e+000
1.816645e+003,8.083652e+000
1.818573e+003,7.741545e+000
1.820502e+003,7.553313e+000
1.822430e+003,7.437464e+000
1.824359e+003,7.306895e+000
1.826287e+003,7.200185e+000
1.828216e+003,7.069801e+000
1.830144e+003,6.934130e+000
1.832073e+003,6.835051e+000
1.834001e+003,6.716154e+000
1.835930e+003,6.574965e+000
1.837858e+003,6.442838e+000
1.839787e+003,6.312177e+000
1.841715e+003,6.170463e+000
1.843644e+003,5.998031e+000
1.845572e+003,5.902609e+000
1.847501e+003,5.815789e+000
1.849429e+003,5.709115e+000
1.851358e+003,5.600504e+000
1.853286e+003,5.495214e+000
1.855215e+003,5.391820e+000
1.857143e+003,5.293601e+000
1.859072e+003,5.194654e+000
1.861000e+003,5.102430e+000
1.862929e+003,5.009860e+000
1.864857e+003,4.918044e+000
1.866786e+003,4.814442e+000
1.868714e+003,4.712866e+000
1.870643e+003,4.637033e+000
1.872571e+003,4.564929e+000
1.874500e+003,4.475873e+000
1.876428e+003,4.390201e+000
1.878357e+003,4.300619e+000
1.880285e+003,4.214813e+000
1.882214e+003,4.125351e+000
1.884142e+003,4.040573e+000
1.886071e+003,3.954285e+000
1.887999e+003,3.867157e+000
1.889928e+003,3.778635e+000
1.891856e+003,3.705446e+000
1.893785e+003,3.621266e+000
1.895713e+003,3.541701e+000
1.897642e+003,3.462035e+000
1.899570e+003,3.386971e+000
1.901499e+003,3.307202e+000
1.903427e+003,3.233224e+000
1.905356e+003,3.156345e+000
1.907284e+003,3.081824e+000
1.909213e+003,3.003518e+000
1.911141e+003,2.934354e+000
1.913070e+003,2.861444e+000
1.914998e+003,2.791339e+000
1.916927e+003,2.710280e+000
1.918855e+003,2.646254e+000
1.920784e+003,2.586028e+000
1.922712e+003,2.502027e+000
1.924641e+003,2.403732e+000
1.926569e+003,2.309143e+000
1.928498e+003,2.212981e+000
1.930426e+003,2.124200e+000
1.932355e+003,2.036133e+000
1.934283e+003,1.954015e+000
1.936212e+003,1.870281e+000
1.938140e+003,1.793128e+000
1.940069e+003,1.714267e+000
1.941997e+003,1.639023e+000
1.943926e+003,1.568335e+000
1.945854e+003,1.503073e+000
1.947783e+003,1.433311e+000
1.949711e+003,1.369513e+000
1.951640e+003,1.306771e+000
1.953568e+003,1.247779e+000
1.955497e+003,1.178283e+000
1.957425e+003,1.088671e+000
1.959354e+003,9.969250e-001
1.961282e+003,9.423447e-001
1.963211e+003,8.971359e-001
1.965139e+003,8.584495e-001
1.967068e+003,8.172034e-001
1.968996e+003,7.819821e-001
1.970925e+003,7.445316e-001
1.972853e+003,7.116832e-001
1.974782e+003,6.779498e-001
1.976710e+003,6.544912e-001
1.978639e+003,6.759713e-001
1.980567e+003,7.542074e-001
1.982496e+003,8.133829e-001
1.984424e+003,8.523382e-001
1.986353e+003,8.754416e-001
1.988281e+003,8.950210e-001
1.990210e+003,9.041181e-001
1.992138e+003,9.112353e-001
1.994067e+003,9.123966e-001
1.995995e+003,9.112231e-001
1.997924e+003,8.968430e-001
1.999852e+003,8.757726e-001
2.001781e+003,8.385352e-001
2.003709e+003,7.917888e-001
2.005638e+003,7.302549e-001
2.007566e+003,6.918433e-001
2.009495e+003,6.835889e-001
2.011423e+003,6.820630e-001
2.013352e+003,6.727468e-001
2.015280e+003,6.645749e-001
2.017208e+003,6.534854e-001
2.019137e+003,6.450969e-001
2.021066e+003,6.351840e-001
2.022994e+003,6.294138e-001
2.024922e+003,6.210206e-001
2.026851e+003,6.166416e-001
2.028780e+003,6.109231e-001
2.030708e+003,6.126187e-001
2.032636e+003,6.140360e-001
2.034565e+003,6.318818e-001
2.036494e+003,6.682810e-001
2.038422e+003,7.136452e-001
2.040350e+003,7.518170e-001
2.042279e+003,7.904117e-001
2.044208e+003,8.246225e-001
2.046136e+003,8.614943e-001
2.048064e+003,9.059136e-001
2.049993e+003,1.004398e+000
2.051921e+003,1.132322e+000
2.053850e+003,1.194376e+000
2.055778e+003,1.238103e+000
2.057707e+003,1.286748e+000
2.059635e+003,1.319426e+000
2.061564e+003,1.350584e+000
2.063492e+003,1.379572e+000
2.065421e+003,1.413627e+000
2.067349e+003,1.447302e+000
2.069278e+003,1.485004e+000
2.071206e+003,1.523559e+000
2.073135e+003,1.568436e+000
2.075063e+003,1.612922e+000
2.076992e+003,1.662158e+000
2.078920e+003,1.713366e+000
2.080849e+003,1.767541e+000
2.082777e+003,1.813500e+000
2.084706e+003,1.853543e+000
2.086634e+003,1.880419e+000
2.088563e+003,1.900385e+000
2.090491e+003,1.902233e+000
2.092420e+003,1.882907e+000
2.094348e+003,1.835037e+000
2.096277e+003,1.812225e+000
2.098205e+003,1.823382e+000
2.100134e+003,1.845880e+000
2.102062e+003,1.864909e+000
2.103991e+003,1.883241e+000
2.105919e+003,1.897810e+000
2.107848e+003,1.914450e+000
2.109776e+003,1.930596e+000
2.111705e+003,1.950507e+000
2.113633e+003,1.970434e+000
2.115562e+003,1.984729e+000
2.117490e+003,1.975169e+000
2.119419e+003,1.947864e+000
2.121347e+003,1.906092e+000
2.123276e+003,1.852221e+000
2.125204e+003,1.782011e+000
2.127133e+003,1.699406e+000
2.129061e+003,1.599290e+000
2.130990e+003,1.482319e+000
2.132918e+003,1.344522e+000
2.134847e+003,1.221170e+000
2.136775e+003,1.135837e+000
2.138704e+003,1.071585e+000
2.140632e+003,1.008724e+000
2.142561e+003,9.463877e-001
2.144489e+003,8.818254e-001
2.146418e+003,8.224204e-001
2.148346e+003,7.691884e-001
2.150275e+003,7.212996e-001
2.152203e+003,6.665083e-001
2.154132e+003,6.022937e-001
2.156060e+003,5.244685e-001
2.157989e+003,4.480846e-001
2.159917e+003,4.312853e-001
2.161846e+003,4.826873e-001
2.163774e+003,5.335913e-001
2.165703e+003,5.803454e-001
2.167631e+003,6.256729e-001
2.169560e+003,6.654840e-001
2.171488e+003,6.865712e-001
2.173417e+003,6.939123e-001
2.175345e+003,6.925354e-001
2.177274e+003,7.044312e-001
2.179202e+003,7.144051e-001
2.181131e+003,7.174210e-001
2.183059e+003,7.291226e-001
2.184988e+003,7.593932e-001
2.186916e+003,7.896789e-001
2.188845e+003,8.217124e-001
2.190773e+003,8.494107e-001
2.192702e+003,8.774918e-001
2.194630e+003,9.017441e-001
2.196559e+003,9.262006e-001
2.198487e+003,9.481776e-001
2.200416e+003,9.712450e-001
2.202344e+003,9.912992e-001
2.204273e+003,1.013814e+000
2.206201e+003,1.033375e+000
2.208130e+003,1.054347e+000
2.210058e+003,1.073522e+000
2.211987e+003,1.095518e+000
2.213915e+003,1.117395e+000
2.215844e+003,1.141845e+000
2.217772e+003,1.163909e+000
2.219701e+003,1.189756e+000
2.221629e+003,1.215509e+000
2.223558e+003,1.245196e+000
2.225486e+003,1.273907e+000
2.227415e+003,1.304899e+000
2.229343e+003,1.335063e+000
2.231272e+003,1.369611e+000
2.233200e+003,1.404022e+000
2.235129e+003,1.440803e+000
2.237057e+003,1.477310e+000
2.238986e+003,1.516662e+000
2.240914e+003,1.554506e+000
2.242843e+003,1.595311e+000
2.244771e+003,1.633442e+000
2.246700e+003,1.672129e+000
2.248628e+003,1.708223e+000
2.250557e+003,1.744310e+000
2.252485e+003,1.772251e+000
2.254414e+003,1.801423e+000
2.256342e+003,1.845362e+000
2.258271e+003,1.904506e+000
2.260199e+003,1.956962e+000
2.262128e+003,2.005077e+000
2.264056e+003,2.048368e+000
2.265985e+003,2.097990e+000
2.267913e+003,2.160076e+000
2.269842e+003,2.235677e+000
2.271770e+003,2.315123e+000
2.273699e+003,2.403169e+000
2.275627e+003,2.498275e+000
2.277556e+003,2.608588e+000
2.279484e+003,2.732088e+000
2.281413e+003,2.875532e+000
2.283341e+003,3.025933e+000
2.285270e+003,3.174216e+000
2.287198e+003,3.313355e+000
2.289127e+003,3.444947e+000
2.291055e+003,3.561985e+000
2.292984e+003,3.660187e+000
2.294912e+003,3.737699e+000
2.296841e+003,3.799361e+000
2.298769e+003,3.841158e+000
2.300698e+003,3.867114e+000
2.302626e+003,3.880310e+000
2.304555e+003,3.856849e+000
2.306483e+003,3.781677e+000
2.308412e+003,3.690522e+000
2.310340e+003,3.593525e+000
2.312269e+003,3.516300e+000
2.314197e+003,3.483473e+000
2.316125e+003,3.425731e+000
2.318054e+003,3.264636e+000
2.319983e+003,3.088944e+000
2.321911e+003,3.006419e+000
2.323840e+003,3.087866e+000
2.325768e+003,3.190675e+000
2.327697e+003,3.059421e+000
2.329625e+003,2.843425e+000
2.331553e+003,2.733279e+000
2.333482e+003,2.720143e+000
2.335411e+003,2.648713e+000
2.337339e+003,2.557711e+000
2.339268e+003,2.492641e+000
2.341196e+003,2.449562e+000
2.343125e+003,2.503614e+000
2.345053e+003,2.766207e+000
2.346981e+003,3.576957e+000
2.348910e+003,4.072514e+000
2.350839e+003,3.324416e+000
2.352767e+003,2.492932e+000
2.354696e+003,1.985105e+000
2.356624e+003,1.686635e+000
2.358552e+003,1.522077e+000
2.360481e+003,1.474578e+000
2.362409e+003,1.494370e+000
2.364338e+003,1.577943e+000
2.366267e+003,1.729719e+000
2.368195e+003,1.954142e+000
2.370124e+003,2.253633e+000
2.372052e+003,2.628729e+000
2.373980e+003,3.070402e+000
2.375909e+003,3.568635e+000
2.377838e+003,4.106069e+000
2.379766e+003,4.648575e+000
2.381695e+003,5.125978e+000
2.383623e+003,5.461754e+000
2.385552e+003,5.628339e+000
2.387480e+003,5.661229e+000
2.389408e+003,5.616954e+000
2.391337e+003,5.539320e+000
2.393266e+003,5.451294e+000
2.395194e+003,5.362330e+000
2.397123e+003,5.275440e+000
2.399051e+003,5.190100e+000
2.400979e+003,5.107289e+000
2.402908e+003,5.024266e+000
2.404836e+003,4.938670e+000
2.406765e+003,4.860438e+000
2.408694e+003,4.809024e+000
2.410622e+003,4.770741e+000
2.412551e+003,4.730161e+000
2.414479e+003,4.685994e+000
2.416407e+003,4.640443e+000
2.418336e+003,4.594972e+000
2.420264e+003,4.553258e+000
2.422193e+003,4.513269e+000
2.424122e+003,4.476233e+000
2.426050e+003,4.441349e+000
2.427979e+003,4.409893e+000
2.429907e+003,4.380687e+000
2.431835e+003,4.354249e+000
2.433764e+003,4.331171e+000
2.435692e+003,4.312676e+000
2.437621e+003,4.295821e+000
2.439550e+003,4.282566e+000
2.441478e+003,4.272340e+000
2.443406e+003,4.266020e+000
2.445335e+003,4.262525e+000
2.447263e+003,4.263977e+000
2.449192e+003,4.268892e+000
2.451121e+003,4.278726e+000
2.453049e+003,4.291227e+000
2.454978e+003,4.306957e+000
2.456906e+003,4.319828e+000
2.458834e+003,4.326759e+000
2.460763e+003,4.326871e+000
2.462691e+003,4.322274e+000
2.464620e+003,4.312500e+000
2.466549e+003,4.301579e+000
2.468477e+003,4.288675e+000
2.470406e+003,4.275776e+000
2.472334e+003,4.261259e+000
2.474262e+003,4.246931e+000
2.476191e+003,4.232282e+000
2.478119e+003,4.218768e+000
2.480048e+003,4.204848e+000
2.481977e+003,4.192642e+000
2.483905e+003,4.180108e+000
2.485833e+003,4.170232e+000
2.487762e+003,4.161118e+000
2.489690e+003,4.153228e+000
2.491619e+003,4.147332e+000
2.493547e+003,4.144031e+000
2.495476e+003,4.139402e+000
2.497405e+003,4.135367e+000
2.499333e+003,4.130265e+000
2.501261e+003,4.125304e+000
2.503190e+003,4.119372e+000
2.505118e+003,4.114035e+000
2.507047e+003,4.108016e+000
2.508975e+003,4.103764e+000
2.510904e+003,4.099123e+000
2.512833e+003,4.095301e+000
2.514761e+003,4.091990e+000
2.516689e+003,4.090274e+000
2.518618e+003,4.087990e+000
2.520546e+003,4.086631e+000
2.522475e+003,4.085587e+000
2.524403e+003,4.086213e+000
2.526332e+003,4.087240e+000
2.528260e+003,4.089120e+000
2.530189e+003,4.092451e+000
2.532117e+003,4.097668e+000
2.534046e+003,4.101458e+000
2.535974e+003,4.107549e+000
2.537903e+003,4.114459e+000
2.539831e+003,4.122992e+000
2.541760e+003,4.131976e+000
2.543688e+003,4.142729e+000
2.545617e+003,4.154545e+000
2.547545e+003,4.168252e+000
2.549474e+003,4.183583e+000
2.551402e+003,4.200645e+000
2.553331e+003,4.218196e+000
2.555259e+003,4.238131e+000
2.557188e+003,4.259375e+000
2.559116e+003,4.282634e+000
2.561045e+003,4.307732e+000
2.562973e+003,4.334779e+000
2.564902e+003,4.362604e+000
2.566830e+003,4.393943e+000
2.568759e+003,4.426759e+000
2.570687e+003,4.462416e+000
2.572616e+003,4.500029e+000
2.574544e+003,4.539661e+000
2.576473e+003,4.580488e+000
2.578401e+003,4.625357e+000
2.580330e+003,4.672308e+000
2.582258e+003,4.722515e+000
2.584187e+003,4.775595e+000
2.586115e+003,4.831057e+000
2.588044e+003,4.889731e+000
2.589972e+003,4.952548e+000
2.591901e+003,5.016913e+000
2.593829e+003,5.084657e+000
2.595758e+003,5.156507e+000
2.597686e+003,5.233277e+000
2.599615e+003,5.312325e+000
2.601543e+003,5.395958e+000
2.603472e+003,5.484601e+000
2.605400e+003,5.577451e+000
2.607329e+003,5.673818e+000
2.609257e+003,5.776159e+000
2.611186e+003,5.882723e+000
2.613114e+003,5.995095e+000
2.615043e+003,6.111970e+000
2.616971e+003,6.233369e+000
2.618900e+003,6.360821e+000
2.620828e+003,6.495394e+000
2.622757e+003,6.634701e+000
2.624685e+003,6.781240e+000
2.626614e+003,6.934144e+000
2.628542e+003,7.093271e+000
2.630471e+003,7.257418e+000
2.632399e+003,7.429655e+000
2.634328e+003,7.607831e+000
2.636256e+003,7.793103e+000
2.638185e+003,7.983324e+000
2.640113e+003,8.179634e+000
2.642042e+003,8.381484e+000
2.643970e+003,8.588039e+000
2.645899e+003,8.797998e+000
2.647827e+003,9.010963e+000
2.649756e+003,9.224581e+000
2.651684e+003,9.438602e+000
2.653613e+003,9.646983e+000
2.655541e+003,9.848921e+000
2.657470e+003,1.003785e+001
2.659398e+003,1.020864e+001
2.661327e+003,1.034947e+001
2.663255e+003,1.044863e+001
2.665184e+003,1.049853e+001
2.667112e+003,1.051245e+001
2.669041e+003,1.051070e+001
2.670969e+003,1.050312e+001
2.672898e+003,1.049116e+001
2.674826e+003,1.047803e+001
2.676755e+003,1.046241e+001
2.678683e+003,1.044651e+001
2.680612e+003,1.042900e+001
2.682540e+003,1.041110e+001
2.684469e+003,1.039200e+001
2.686397e+003,1.037348e+001
2.688326e+003,1.035534e+001
2.690254e+003,1.033658e+001
2.692183e+003,1.031724e+001
2.694111e+003,1.029963e+001
2.696040e+003,1.028106e+001
2.697968e+003,1.026295e+001
2.699897e+003,1.024338e+001
2.701825e+003,1.022555e+001
2.703754e+003,1.020694e+001
2.705682e+003,1.018772e+001
2.707611e+003,1.016875e+001
2.709539e+003,1.015107e+001
2.711468e+003,1.013275e+001
2.713396e+003,1.011433e+001
2.715325e+003,1.009508e+001
2.717253e+003,1.007726e+001
2.719182e+003,1.005942e+001
2.721110e+003,1.004177e+001
2.723039e+003,1.002310e+001
2.724967e+003,1.000616e+001
2.726896e+003,9.987204e+000
2.728824e+003,9.968115e+000
2.730753e+003,9.950632e+000
2.732681e+003,9.933915e+000
2.734610e+003,9.916190e+000
2.736538e+003,9.898458e+000
2.738467e+003,9.880126e+000
2.740395e+003,9.861523e+000
2.742324e+003,9.843237e+000
2.744252e+003,9.825937e+000
2.746181e+003,9.808216e+000
2.748109e+003,9.790030e+000
2.750038e+003,9.770894e+000
2.751966e+003,9.751808e+000
2.753895e+003,9.732899e+000
2.755823e+003,9.715256e+000
2.757752e+003,9.696613e+000
2.759680e+003,9.677063e+000
2.761609e+003,9.656811e+000
2.763537e+003,9.638371e+000
2.765466e+003,9.620762e+000
2.767394e+003,9.602549e+000
2.769323e+003,9.582809e+000
2.771251e+003,9.563453e+000
2.773180e+003,9.544607e+000
2.775108e+003,9.525846e+000
2.777037e+003,9.504391e+000
2.778965e+003,9.484779e+000
2.780894e+003,9.465595e+000
2.782822e+003,9.446403e+000
2.784750e+003,9.427625e+000
2.786679e+003,9.409241e+000
2.788608e+003,9.391484e+000
2.790536e+003,9.371555e+000
2.792465e+003,9.351242e+000
2.794393e+003,9.331921e+000
2.796322e+003,9.312259e+000
2.798250e+003,9.293556e+000
2.800178e+003,9.273225e+000
2.802107e+003,9.253150e+000
2.804036e+003,9.233527e+000
2.805964e+003,9.213870e+000
2.807893e+003,9.194494e+000
2.809821e+003,9.175418e+000
2.811750e+003,9.154515e+000
2.813678e+003,9.134642e+000
2.815606e+003,9.114212e+000
2.817535e+003,9.093792e+000
2.819464e+003,9.072834e+000
2.821392e+003,9.051696e+000
2.823321e+003,9.030313e+000
2.825249e+003,9.009744e+000
2.827177e+003,8.988337e+000
2.829106e+003,8.967310e+000
2.831034e+003,8.945331e+000
2.832963e+003,8.922335e+000
2.834892e+003,8.898699e+000
2.836820e+003,8.876492e+000
2.838749e+003,8.852765e+000
2.840677e+003,8.822059e+000
2.842605e+003,8.790695e+000
2.844534e+003,8.758109e+000
2.846462e+003,8.723370e+000
2.848391e+003,8.689050e+000
2.850320e+003,8.660014e+000
2.852248e+003,8.637324e+000
2.854177e+003,8.617261e+000
2.856105e+003,8.599584e+000
2.858033e+003,8.583271e+000
2.859962e+003,8.567312e+000
2.861890e+003,8.548845e+000
2.863819e+003,8.530329e+000
2.865748e+003,8.510251e+000
2.867676e+003,8.489075e+000
2.869604e+003,8.466926e+000
2.871533e+003,8.448840e+000
2.873461e+003,8.429770e+000
2.875390e+003,8.405169e+000
2.877319e+003,8.383197e+000
2.879247e+003,8.363101e+000
2.881176e+003,8.341987e+000
2.883104e+003,8.320310e+000
2.885032e+003,8.298499e+000
2.886961e+003,8.276413e+000
2.888889e+003,8.253654e+000
2.890818e+003,8.230224e+000
2.892747e+003,8.207152e+000
2.894675e+003,8.183092e+000
2.896604e+003,8.157912e+000
2.898532e+003,8.133054e+000
2.900460e+003,8.107556e+000
2.902389e+003,8.081640e+000
2.904317e+003,8.054692e+000
2.906246e+003,8.026311e+000
2.908175e+003,7.999784e+000
2.910103e+003,7.971466e+000
2.912031e+003,7.943408e+000
2.913960e+003,7.911577e+000
2.915888e+003,7.873302e+000
2.917817e+003,7.843294e+000
2.919745e+003,7.818506e+000
2.921674e+003,7.794256e+000
2.923603e+003,7.771498e+000
2.925531e+003,7.749386e+000
2.927459e+003,7.732380e+000
2.929388e+003,7.723062e+000
2.931316e+003,7.709522e+000
2.933245e+003,7.695437e+000
2.935173e+003,7.680665e+000
2.937102e+003,7.663730e+000
2.939031e+003,7.654306e+000
2.940959e+003,7.647246e+000
2.942887e+003,7.635727e+000
2.944816e+003,7.620139e+000
2.946744e+003,7.597194e+000
2.948673e+003,7.574293e+000
2.950601e+003,7.556144e+000
2.952530e+003,7.534246e+000
2.954458e+003,7.508320e+000
2.956387e+003,7.479229e+000
2.958315e+003,7.451405e+000
2.960244e+003,7.434681e+000
2.962172e+003,7.415959e+000
2.964101e+003,7.396404e+000
2.966029e+003,7.379040e+000
2.967958e+003,7.366220e+000
2.969886e+003,7.361781e+000
2.971815e+003,7.358433e+000
2.973743e+003,7.350632e+000
2.975672e+003,7.340158e+000
2.977600e+003,7.323664e+000
2.979529e+003,7.311744e+000
2.981457e+003,7.302034e+000
2.983386e+003,7.287297e+000
2.985314e+003,7.271035e+000
2.987243e+003,7.252536e+000
2.989171e+003,7.235252e+000
2.991100e+003,7.224275e+000
2.993028e+003,7.206416e+000
2.994957e+003,7.185478e+000
2.996885e+003,7.167070e+000
2.998814e+003,7.146870e+000
3.000742e+003,7.127944e+000
3.002671e+003,7.109587e+000
3.004599e+003,7.089127e+000
3.006528e+003,7.069980e+000
3.008456e+003,7.051258e+000
3.010385e+003,7.035110e+000
3.012313e+003,7.012623e+000
3.014242e+003,6.980717e+000
3.016170e+003,6.941390e+000
3.018099e+003,6.929426e+000
3.020027e+003,6.933695e+000
3.021956e+003,6.921129e+000
3.023884e+003,6.903680e+000
3.025813e+003,6.884242e+000
3.027741e+003,6.864705e+000
3.029670e+003,6.846597e+000
3.031598e+003,6.829216e+000
3.033527e+003,6.813050e+000
3.035455e+003,6.794812e+000
3.037384e+003,6.774962e+000
3.039312e+003,6.759189e+000
3.041241e+003,6.746947e+000
3.043169e+003,6.730045e+000
3.045098e+003,6.709542e+000
3.047026e+003,6.687841e+000
3.048955e+003,6.671232e+000
3.050883e+003,6.658483e+000
3.052812e+003,6.640007e+000
3.054740e+003,6.620846e+000
3.056669e+003,6.598096e+000
3.058597e+003,6.582721e+000
3.060526e+003,6.571445e+000
3.062454e+003,6.555559e+000
3.064383e+003,6.537051e+000
3.066311e+003,6.515574e+000
3.068240e+003,6.500904e+000
3.070168e+003,6.489004e+000
3.072097e+003,6.472574e+000
3.074025e+003,6.455194e+000
3.075954e+003,6.437035e+000
3.077882e+003,6.427588e+000
3.079811e+003,6.412408e+000
3.081739e+003,6.393157e+000
3.083668e+003,6.372705e+000
3.085596e+003,6.347639e+000
3.087525e+003,6.335937e+000
3.089453e+003,6.324221e+000
3.091382e+003,6.306237e+000
3.093310e+003,6.283457e+000
3.095239e+003,6.262331e+000
3.097167e+003,6.252624e+000
3.099096e+003,6.239276e+000
3.101024e+003,6.221572e+000
3.102953e+003,6.199869e+000
3.104881e+003,6.183213e+000
3.106810e+003,6.174279e+000
3.108738e+003,6.160750e+000
3.110667e+003,6.140982e+000
3.112595e+003,6.120697e+000
3.114524e+003,6.110117e+000
3.116452e+003,6.101207e+000
3.118381e+003,6.085300e+000
3.120309e+003,6.065393e+000
3.122238e+003,6.035817e+000
3.124166e+003,6.019695e+000
3.126095e+003,6.011092e+000
3.128023e+003,5.999362e+000
3.129952e+003,5.983689e+000
3.131880e+003,5.968161e+000
3.133809e+003,5.955545e+000
3.135737e+003,5.942349e+000
3.137666e+003,5.928325e+000
3.139594e+003,5.912284e+000
3.141523e+003,5.895922e+000
3.143451e+003,5.881762e+000
3.145380e+003,5.866177e+000
3.147308e+003,5.850588e+000
3.149237e+003,5.837054e+000
3.151165e+003,5.829838e+000
3.153094e+003,5.815389e+000
3.155022e+003,5.796618e+000
3.156951e+003,5.781910e+000
3.158879e+003,5.768935e+000
3.160808e+003,5.756049e+000
3.162736e+003,5.742613e+000
3.164665e+003,5.729580e+000
3.166593e+003,5.716401e+000
3.168522e+003,5.704354e+000
3.170450e+003,5.691759e+000
3.172379e+003,5.677664e+000
3.174307e+003,5.664597e+000
3.176236e+003,5.651361e+000
3.178164e+003,5.638509e+000
3.180093e+003,5.627547e+000
3.182021e+003,5.615569e+000
3.183950e+003,5.603356e+000
3.185878e+003,5.591912e+000
3.187807e+003,5.580954e+000
3.189735e+003,5.569766e+000
3.191664e+003,5.558359e+000
3.193592e+003,5.547915e+000
3.195521e+003,5.536909e+000
3.197449e+003,5.526053e+000
3.199378e+003,5.516366e+000
3.201306e+003,5.506689e+000
3.203235e+003,5.496601e+000
3.205163e+003,5.487060e+000
3.207092e+003,5.478541e+000
3.209020e+003,5.470659e+000
3.210948e+003,5.463442e+000
3.212877e+003,5.456661e+000
3.214806e+003,5.449756e+000
3.216734e+003,5.443995e+000
3.218663e+003,5.437550e+000
3.220591e+003,5.431178e+000
3.222520e+003,5.425179e+000
3.224448e+003,5.419686e+000
3.226376e+003,5.414596e+000
3.228305e+003,5.409349e+000
3.230234e+003,5.404631e+000
3.232162e+003,5.403653e+000
3.234091e+003,5.399256e+000
3.236019e+003,5.391463e+000
3.237948e+003,5.386353e+000
3.239876e+003,5.382030e+000
3.241804e+003,5.378948e+000
3.243733e+003,5.375063e+000
3.245662e+003,5.373061e+000
3.247590e+003,5.371594e+000
3.249519e+003,5.367723e+000
3.251447e+003,5.365161e+000
3.253375e+003,5.362434e+000
3.255304e+003,5.361791e+000
3.257232e+003,5.360119e+000
3.259161e+003,5.359291e+000
3.261090e+003,5.359679e+000
3.263018e+003,5.360253e+000
3.264947e+003,5.360658e+000
3.266875e+003,5.362814e+000
3.268803e+003,5.366081e+000
3.270732e+003,5.369058e+000
3.272660e+003,5.366841e+000
3.274589e+003,5.366619e+000
3.276518e+003,5.367246e+000
3.278446e+003,5.368155e+000
3.280375e+003,5.368967e+000
3.282303e+003,5.369634e+000
3.284231e+003,5.370210e+000
3.286160e+003,5.371270e+000
3.288088e+003,5.371168e+000
3.290017e+003,5.373705e+000
3.291946e+003,5.374789e+000
3.293874e+003,5.373537e+000
3.295802e+003,5.372778e+000
3.297731e+003,5.371733e+000
3.299659e+003,5.370762e+000
3.301588e+003,5.370673e+000
3.303516e+003,5.374434e+000
3.305445e+003,5.378078e+000
3.307374e+003,5.373678e+000
3.309302e+003,5.368741e+000
3.311230e+003,5.365654e+000
3.313159e+003,5.365082e+000
3.315087e+003,5.364278e+000
3.317016e+003,5.363148e+000
3.318944e+003,5.361412e+000
3.320873e+003,5.359271e+000
3.322802e+003,5.356484e+000
3.324730e+003,5.355514e+000
3.326658e+003,5.354239e+000
3.328587e+003,5.352616e+000
3.330515e+003,5.350811e+000
3.332444e+003,5.348956e+000
3.334372e+003,5.346561e+000
3.336301e+003,5.344594e+000
3.338229e+003,5.343005e+000
3.340158e+003,5.339421e+000
3.342086e+003,5.336157e+000
3.344015e+003,5.333285e+000
3.345943e+003,5.329056e+000
3.347872e+003,5.327052e+000
3.349800e+003,5.326019e+000
3.351729e+003,5.321942e+000
3.353657e+003,5.316297e+000
3.355586e+003,5.313527e+000
3.357514e+003,5.310120e+000
3.359443e+003,5.306455e+000
3.361371e+003,5.301965e+000
3.363300e+003,5.298525e+000
3.365229e+003,5.294621e+000
3.367157e+003,5.292593e+000
3.369085e+003,5.290403e+000
3.371014e+003,5.282846e+000
3.372942e+003,5.274217e+000
3.374871e+003,5.268722e+000
3.376799e+003,5.262601e+000
3.378728e+003,5.256874e+000
3.380656e+003,5.250175e+000
3.382585e+003,5.243282e+000
3.384513e+003,5.235312e+000
3.386442e+003,5.227705e+000
3.388370e+003,5.220668e+000
3.390299e+003,5.216690e+000
3.392227e+003,5.207480e+000
3.394156e+003,5.196023e+000
3.396084e+003,5.185630e+000
3.398013e+003,5.178673e+000
3.399941e+003,5.172697e+000
3.401870e+003,5.160616e+000
3.403798e+003,5.147821e+000
3.405727e+003,5.137768e+000
3.407655e+003,5.126855e+000
3.409584e+003,5.116056e+000
3.411512e+003,5.104647e+000
3.413441e+003,5.093138e+000
3.415369e+003,5.080007e+000
3.417298e+003,5.067199e+000
3.419226e+003,5.052498e+000
3.421155e+003,5.039445e+000
3.423083e+003,5.027024e+000
3.425012e+003,5.013414e+000
3.426940e+003,4.998955e+000
3.428869e+003,4.985623e+000
3.430797e+003,4.969748e+000
3.432726e+003,4.955900e+000
3.434654e+003,4.943195e+000
3.436583e+003,4.928204e+000
3.438511e+003,4.913778e+000
3.440440e+003,4.901660e+000
3.442368e+003,4.890745e+000
3.444297e+003,4.881885e+000
3.446225e+003,4.870554e+000
3.448154e+003,4.863515e+000
3.450082e+003,4.858099e+000
3.452011e+003,4.850269e+000
3.453939e+003,4.840526e+000
3.455868e+003,4.831390e+000
3.457796e+003,4.822479e+000
3.459725e+003,4.813293e+000
3.461653e+003,4.803031e+000
3.463582e+003,4.795295e+000
3.465510e+003,4.787508e+000
3.467439e+003,4.779483e+000
3.469367e+003,4.770740e+000
3.471296e+003,4.761100e+000
3.473224e+003,4.751549e+000
3.475153e+003,4.743722e+000
3.477081e+003,4.737070e+000
3.479010e+003,4.730597e+000
3.480938e+003,4.721482e+000
3.482867e+003,4.715179e+000
3.484795e+003,4.710131e+000
3.486724e+003,4.704212e+000
3.488652e+003,4.699019e+000
3.490581e+003,4.695210e+000
3.492509e+003,4.690460e+000
3.494438e+003,4.685140e+000
3.496366e+003,4.680591e+000
3.498295e+003,4.677478e+000
3.500223e+003,4.671377e+000
3.502152e+003,4.664125e+000
3.504080e+003,4.658545e+000
3.506009e+003,4.657340e+000
3.507937e+003,4.650609e+000
3.509866e+003,4.644868e+000
3.511794e+003,4.642343e+000
3.513723e+003,4.639112e+000
3.515651e+003,4.633077e+000
3.517580e+003,4.626278e+000
3.519508e+003,4.619359e+000
3.521437e+003,4.611826e+000
3.523365e+003,4.602612e+000
3.525294e+003,4.595356e+000
3.527222e+003,4.586193e+000
3.529151e+003,4.580800e+000
3.531079e+003,4.575391e+000
3.533008e+003,4.568400e+000
3.534936e+003,4.556805e+000
3.536865e+003,4.546315e+000
3.538793e+003,4.535641e+000
3.540722e+003,4.525545e+000
3.542650e+003,4.511003e+000
3.544579e+003,4.493856e+000
3.546507e+003,4.478954e+000
3.548436e+003,4.472436e+000
3.550364e+003,4.460032e+000
3.552293e+003,4.444201e+000
3.554221e+003,4.433817e+000
3.556150e+003,4.421476e+000
3.558078e+003,4.403866e+000
3.560007e+003,4.385631e+000
3.561935e+003,4.367145e+000
3.563864e+003,4.343639e+000
3.565792e+003,4.307577e+000
3.567721e+003,4.286805e+000
3.569649e+003,4.290309e+000
3.571578e+003,4.281826e+000
3.573506e+003,4.262193e+000
3.575435e+003,4.241837e+000
3.577363e+003,4.220286e+000
3.579292e+003,4.196828e+000
3.581220e+003,4.172604e+000
3.583149e+003,4.144195e+000
3.585077e+003,4.100873e+000
3.587006e+003,4.053345e+000
3.588934e+003,4.034348e+000
3.590863e+003,4.028422e+000
3.592791e+003,4.000385e+000
3.594720e+003,3.974645e+000
3.596648e+003,3.959626e+000
3.598577e+003,3.947684e+000
3.600505e+003,3.935378e+000
3.602434e+003,3.937501e+000
3.604362e+003,3.939841e+000
3.606291e+003,3.935752e+000
3.608219e+003,3.930422e+000
3.610148e+003,3.958109e+000
3.612076e+003,3.974331e+000
3.614005e+003,3.958464e+000
3.615933e+003,3.917740e+000
3.617862e+003,3.856494e+000
3.619790e+003,3.817095e+000
3.621719e+003,3.812079e+000
3.623647e+003,3.798798e+000
3.625576e+003,3.775815e+000
3.627504e+003,3.720336e+000
3.629433e+003,3.714168e+000
3.631361e+003,3.780170e+000
3.633290e+003,3.807611e+000
3.635218e+003,3.829698e+000
3.637146e+003,3.848447e+000
3.639075e+003,3.861392e+000
3.641004e+003,3.869635e+000
3.642932e+003,3.875168e+000
3.644861e+003,3.867309e+000
3.646789e+003,3.829942e+000
3.648718e+003,3.796082e+000
3.650646e+003,3.816635e+000
3.652574e+003,3.862637e+000
3.654503e+003,3.852246e+000
3.656432e+003,3.836977e+000
3.658360e+003,3.861398e+000
3.660289e+003,3.868116e+000
3.662217e+003,3.864451e+000
3.664146e+003,3.861755e+000
3.666074e+003,3.851512e+000
3.668002e+003,3.813109e+000
3.669931e+003,3.768350e+000
3.671860e+003,3.791269e+000
3.673788e+003,3.762356e+000
3.675717e+003,3.719811e+000
3.677645e+003,3.779351e+000
3.679573e+003,3.804476e+000
3.681502e+003,3.811851e+000
3.683430e+003,3.803042e+000
3.685359e+003,3.782921e+000
3.687288e+003,3.713943e+000
3.689216e+003,3.695726e+000
3.691145e+003,3.719480e+000
3.693073e+003,3.730140e+000
3.695001e+003,3.727571e+000
3.696930e+003,3.716787e+000
3.698858e+003,3.708476e+000
3.700787e+003,3.690829e+000
3.702716e+003,3.700170e+000
3.704644e+003,3.725002e+000
3.706573e+003,3.742767e+000
3.708501e+003,3.754762e+000
3.710429e+003,3.772622e+000
3.712358e+003,3.824457e+000
3.714286e+003,3.905947e+000
3.716215e+003,3.904230e+000
3.718144e+003,3.859601e+000
3.720072e+003,3.815787e+000
3.722000e+003,3.782534e+000
3.723929e+003,3.761794e+000
3.725857e+003,3.750683e+000
3.727786e+003,3.763041e+000
3.729714e+003,3.778842e+000
3.731643e+003,3.775220e+000
3.733572e+003,3.813034e+000
3.735500e+003,3.841930e+000
3.737428e+003,3.922749e+000
3.739357e+003,4.006115e+000
3.741285e+003,4.050473e+000
3.743214e+003,3.999477e+000
3.745142e+003,4.038729e+000
3.747071e+003,4.140223e+000
3.749000e+003,4.120141e+000
3.750928e+003,4.133849e+000
3.752856e+003,4.194552e+000
3.754785e+003,4.282580e+000
3.756713e+003,4.298340e+000
3.758642e+003,4.313662e+000
3.760570e+003,4.334340e+000
3.762499e+003,4.372260e+000
3.764427e+003,4.371788e+000
3.766356e+003,4.392058e+000
3.768284e+003,4.396657e+000
3.770213e+003,4.411176e+000
3.772141e+003,4.448731e+000
3.774070e+003,4.474057e+000
3.775998e+003,4.483985e+000
3.777927e+003,4.486552e+000
3.779855e+003,4.495145e+000
3.781784e+003,4.525782e+000
3.783712e+003,4.535002e+000
3.785641e+003,4.552451e+000
3.787569e+003,4.567278e+000
3.789498e+003,4.582794e+000
3.791426e+003,4.592727e+000
3.793355e+003,4.603427e+000
3.795283e+003,4.593440e+000
3.797212e+003,4.605043e+000
3.799140e+003,4.588162e+000
3.801069e+003,4.543303e+000
3.802997e+003,4.606152e+000
3.804926e+003,4.630087e+000
3.806854e+003,4.606186e+000
3.808783e+003,4.663594e+000
3.810711e+003,4.692041e+000
3.812640e+003,4.695210e+000
3.814568e+003,4.636915e+000
3.816497e+003,4.632344e+000
3.818425e+003,4.686033e+000
3.820354e+003,4.655802e+000
3.822282e+003,4.684020e+000
3.824211e+003,4.735292e+000
3.826139e+003,4.737797e+000
3.828068e+003,4.751340e+000
3.829996e+003,4.746754e+000
3.831925e+003,4.742056e+000
3.833853e+003,4.744184e+000
3.835782e+003,4.711031e+000
3.837710e+003,4.678828e+000
3.839639e+003,4.734636e+000
3.841567e+003,4.767669e+000
3.843496e+003,4.780687e+000
3.845424e+003,4.797815e+000
3.847353e+003,4.811137e+000
3.849281e+003,4.788280e+000
3.851210e+003,4.703676e+000
3.853138e+003,4.609379e+000
3.855067e+003,4.692917e+000
3.856995e+003,4.799912e+000
3.858924e+003,4.817051e+000
3.860852e+003,4.804793e+000
3.862781e+003,4.790065e+000
3.864709e+003,4.778244e+000
3.866638e+003,4.798700e+000
3.868566e+003,4.762567e+000
3.870495e+003,4.758515e+000
3.872423e+003,4.801404e+000
3.874352e+003,4.802542e+000
3.876280e+003,4.824974e+000
3.878209e+003,4.812728e+000
3.880137e+003,4.794621e+000
3.882066e+003,4.807430e+000
3.883994e+003,4.788534e+000
3.885923e+003,4.772180e+000
3.887851e+003,4.814388e+000
3.889780e+003,4.795619e+000
3.891708e+003,4.788198e+000
3.893637e+003,4.814279e+000
3.895565e+003,4.821569e+000
3.897494e+003,4.798489e+000
3.899422e+003,4.773174e+000
3.901351e+003,4.764535e+000
3.903279e+003,4.759716e+000
3.905208e+003,4.779916e+000
3.907136e+003,4.806584e+000
3.909065e+003,4.811222e+000
3.910993e+003,4.809125e+000
3.912922e+003,4.805861e+000
3.914850e+003,4.794703e+000
3.916779e+003,4.778586e+000
3.918707e+003,4.780306e+000
3.920636e+003,4.783507e+000
3.922564e+003,4.783375e+000
3.924493e+003,4.775116e+000
3.926421e+003,4.778932e+000
3.928350e+003,4.775386e+000
3.930278e+003,4.765361e+000
3.932207e+003,4.757329e+000
3.934135e+003,4.763380e+000
3.936064e+003,4.763858e+000
3.937992e+003,4.759992e+000
3.939921e+003,4.753318e+000
3.941849e+003,4.741406e+000
3.943778e+003,4.738769e+000
3.945706e+003,4.737763e+000
3.947635e+003,4.727343e+000
3.949563e+003,4.723561e+000
3.951492e+003,4.722286e+000
3.953420e+003,4.719552e+000
3.955349e+003,4.713458e+000
3.957277e+003,4.708008e+000
3.959206e+003,4.701940e+000
3.961134e+003,4.695424e+000
3.963063e+003,4.689036e+000
3.964991e+003,4.684718e+000
3.966920e+003,4.677758e+000
3.968848e+003,4.671027e+000
3.970777e+003,4.664088e+000
3.972705e+003,4.657887e+000
3.974634e+003,4.650774e+000
3.976562e+003,4.644392e+000
3.978491e+003,4.637507e+000
3.980419e+003,4.631122e+000
3.982348e+003,4.623504e+000
3.984276e+003,4.617220e+000
3.986205e+003,4.609626e+000
3.988133e+003,4.602246e+000
3.990062e+003,4.593857e+000
3.991990e+003,4.587091e+000
3.993919e+003,4.579377e+000
3.995847e+003,4.572502e+000
3.997776e+003,4.564679e+000
3.999704e+003,4.556851e+000
4.001633e+003,0.000000e+000
