3.991989e+002,9.045500e-001
4.011274e+002,9.738907e-001
4.030559e+002,1.047363e+000
4.049844e+002,1.119669e+000
4.069129e+002,1.193799e+000
4.088414e+002,1.275154e+000
4.107699e+002,1.355235e+000
4.126984e+002,1.435162e+000
4.146269e+002,1.524078e+000
4.165554e+002,1.599552e+000
4.184839e+002,1.668109e+000
4.204124e+002,1.766525e+000
4.223409e+002,1.863752e+000
4.242694e+002,1.950776e+000
4.261979e+002,2.047431e+000
4.281264e+002,2.135970e+000
4.300549e+002,2.221704e+000
4.319834e+002,2.308745e+000
4.339119e+002,2.390137e+000
4.358404e+002,2.469980e+000
4.377689e+002,2.554582e+000
4.396974e+002,2.630162e+000
4.416259e+002,2.707526e+000
4.435544e+002,2.776982e+000
4.454829e+002,2.841709e+000
4.474114e+002,2.912108e+000
4.493399e+002,2.979753e+000
4.512684e+002,3.033165e+000
4.531969e+002,3.095932e+000
4.551254e+002,3.156503e+000
4.570539e+002,3.206269e+000
4.589824e+002,3.273162e+000
4.609109e+002,3.341801e+000
4.628394e+002,3.397515e+000
4.647679e+002,3.456949e+000
4.666964e+002,3.507373e+000
4.686249e+002,3.569444e+000
4.705533e+002,3.628204e+000
4.724819e+002,3.684741e+000
4.744103e+002,3.752346e+000
4.763389e+002,3.824172e+000
4.782673e+002,3.886781e+000
4.801959e+002,3.965516e+000
4.821243e+002,4.044655e+000
4.840529e+002,4.121012e+000
4.859813e+002,4.197270e+000
4.879099e+002,4.270644e+000
4.898383e+002,4.324993e+000
4.917668e+002,4.382045e+000
4.936953e+002,4.433406e+000
4.956238e+002,4.481161e+000
4.975523e+002,4.521883e+000
4.994808e+002,4.565988e+000
5.014093e+002,4.599743e+000
5.033378e+002,4.660523e+000
5.052663e+002,4.716507e+000
5.071948e+002,4.772026e+000
5.091233e+002,4.829277e+000
5.110518e+002,4.883162e+000
5.129803e+002,4.929896e+000
5.149088e+002,4.985651e+000
5.168373e+002,5.021062e+000
5.187658e+002,5.075433e+000
5.206943e+002,5.134841e+000
5.226228e+002,5.194084e+000
5.245513e+002,5.247657e+000
5.264798e+002,5.315928e+000
5.284083e+002,5.380256e+000
5.303368e+002,5.450951e+000
5.322653e+002,5.513398e+000
5.341938e+002,5.572821e+000
5.361223e+002,5.620132e+000
5.380508e+002,5.678728e+000
5.399792e+002,5.722719e+000
5.419078e+002,5.772615e+000
5.438363e+002,5.815464e+000
5.457648e+002,5.860892e+000
5.476932e+002,5.901218e+000
5.496218e+002,5.948776e+000
5.515503e+002,5.982599e+000
5.534788e+002,6.035154e+000
5.554072e+002,6.074495e+000
5.573358e+002,6.121939e+000
5.592643e+002,6.169689e+000
5.611927e+002,6.229529e+000
5.631212e+002,6.275312e+000
5.650497e+002,6.339608e+000
5.669783e+002,6.384351e+000
5.689067e+002,6.433615e+000
5.708352e+002,6.474991e+000
5.727637e+002,6.523909e+000
5.746923e+002,6.552357e+000
5.766207e+002,6.598115e+000
5.785492e+002,6.626474e+000
5.804777e+002,6.666440e+000
5.824063e+002,6.694187e+000
5.843347e+002,6.737047e+000
5.862632e+002,6.762826e+000
5.881917e+002,6.810556e+000
5.901202e+002,6.859135e+000
5.920487e+002,6.930864e+000
5.939772e+002,6.989325e+000
5.959057e+002,7.062656e+000
5.978342e+002,7.125986e+000
5.997627e+002,7.220130e+000
6.016912e+002,7.276989e+000
6.036197e+002,7.364004e+000
6.055482e+002,7.425412e+000
6.074767e+002,7.505619e+000
6.094052e+002,7.563660e+000
6.113337e+002,7.664766e+000
6.132622e+002,7.744257e+000
6.151907e+002,7.785525e+000
6.171192e+002,7.644422e+000
6.190477e+002,7.830268e+000
6.209762e+002,8.047347e+000
6.229047e+002,8.131892e+000
6.248332e+002,8.183196e+000
6.267617e+002,8.257403e+000
6.286902e+002,8.300688e+000
6.306187e+002,8.366211e+000
6.325472e+002,8.390450e+000
6.344756e+002,8.431808e+000
6.364042e+002,8.417266e+000
6.383326e+002,8.431421e+000
6.402612e+002,8.374543e+000
6.421896e+002,8.345666e+000
6.441182e+002,8.251513e+000
6.460466e+002,8.163762e+000
6.479752e+002,7.932684e+000
6.499036e+002,7.948047e+000
6.518322e+002,7.997133e+000
6.537606e+002,8.049526e+000
6.556891e+002,8.035705e+000
6.576177e+002,8.162602e+000
6.595461e+002,8.238616e+000
6.614746e+002,8.458953e+000
6.634031e+002,8.668212e+000
6.653317e+002,8.189120e+000
6.672601e+002,4.937532e+000
6.691886e+002,4.986536e+000
6.711171e+002,7.844817e+000
6.730457e+002,8.318504e+000
6.749741e+002,8.266933e+000
6.769026e+002,8.136151e+000
6.788311e+002,8.190204e+000
6.807596e+002,8.173392e+000
6.826881e+002,8.323846e+000
6.846166e+002,8.408227e+000
6.865451e+002,8.615385e+000
6.884736e+002,8.738154e+000
6.904021e+002,8.981265e+000
6.923306e+002,9.172904e+000
6.942591e+002,9.425858e+000
6.961876e+002,9.602061e+000
6.981161e+002,9.831176e+000
7.000446e+002,9.982615e+000
7.019731e+002,1.017064e+001
7.039016e+002,1.028186e+001
7.058301e+002,1.043675e+001
7.077585e+002,1.051472e+001
7.096871e+002,1.063530e+001
7.116156e+002,1.068947e+001
7.135441e+002,1.078436e+001
7.154725e+002,1.081719e+001
7.174011e+002,1.083002e+001
7.193296e+002,1.055420e+001
7.212581e+002,1.063738e+001
7.231865e+002,1.094908e+001
7.251151e+002,1.101463e+001
7.270436e+002,1.101968e+001
7.289720e+002,1.104006e+001
7.309005e+002,1.104901e+001
7.328290e+002,1.107033e+001
7.347576e+002,1.108042e+001
7.366860e+002,1.110288e+001
7.386145e+002,1.111056e+001
7.405430e+002,1.112398e+001
7.424716e+002,1.113966e+001
7.444000e+002,1.118135e+001
7.463285e+002,1.119748e+001
7.482570e+002,1.122817e+001
7.501855e+002,1.124430e+001
7.521140e+002,1.127524e+001
7.540425e+002,1.129119e+001
7.559710e+002,1.132705e+001
7.578995e+002,1.134989e+001
7.598280e+002,1.138854e+001
7.617565e+002,1.141482e+001
7.636850e+002,1.145745e+001
7.656135e+002,1.148335e+001
7.675420e+002,1.152378e+001
7.694705e+002,1.155011e+001
7.713990e+002,1.159215e+001
7.733275e+002,1.161793e+001
7.752560e+002,1.165376e+001
7.771844e+002,1.167364e+001
7.791130e+002,1.170882e+001
7.810415e+002,1.172839e+001
7.829700e+002,1.175408e+001
7.848984e+002,1.175839e+001
7.868270e+002,1.176638e+001
7.887555e+002,1.175415e+001
7.906840e+002,1.174898e+001
7.926124e+002,1.172836e+001
7.945410e+002,1.172187e+001
7.964695e+002,1.170227e+001
7.983979e+002,1.169355e+001
8.003264e+002,1.167914e+001
8.022549e+002,1.167999e+001
8.041835e+002,1.167314e+001
8.061119e+002,1.168176e+001
8.080404e+002,1.168334e+001
8.099689e+002,1.169707e+001
8.118975e+002,1.169949e+001
8.138259e+002,1.171319e+001
8.157545e+002,1.171299e+001
8.176830e+002,1.172110e+001
8.196115e+002,1.171681e+001
8.215399e+002,1.172451e+001
8.234684e+002,1.172818e+001
8.253970e+002,1.175269e+001
8.273254e+002,1.177260e+001
8.292539e+002,1.180410e+001
8.311824e+002,1.182205e+001
8.331110e+002,1.184414e+001
8.350394e+002,1.185659e+001
8.369679e+002,1.188065e+001
8.388964e+002,1.189514e+001
8.408250e+002,1.192166e+001
8.427534e+002,1.193903e+001
8.446819e+002,1.196780e+001
8.466104e+002,1.199219e+001
8.485389e+002,1.202595e+001
8.504674e+002,1.204634e+001
8.523959e+002,1.207850e+001
8.543244e+002,1.210400e+001
8.562529e+002,1.213717e+001
8.581814e+002,1.216190e+001
8.601099e+002,1.219526e+001
8.620384e+002,1.221860e+001
8.639669e+002,1.225396e+001
8.658954e+002,1.228133e+001
8.678239e+002,1.231457e+001
8.697524e+002,1.234253e+001
8.716809e+002,1.237879e+001
8.736094e+002,1.240734e+001
8.755378e+002,1.245044e+001
8.774664e+002,1.248468e+001
8.793949e+002,1.252581e+001
8.813234e+002,1.256072e+001
8.832518e+002,1.260484e+001
8.851804e+002,1.264032e+001
8.871089e+002,1.268292e+001
8.890374e+002,1.271531e+001
8.909658e+002,1.275861e+001
8.928943e+002,1.279743e+001
8.948229e+002,1.284291e+001
8.967513e+002,1.288453e+001
8.986798e+002,1.293610e+001
9.006083e+002,1.298065e+001
9.025369e+002,1.303531e+001
9.044653e+002,1.308400e+001
9.063938e+002,1.314098e+001
9.083223e+002,1.319133e+001
9.102509e+002,1.324862e+001
9.121793e+002,1.329763e+001
9.141078e+002,1.335559e+001
9.160364e+002,1.340636e+001
9.179648e+002,1.346957e+001
9.198933e+002,1.353160e+001
9.218218e+002,1.359956e+001
9.237504e+002,1.366001e+001
9.256788e+002,1.372776e+001
9.276073e+002,1.378693e+001
9.295358e+002,1.385404e+001
9.314644e+002,1.391567e+001
9.333928e+002,1.397991e+001
9.353213e+002,1.403667e+001
9.372498e+002,1.410064e+001
9.391783e+002,1.415481e+001
9.411068e+002,1.421602e+001
9.430353e+002,1.426762e+001
9.449637e+002,1.432192e+001
9.468923e+002,1.437145e+001
9.488208e+002,1.442793e+001
9.507493e+002,1.447655e+001
9.526777e+002,1.453616e+001
9.546063e+002,1.458830e+001
9.565348e+002,1.464210e+001
9.584633e+002,1.469322e+001
9.603917e+002,1.475294e+001
9.623203e+002,1.480537e+001
9.642488e+002,1.487290e+001
9.661772e+002,1.494114e+001
9.681057e+002,1.501385e+001
9.700343e+002,1.508175e+001
9.719628e+002,1.515107e+001
9.738912e+002,1.521765e+001
9.758197e+002,1.529996e+001
9.777483e+002,1.537168e+001
9.796768e+002,1.543913e+001
9.816052e+002,1.549756e+001
9.835337e+002,1.555949e+001
9.854623e+002,1.561601e+001
9.873907e+002,1.568134e+001
9.893192e+002,1.573643e+001
9.912477e+002,1.579792e+001
9.931763e+002,1.585749e+001
9.951047e+002,1.591936e+001
9.970332e+002,1.597373e+001
9.989617e+002,1.603321e+001
1.000890e+003,1.607763e+001
1.002819e+003,1.612154e+001
1.004747e+003,1.615490e+001
1.006676e+003,1.618061e+001
1.008604e+003,1.619518e+001
1.010533e+003,1.621370e+001
1.012461e+003,1.622183e+001
1.014390e+003,1.623724e+001
1.016318e+003,1.624966e+001
1.018247e+003,1.626910e+001
1.020175e+003,1.629143e+001
1.022104e+003,1.632266e+001
1.024032e+003,1.634705e+001
1.025961e+003,1.638195e+001
1.027889e+003,1.641500e+001
1.029818e+003,1.645481e+001
1.031746e+003,1.649294e+001
1.033675e+003,1.653701e+001
1.035603e+003,1.657387e+001
1.037532e+003,1.661551e+001
1.039460e+003,1.664298e+001
1.041389e+003,1.666416e+001
1.043317e+003,1.667581e+001
1.045246e+003,1.668791e+001
1.047174e+003,1.669427e+001
1.049103e+003,1.670968e+001
1.051031e+003,1.672099e+001
1.052960e+003,1.674241e+001
1.054888e+003,1.676190e+001
1.056817e+003,1.678596e+001
1.058745e+003,1.680734e+001
1.060674e+003,1.684006e+001
1.062602e+003,1.686715e+001
1.064531e+003,1.689712e+001
1.066459e+003,1.692100e+001
1.068388e+003,1.694587e+001
1.070316e+003,1.696107e+001
1.072245e+003,1.697218e+001
1.074173e+003,1.697059e+001
1.076102e+003,1.699598e+001
1.078030e+003,1.703993e+001
1.079959e+003,1.708711e+001
1.081887e+003,1.715224e+001
1.083816e+003,1.722805e+001
1.085744e+003,1.727568e+001
1.087673e+003,1.731437e+001
1.089601e+003,1.734067e+001
1.091530e+003,1.736273e+001
1.093458e+003,1.737932e+001
1.095387e+003,1.740352e+001
1.097315e+003,1.742871e+001
1.099244e+003,1.746632e+001
1.101172e+003,1.750165e+001
1.103101e+003,1.754424e+001
1.105029e+003,1.758965e+001
1.106958e+003,1.764356e+001
1.108886e+003,1.769893e+001
1.110815e+003,1.776885e+001
1.112743e+003,1.784212e+001
1.114672e+003,1.792926e+001
1.116600e+003,1.801702e+001
1.118529e+003,1.810428e+001
1.120457e+003,1.818462e+001
1.122386e+003,1.827164e+001
1.124314e+003,1.835482e+001
1.126243e+003,1.844200e+001
1.128171e+003,1.851829e+001
1.130100e+003,1.858553e+001
1.132028e+003,1.864085e+001
1.133957e+003,1.869304e+001
1.135885e+003,1.872783e+001
1.137814e+003,1.875059e+001
1.139742e+003,1.874471e+001
1.141671e+003,1.873881e+001
1.143599e+003,1.877298e+001
1.145528e+003,1.883245e+001
1.147456e+003,1.887333e+001
1.149385e+003,1.891162e+001
1.151313e+003,1.896791e+001
1.153242e+003,1.905881e+001
1.155170e+003,1.914593e+001
1.157099e+003,1.922493e+001
1.159027e+003,1.929438e+001
1.160956e+003,1.937272e+001
1.162884e+003,1.944997e+001
1.164813e+003,1.953718e+001
1.166741e+003,1.963390e+001
1.168670e+003,1.972861e+001
1.170598e+003,1.980460e+001
1.172526e+003,1.987019e+001
1.174455e+003,1.991098e+001
1.176384e+003,1.992165e+001
1.178312e+003,1.986121e+001
1.180240e+003,1.980030e+001
1.182169e+003,1.991708e+001
1.184098e+003,2.009278e+001
1.186026e+003,2.016248e+001
1.187954e+003,2.020153e+001
1.189883e+003,2.022596e+001
1.191812e+003,2.025272e+001
1.193740e+003,2.027617e+001
1.195668e+003,2.031082e+001
1.197597e+003,2.034045e+001
1.199526e+003,2.038548e+001
1.201454e+003,2.042975e+001
1.203382e+003,2.047966e+001
1.205311e+003,2.052660e+001
1.207240e+003,2.057744e+001
1.209168e+003,2.061674e+001
1.211096e+003,2.065915e+001
1.213025e+003,2.069334e+001
1.214953e+003,2.072885e+001
1.216882e+003,2.075832e+001
1.218810e+003,2.079172e+001
1.220739e+003,2.081938e+001
1.222667e+003,2.085705e+001
1.224596e+003,2.088662e+001
1.226524e+003,2.092167e+001
1.228453e+003,2.095264e+001
1.230381e+003,2.098878e+001
1.232310e+003,2.102200e+001
1.234238e+003,2.106076e+001
1.236167e+003,2.108725e+001
1.238095e+003,2.111951e+001
1.240024e+003,2.114793e+001
1.241952e+003,2.117540e+001
1.243881e+003,2.119474e+001
1.245809e+003,2.121943e+001
1.247738e+003,2.123740e+001
1.249666e+003,2.126333e+001
1.251595e+003,2.127766e+001
1.253523e+003,2.128207e+001
1.255452e+003,2.127036e+001
1.257380e+003,2.124663e+001
1.259309e+003,2.120150e+001
1.261237e+003,2.117777e+001
1.263166e+003,2.117788e+001
1.265094e+003,2.122150e+001
1.267023e+003,2.130980e+001
1.268951e+003,2.142948e+001
1.270880e+003,2.152686e+001
1.272808e+003,2.160872e+001
1.274737e+003,2.166353e+001
1.276665e+003,2.171245e+001
1.278594e+003,2.175437e+001
1.280522e+003,2.178760e+001
1.282451e+003,2.180764e+001
1.284379e+003,2.183753e+001
1.286308e+003,2.184881e+001
1.288236e+003,2.185787e+001
1.290165e+003,2.187144e+001
1.292093e+003,2.188282e+001
1.294022e+003,2.188653e+001
1.295950e+003,2.189580e+001
1.297879e+003,2.189667e+001
1.299807e+003,2.190308e+001
1.301736e+003,2.189716e+001
1.303664e+003,2.188768e+001
1.305593e+003,2.189025e+001
1.307521e+003,2.193728e+001
1.309450e+003,2.196336e+001
1.311378e+003,2.197380e+001
1.313307e+003,2.198241e+001
1.315235e+003,2.200012e+001
1.317164e+003,2.200499e+001
1.319092e+003,2.201697e+001
1.321021e+003,2.202859e+001
1.322949e+003,2.204651e+001
1.324878e+003,2.205039e+001
1.326806e+003,2.204879e+001
1.328735e+003,2.205327e+001
1.330663e+003,2.203880e+001
1.332592e+003,2.202922e+001
1.334520e+003,2.208900e+001
1.336449e+003,2.209655e+001
1.338377e+003,2.207899e+001
1.340306e+003,2.207435e+001
1.342234e+003,2.209847e+001
1.344163e+003,2.210034e+001
1.346091e+003,2.209466e+001
1.348020e+003,2.208207e+001
1.349948e+003,2.207919e+001
1.351877e+003,2.206679e+001
1.353805e+003,2.206449e+001
1.355734e+003,2.206172e+001
1.357662e+003,2.206992e+001
1.359591e+003,2.203824e+001
1.361519e+003,2.198782e+001
1.363448e+003,2.198842e+001
1.365376e+003,2.204963e+001
1.367305e+003,2.204651e+001
1.369233e+003,2.204528e+001
1.371162e+003,2.203274e+001
1.373090e+003,2.198174e+001
1.375019e+003,2.196029e+001
1.376947e+003,2.199262e+001
1.378876e+003,2.196845e+001
1.380804e+003,2.191747e+001
1.382733e+003,2.178630e+001
1.384661e+003,2.173256e+001
1.386590e+003,2.173687e+001
1.388518e+003,2.185225e+001
1.390447e+003,2.195881e+001
1.392375e+003,2.193036e+001
1.394304e+003,2.182390e+001
1.396232e+003,2.185751e+001
1.398161e+003,2.184786e+001
1.400089e+003,2.186840e+001
1.402018e+003,2.192792e+001
1.403946e+003,2.189170e+001
1.405875e+003,2.189187e+001
1.407803e+003,2.193445e+001
1.409732e+003,2.193394e+001
1.411660e+003,2.193953e+001
1.413589e+003,2.194726e+001
1.415517e+003,2.193011e+001
1.417446e+003,2.178022e+001
1.419374e+003,2.166137e+001
1.421303e+003,2.186157e+001
1.423231e+003,2.193857e+001
1.425160e+003,2.195160e+001
1.427088e+003,2.197688e+001
1.429017e+003,2.192579e+001
1.430945e+003,2.193397e+001
1.432874e+003,2.195840e+001
1.434802e+003,2.182278e+001
1.436731e+003,2.163970e+001
1.438659e+003,2.183623e+001
1.440588e+003,2.191694e+001
1.442516e+003,2.190009e+001
1.444445e+003,2.185789e+001
1.446373e+003,2.179463e+001
1.448302e+003,2.172658e+001
1.450230e+003,2.177071e+001
1.452159e+003,2.172877e+001
1.454087e+003,2.161263e+001
1.456016e+003,2.119667e+001
1.457944e+003,2.123475e+001
1.459873e+003,2.157653e+001
1.461801e+003,2.166916e+001
1.463730e+003,2.154834e+001
1.465658e+003,2.153519e+001
1.467587e+003,2.164850e+001
1.469515e+003,2.161000e+001
1.471444e+003,2.136974e+001
1.473372e+003,2.130666e+001
1.475301e+003,2.146116e+001
1.477229e+003,2.153797e+001
1.479158e+003,2.160693e+001
1.481086e+003,2.158144e+001
1.483015e+003,2.158694e+001
1.484943e+003,2.153937e+001
1.486872e+003,2.144062e+001
1.488800e+003,2.134714e+001
1.490729e+003,2.134861e+001
1.492657e+003,2.146080e+001
1.494586e+003,2.133397e+001
1.496514e+003,2.115875e+001
1.498443e+003,2.125529e+001
1.500371e+003,2.135081e+001
1.502300e+003,2.138396e+001
1.504228e+003,2.107489e+001
1.506157e+003,2.065200e+001
1.508085e+003,2.086208e+001
1.510014e+003,2.116937e+001
1.511942e+003,2.118110e+001
1.513871e+003,2.118934e+001
1.515799e+003,2.107618e+001
1.517728e+003,2.101906e+001
1.519656e+003,2.085225e+001
1.521585e+003,2.067384e+001
1.523513e+003,2.088241e+001
1.525442e+003,2.089275e+001
1.527370e+003,2.092277e+001
1.529299e+003,2.095236e+001
1.531227e+003,2.089345e+001
1.533156e+003,2.071144e+001
1.535084e+003,2.078231e+001
1.537013e+003,2.064573e+001
1.538941e+003,2.015234e+001
1.540870e+003,2.013347e+001
1.542798e+003,2.039440e+001
1.544727e+003,2.050471e+001
1.546655e+003,2.060289e+001
1.548584e+003,2.058441e+001
1.550512e+003,2.052860e+001
1.552441e+003,2.043903e+001
1.554369e+003,2.027959e+001
1.556298e+003,2.011291e+001
1.558226e+003,1.961758e+001
1.560155e+003,1.969772e+001
1.562083e+003,2.019625e+001
1.564012e+003,2.026674e+001
1.565940e+003,2.022784e+001
1.567869e+003,2.010620e+001
1.569797e+003,1.997442e+001
1.571726e+003,2.006966e+001
1.573654e+003,1.997654e+001
1.575583e+003,1.960157e+001
1.577511e+003,1.970455e+001
1.579440e+003,1.991188e+001
1.581368e+003,1.986087e+001
1.583297e+003,1.981633e+001
1.585225e+003,1.975322e+001
1.587154e+003,1.970495e+001
1.589082e+003,1.963471e+001
1.591010e+003,1.958078e+001
1.592939e+003,1.950739e+001
1.594868e+003,1.944285e+001
1.596796e+003,1.937881e+001
1.598724e+003,1.932373e+001
1.600653e+003,1.924437e+001
1.602582e+003,1.917416e+001
1.604510e+003,1.909661e+001
1.606438e+003,1.901560e+001
1.608367e+003,1.891312e+001
1.610296e+003,1.884075e+001
1.612224e+003,1.876502e+001
1.614152e+003,1.859099e+001
1.616081e+003,1.820985e+001
1.618010e+003,1.821018e+001
1.619938e+003,1.832540e+001
1.621866e+003,1.820000e+001
1.623795e+003,1.812704e+001
1.625724e+003,1.815465e+001
1.627652e+003,1.809428e+001
1.629580e+003,1.806293e+001
1.631509e+003,1.802601e+001
1.633438e+003,1.779432e+001
1.635366e+003,1.749249e+001
1.637294e+003,1.760027e+001
1.639223e+003,1.770723e+001
1.641151e+003,1.765258e+001
1.643080e+003,1.755771e+001
1.645008e+003,1.727898e+001
1.646937e+003,1.714709e+001
1.648865e+003,1.725790e+001
1.650794e+003,1.698347e+001
1.652722e+003,1.643719e+001
1.654651e+003,1.672571e+001
1.656579e+003,1.705285e+001
1.658508e+003,1.703006e+001
1.660436e+003,1.692024e+001
1.662365e+003,1.676885e+001
1.664293e+003,1.675389e+001
1.666222e+003,1.672108e+001
1.668150e+003,1.650815e+001
1.670079e+003,1.639624e+001
1.672007e+003,1.641884e+001
1.673936e+003,1.627856e+001
1.675864e+003,1.616729e+001
1.677793e+003,1.624488e+001
1.679721e+003,1.615208e+001
1.681650e+003,1.599269e+001
1.683578e+003,1.556979e+001
1.685507e+003,1.556366e+001
1.687435e+003,1.579292e+001
1.689364e+003,1.575216e+001
1.691292e+003,1.568978e+001
1.693221e+003,1.554304e+001
1.695149e+003,1.515368e+001
1.697078e+003,1.513093e+001
1.699006e+003,1.499453e+001
1.700935e+003,1.486081e+001
1.702863e+003,1.508190e+001
1.704792e+003,1.497978e+001
1.706720e+003,1.493604e+001
1.708649e+003,1.488311e+001
1.710577e+003,1.482688e+001
1.712506e+003,1.468931e+001
1.714434e+003,1.451065e+001
1.716363e+003,1.423162e+001
1.718291e+003,1.416193e+001
1.720220e+003,1.428835e+001
1.722148e+003,1.425637e+001
1.724077e+003,1.415555e+001
1.726005e+003,1.407717e+001
1.727934e+003,1.396490e+001
1.729862e+003,1.384915e+001
1.731791e+003,1.364009e+001
1.733719e+003,1.335455e+001
1.735648e+003,1.343248e+001
1.737576e+003,1.349094e+001
1.739505e+003,1.334383e+001
1.741433e+003,1.331471e+001
1.743362e+003,1.325789e+001
1.745290e+003,1.319041e+001
1.747219e+003,1.307980e+001
1.749147e+003,1.295077e+001
1.751076e+003,1.281047e+001
1.753004e+003,1.281519e+001
1.754933e+003,1.275389e+001
1.756861e+003,1.263201e+001
1.758790e+003,1.255646e+001
1.760718e+003,1.241643e+001
1.762647e+003,1.231037e+001
1.764575e+003,1.226763e+001
1.766504e+003,1.212091e+001
1.768432e+003,1.197608e+001
1.770361e+003,1.182166e+001
1.772289e+003,1.161907e+001
1.774218e+003,1.156754e+001
1.776146e+003,1.147667e+001
1.778075e+003,1.132955e+001
1.780003e+003,1.120697e+001
1.781932e+003,1.111685e+001
1.783860e+003,1.101583e+001
1.785789e+003,1.091841e+001
1.787717e+003,1.084375e+001
1.789646e+003,1.071242e+001
1.791574e+003,1.054210e+001
1.793503e+003,1.045044e+001
1.795431e+003,1.040590e+001
1.797360e+003,1.028560e+001
1.799288e+003,1.015108e+001
1.801217e+003,1.001141e+001
1.803145e+003,9.899425e+000
1.805074e+003,9.757347e+000
1.807002e+003,9.599174e+000
1.808931e+003,9.404073e+000
1.810859e+003,9.201750e+000
1.812788e+003,8.970265e+000
1.814716e+003,8.674347e+000
1.816645e+003,8.249023e+000
1.818573e+003,7.899756e+000
1.820502e+003,7.709459e+000
1.822430e+003,7.590108e+000
1.824359e+003,7.458817e+000
1.826287e+003,7.348008e+000
1.828216e+003,7.217043e+000
1.830144e+003,7.081000e+000
1.832073e+003,6.975839e+000
1.834001e+003,6.851893e+000
1.835930e+003,6.709178e+000
1.837858e+003,6.574609e+000
1.839787e+003,6.441488e+000
1.841715e+003,6.297885e+000
1.843644e+003,6.127091e+000
1.845572e+003,6.026754e+000
1.847501e+003,5.934405e+000
1.849429e+003,5.823629e+000
1.851358e+003,5.713239e+000
1.853286e+003,5.605917e+000
1.855215e+003,5.499022e+000
1.857143e+003,5.398128e+000
1.859072e+003,5.298962e+000
1.861000e+003,5.204333e+000
1.862929e+003,5.109208e+000
1.864857e+003,5.016082e+000
1.866786e+003,4.912087e+000
1.868714e+003,4.810172e+000
1.870643e+003,4.731617e+000
1.872571e+003,4.655562e+000
1.874500e+003,4.563855e+000
1.876428e+003,4.475900e+000
1.878357e+003,4.385229e+000
1.880285e+003,4.299077e+000
1.882214e+003,4.209210e+000
1.884142e+003,4.122791e+000
1.886071e+003,4.033031e+000
1.887999e+003,3.943022e+000
1.889928e+003,3.854238e+000
1.891856e+003,3.778874e+000
1.893785e+003,3.693834e+000
1.895713e+003,3.613302e+000
1.897642e+003,3.532768e+000
1.899570e+003,3.456210e+000
1.901499e+003,3.375570e+000
1.903427e+003,3.298957e+000
1.905356e+003,3.219065e+000
1.907284e+003,3.144089e+000
1.909213e+003,3.065847e+000
1.911141e+003,2.994308e+000
1.913070e+003,2.920059e+000
1.914998e+003,2.847884e+000
1.916927e+003,2.767451e+000
1.918855e+003,2.702841e+000
1.920784e+003,2.640051e+000
1.922712e+003,2.553396e+000
1.924641e+003,2.452558e+000
1.926569e+003,2.356118e+000
1.928498e+003,2.259707e+000
1.930426e+003,2.168849e+000
1.932355e+003,2.077671e+000
1.934283e+003,1.993712e+000
1.936212e+003,1.909349e+000
1.938140e+003,1.829728e+000
1.940069e+003,1.749367e+000
1.941997e+003,1.674017e+000
1.943926e+003,1.600768e+000
1.945854e+003,1.532570e+000
1.947783e+003,1.461997e+000
1.949711e+003,1.396025e+000
1.951640e+003,1.332063e+000
1.953568e+003,1.271344e+000
1.955497e+003,1.200139e+000
1.957425e+003,1.108186e+000
1.959354e+003,1.015425e+000
1.961282e+003,9.594069e-001
1.963211e+003,9.128645e-001
1.965139e+003,8.715808e-001
1.967068e+003,8.305912e-001
1.968996e+003,7.938559e-001
1.970925e+003,7.554439e-001
1.972853e+003,7.215135e-001
1.974782e+003,6.861156e-001
1.976710e+003,6.622318e-001
1.978639e+003,6.844554e-001
1.980567e+003,7.634845e-001
1.982496e+003,8.251397e-001
1.984424e+003,8.640479e-001
1.986353e+003,8.871751e-001
1.988281e+003,9.055687e-001
1.990210e+003,9.144902e-001
1.992138e+003,9.217762e-001
1.994067e+003,9.226477e-001
1.995995e+003,9.211483e-001
1.997924e+003,9.075699e-001
1.999852e+003,8.851053e-001
2.001781e+003,8.469465e-001
2.003709e+003,7.978542e-001
2.005638e+003,7.360901e-001
2.007566e+003,6.972173e-001
2.009495e+003,6.876856e-001
2.011423e+003,6.859226e-001
2.013352e+003,6.770759e-001
2.015280e+003,6.681190e-001
2.017208e+003,6.562620e-001
2.019137e+003,6.475257e-001
2.021066e+003,6.369792e-001
2.022994e+003,6.308625e-001
2.024922e+003,6.227711e-001
2.026851e+003,6.175306e-001
2.028780e+003,6.115311e-001
2.030708e+003,6.134523e-001
2.032636e+003,6.152993e-001
2.034565e+003,6.314048e-001
2.036494e+003,6.679209e-001
2.038422e+003,7.136892e-001
2.040350e+003,7.524347e-001
2.042279e+003,7.914460e-001
2.044208e+003,8.257940e-001
2.046136e+003,8.632296e-001
2.048064e+003,9.085586e-001
2.049993e+003,1.009226e+000
2.051921e+003,1.139716e+000
2.053850e+003,1.201753e+000
2.055778e+003,1.246199e+000
2.057707e+003,1.295253e+000
2.059635e+003,1.328454e+000
2.061564e+003,1.361669e+000
2.063492e+003,1.391585e+000
2.065421e+003,1.425670e+000
2.067349e+003,1.459148e+000
2.069278e+003,1.498309e+000
2.071206e+003,1.538382e+000
2.073135e+003,1.584270e+000
2.075063e+003,1.629830e+000
2.076992e+003,1.679741e+000
2.078920e+003,1.732776e+000
2.080849e+003,1.788507e+000
2.082777e+003,1.834833e+000
2.084706e+003,1.875239e+000
2.086634e+003,1.905362e+000
2.088563e+003,1.927557e+000
2.090491e+003,1.929572e+000
2.092420e+003,1.909515e+000
2.094348e+003,1.861568e+000
2.096277e+003,1.839035e+000
2.098205e+003,1.850196e+000
2.100134e+003,1.872413e+000
2.102062e+003,1.892356e+000
2.103991e+003,1.911010e+000
2.105919e+003,1.926461e+000
2.107848e+003,1.944555e+000
2.109776e+003,1.962896e+000
2.111705e+003,1.983555e+000
2.113633e+003,2.004849e+000
2.115562e+003,2.020487e+000
2.117490e+003,2.011530e+000
2.119419e+003,1.982870e+000
2.121347e+003,1.939780e+000
2.123276e+003,1.884534e+000
2.125204e+003,1.814036e+000
2.127133e+003,1.730076e+000
2.129061e+003,1.627211e+000
2.130990e+003,1.507101e+000
2.132918e+003,1.366695e+000
2.134847e+003,1.241480e+000
2.136775e+003,1.155760e+000
2.138704e+003,1.090066e+000
2.140632e+003,1.024682e+000
2.142561e+003,9.611970e-001
2.144489e+003,8.958862e-001
2.146418e+003,8.345274e-001
2.148346e+003,7.795953e-001
2.150275e+003,7.308619e-001
2.152203e+003,6.743160e-001
2.154132e+003,6.085019e-001
2.156060e+003,5.287964e-001
2.157989e+003,4.501621e-001
2.159917e+003,4.320210e-001
2.161846e+003,4.835424e-001
2.163774e+003,5.344117e-001
2.165703e+003,5.813177e-001
2.167631e+003,6.268856e-001
2.169560e+003,6.672252e-001
2.171488e+003,6.891120e-001
2.173417e+003,6.968701e-001
2.175345e+003,6.947515e-001
2.177274e+003,7.069553e-001
2.179202e+003,7.179762e-001
2.181131e+003,7.196857e-001
2.183059e+003,7.306136e-001
2.184988e+003,7.616849e-001
2.186916e+003,7.938581e-001
2.188845e+003,8.256090e-001
2.190773e+003,8.539051e-001
2.192702e+003,8.819019e-001
2.194630e+003,9.064404e-001
2.196559e+003,9.319640e-001
2.198487e+003,9.539101e-001
2.200416e+003,9.775844e-001
2.202344e+003,9.983547e-001
2.204273e+003,1.020315e+000
2.206201e+003,1.039731e+000
2.208130e+003,1.062335e+000
2.210058e+003,1.082628e+000
2.211987e+003,1.104620e+000
2.213915e+003,1.125458e+000
2.215844e+003,1.149233e+000
2.217772e+003,1.174038e+000
2.219701e+003,1.201238e+000
2.221629e+003,1.227783e+000
2.223558e+003,1.257302e+000
2.225486e+003,1.285220e+000
2.227415e+003,1.316341e+000
2.229343e+003,1.347104e+000
2.231272e+003,1.382015e+000
2.233200e+003,1.416257e+000
2.235129e+003,1.454198e+000
2.237057e+003,1.491386e+000
2.238986e+003,1.530533e+000
2.240914e+003,1.568699e+000
2.242843e+003,1.608827e+000
2.244771e+003,1.646442e+000
2.246700e+003,1.686440e+000
2.248628e+003,1.722325e+000
2.250557e+003,1.757405e+000
2.252485e+003,1.785529e+000
2.254414e+003,1.814507e+000
2.256342e+003,1.858644e+000
2.258271e+003,1.918416e+000
2.260199e+003,1.972526e+000
2.262128e+003,2.021151e+000
2.264056e+003,2.064314e+000
2.265985e+003,2.114959e+000
2.267913e+003,2.178691e+000
2.269842e+003,2.255326e+000
2.271770e+003,2.335970e+000
2.273699e+003,2.425217e+000
2.275627e+003,2.522214e+000
2.277556e+003,2.635701e+000
2.279484e+003,2.763381e+000
2.281413e+003,2.910609e+000
2.283341e+003,3.064600e+000
2.285270e+003,3.213867e+000
2.287198e+003,3.353175e+000
2.289127e+003,3.485076e+000
2.291055e+003,3.603024e+000
2.292984e+003,3.701414e+000
2.294912e+003,3.778395e+000
2.296841e+003,3.838395e+000
2.298769e+003,3.877889e+000
2.300698e+003,3.900374e+000
2.302626e+003,3.909715e+000
2.304555e+003,3.880851e+000
2.306483e+003,3.797667e+000
2.308412e+003,3.697119e+000
2.310340e+003,3.589691e+000
2.312269e+003,3.504738e+000
2.314197e+003,3.465290e+000
2.316125e+003,3.398369e+000
2.318054e+003,3.226732e+000
2.319983e+003,3.039070e+000
2.321911e+003,2.944457e+000
2.323840e+003,3.011373e+000
2.325768e+003,3.099105e+000
2.327697e+003,2.960233e+000
2.329625e+003,2.742270e+000
2.331553e+003,2.629577e+000
2.333482e+003,2.611597e+000
2.335411e+003,2.536358e+000
2.337339e+003,2.443900e+000
2.339268e+003,2.379333e+000
2.341196e+003,2.334245e+000
2.343125e+003,2.390775e+000
2.345053e+003,2.662552e+000
2.346981e+003,3.491049e+000
2.348910e+003,4.003722e+000
2.350839e+003,3.237577e+000
2.352767e+003,2.384782e+000
2.354696e+003,1.870567e+000
2.356624e+003,1.567061e+000
2.358552e+003,1.400361e+000
2.360481e+003,1.350974e+000
2.362409e+003,1.368728e+000
2.364338e+003,1.450907e+000
2.366267e+003,1.603263e+000
2.368195e+003,1.829097e+000
2.370124e+003,2.132402e+000
2.372052e+003,2.518072e+000
2.373980e+003,2.976496e+000
2.375909e+003,3.498307e+000
2.377838e+003,4.065972e+000
2.379766e+003,4.643678e+000
2.381695e+003,5.154354e+000
2.383623e+003,5.518294e+000
2.385552e+003,5.703084e+000
2.387480e+003,5.745417e+000
2.389408e+003,5.706596e+000
2.391337e+003,5.631108e+000
2.393266e+003,5.543788e+000
2.395194e+003,5.454592e+000
2.397123e+003,5.367146e+000
2.399051e+003,5.281291e+000
2.400979e+003,5.197490e+000
2.402908e+003,5.113602e+000
2.404836e+003,5.027558e+000
2.406765e+003,4.948839e+000
2.408694e+003,4.897340e+000
2.410622e+003,4.859279e+000
2.412551e+003,4.817186e+000
2.414479e+003,4.771650e+000
2.416407e+003,4.725855e+000
2.418336e+003,4.681267e+000
2.420264e+003,4.639380e+000
2.422193e+003,4.598810e+000
2.424122e+003,4.560407e+000
2.426050e+003,4.524527e+000
2.427979e+003,4.492797e+000
2.429907e+003,4.462990e+000
2.431835e+003,4.437633e+000
2.433764e+003,4.414570e+000
2.435692e+003,4.394238e+000
2.437621e+003,4.377374e+000
2.439550e+003,4.363666e+000
2.441478e+003,4.352782e+000
2.443406e+003,4.347257e+000
2.445335e+003,4.343760e+000
2.447263e+003,4.344890e+000
2.449192e+003,4.350430e+000
2.451121e+003,4.360432e+000
2.453049e+003,4.372816e+000
2.454978e+003,4.388521e+000
2.456906e+003,4.402005e+000
2.458834e+003,4.409618e+000
2.460763e+003,4.409348e+000
2.462691e+003,4.404157e+000
2.464620e+003,4.395282e+000
2.466549e+003,4.384934e+000
2.468477e+003,4.371957e+000
2.470406e+003,4.358396e+000
2.472334e+003,4.343043e+000
2.474262e+003,4.329159e+000
2.476191e+003,4.314350e+000
2.478119e+003,4.300124e+000
2.480048e+003,4.286160e+000
2.481977e+003,4.273539e+000
2.483905e+003,4.261358e+000
2.485833e+003,4.250430e+000
2.487762e+003,4.241583e+000
2.489690e+003,4.234985e+000
2.491619e+003,4.228362e+000
2.493547e+003,4.224189e+000
2.495476e+003,4.220057e+000
2.497405e+003,4.215634e+000
2.499333e+003,4.210369e+000
2.501261e+003,4.205468e+000
2.503190e+003,4.199332e+000
2.505118e+003,4.194107e+000
2.507047e+003,4.188771e+000
2.508975e+003,4.184072e+000
2.510904e+003,4.178762e+000
2.512833e+003,4.174861e+000
2.514761e+003,4.171261e+000
2.516689e+003,4.168155e+000
2.518618e+003,4.166034e+000
2.520546e+003,4.164958e+000
2.522475e+003,4.163554e+000
2.524403e+003,4.163097e+000
2.526332e+003,4.163967e+000
2.528260e+003,4.166723e+000
2.530189e+003,4.169588e+000
2.532117e+003,4.173942e+000
2.534046e+003,4.177742e+000
2.535974e+003,4.183730e+000
2.537903e+003,4.190428e+000
2.539831e+003,4.198352e+000
2.541760e+003,4.207600e+000
2.543688e+003,4.218434e+000
2.545617e+003,4.229308e+000
2.547545e+003,4.243695e+000
2.549474e+003,4.259043e+000
2.551402e+003,4.276886e+000
2.553331e+003,4.294859e+000
2.555259e+003,4.313687e+000
2.557188e+003,4.334219e+000
2.559116e+003,4.358241e+000
2.561045e+003,4.383804e+000
2.562973e+003,4.411282e+000
2.564902e+003,4.440443e+000
2.566830e+003,4.470885e+000
2.568759e+003,4.503573e+000
2.570687e+003,4.539676e+000
2.572616e+003,4.577072e+000
2.574544e+003,4.617113e+000
2.576473e+003,4.659239e+000
2.578401e+003,4.704332e+000
2.580330e+003,4.751455e+000
2.582258e+003,4.801900e+000
2.584187e+003,4.854508e+000
2.586115e+003,4.911481e+000
2.588044e+003,4.970554e+000
2.589972e+003,5.032453e+000
2.591901e+003,5.097553e+000
2.593829e+003,5.166649e+000
2.595758e+003,5.238800e+000
2.597686e+003,5.315539e+000
2.599615e+003,5.394938e+000
2.601543e+003,5.479090e+000
2.603472e+003,5.567910e+000
2.605400e+003,5.661428e+000
2.607329e+003,5.758277e+000
2.609257e+003,5.861627e+000
2.611186e+003,5.969856e+000
2.613114e+003,6.082704e+000
2.615043e+003,6.200615e+000
2.616971e+003,6.325409e+000
2.618900e+003,6.454645e+000
2.620828e+003,6.590961e+000
2.622757e+003,6.733635e+000
2.624685e+003,6.882562e+000
2.626614e+003,7.036950e+000
2.628542e+003,7.198837e+000
2.630471e+003,7.367027e+000
2.632399e+003,7.542903e+000
2.634328e+003,7.725059e+000
2.636256e+003,7.914277e+000
2.638185e+003,8.109003e+000
2.640113e+003,8.310035e+000
2.642042e+003,8.516447e+000
2.643970e+003,8.728194e+000
2.645899e+003,8.944065e+000
2.647827e+003,9.162603e+000
2.649756e+003,9.381625e+000
2.651684e+003,9.600523e+000
2.653613e+003,9.815070e+000
2.655541e+003,1.002237e+001
2.657470e+003,1.021665e+001
2.659398e+003,1.039232e+001
2.661327e+003,1.053819e+001
2.663255e+003,1.064104e+001
2.665184e+003,1.069330e+001
2.667112e+003,1.070953e+001
2.669041e+003,1.070910e+001
2.670969e+003,1.070251e+001
2.672898e+003,1.069183e+001
2.674826e+003,1.067959e+001
2.676755e+003,1.066491e+001
2.678683e+003,1.064919e+001
2.680612e+003,1.063246e+001
2.682540e+003,1.061554e+001
2.684469e+003,1.059757e+001
2.686397e+003,1.057936e+001
2.688326e+003,1.056090e+001
2.690254e+003,1.054276e+001
2.692183e+003,1.052462e+001
2.694111e+003,1.050653e+001
2.696040e+003,1.048776e+001
2.697968e+003,1.046917e+001
2.699897e+003,1.045072e+001
2.701825e+003,1.043223e+001
2.703754e+003,1.041281e+001
2.705682e+003,1.039576e+001
2.707611e+003,1.037729e+001
2.709539e+003,1.035817e+001
2.711468e+003,1.033918e+001
2.713396e+003,1.032134e+001
2.715325e+003,1.030315e+001
2.717253e+003,1.028458e+001
2.719182e+003,1.026604e+001
2.721110e+003,1.024766e+001
2.723039e+003,1.022904e+001
2.724967e+003,1.021183e+001
2.726896e+003,1.019315e+001
2.728824e+003,1.017398e+001
2.730753e+003,1.015544e+001
2.732681e+003,1.013767e+001
2.734610e+003,1.011948e+001
2.736538e+003,1.010223e+001
2.738467e+003,1.008444e+001
2.740395e+003,1.006472e+001
2.742324e+003,1.004529e+001
2.744252e+003,1.002808e+001
2.746181e+003,1.001037e+001
2.748109e+003,9.991738e+000
2.750038e+003,9.972069e+000
2.751966e+003,9.952927e+000
2.753895e+003,9.933337e+000
2.755823e+003,9.914458e+000
2.757752e+003,9.895710e+000
2.759680e+003,9.876181e+000
2.761609e+003,9.856015e+000
2.763537e+003,9.837475e+000
2.765466e+003,9.819472e+000
2.767394e+003,9.800995e+000
2.769323e+003,9.781191e+000
2.771251e+003,9.761301e+000
2.773180e+003,9.742270e+000
2.775108e+003,9.723126e+000
2.777037e+003,9.702003e+000
2.778965e+003,9.682659e+000
2.780894e+003,9.662175e+000
2.782822e+003,9.642185e+000
2.784750e+003,9.622561e+000
2.786679e+003,9.604145e+000
2.788608e+003,9.585357e+000
2.790536e+003,9.565053e+000
2.792465e+003,9.545228e+000
2.794393e+003,9.526048e+000
2.796322e+003,9.506902e+000
2.798250e+003,9.487779e+000
2.800178e+003,9.466660e+000
2.802107e+003,9.446362e+000
2.804036e+003,9.426017e+000
2.805964e+003,9.406090e+000
2.807893e+003,9.386786e+000
2.809821e+003,9.367640e+000
2.811750e+003,9.346396e+000
2.813678e+003,9.326433e+000
2.815606e+003,9.305902e+000
2.817535e+003,9.284782e+000
2.819464e+003,9.263824e+000
2.821392e+003,9.243452e+000
2.823321e+003,9.222925e+000
2.825249e+003,9.201438e+000
2.827177e+003,9.179293e+000
2.829106e+003,9.157061e+000
2.831034e+003,9.135099e+000
2.832963e+003,9.113003e+000
2.834892e+003,9.090142e+000
2.836820e+003,9.067780e+000
2.838749e+003,9.044751e+000
2.840677e+003,9.016049e+000
2.842605e+003,8.986483e+000
2.844534e+003,8.957050e+000
2.846462e+003,8.926906e+000
2.848391e+003,8.897304e+000
2.850320e+003,8.869773e+000
2.852248e+003,8.846596e+000
2.854177e+003,8.825363e+000
2.856105e+003,8.805155e+000
2.858033e+003,8.785685e+000
2.859962e+003,8.766345e+000
2.861890e+003,8.745852e+000
2.863819e+003,8.725123e+000
2.865748e+003,8.703678e+000
2.867676e+003,8.682320e+000
2.869604e+003,8.660161e+000
2.871533e+003,8.640061e+000
2.873461e+003,8.619320e+000
2.875390e+003,8.594478e+000
2.877319e+003,8.571896e+000
2.879247e+003,8.550677e+000
2.881176e+003,8.528647e+000
2.883104e+003,8.506767e+000
2.885032e+003,8.485314e+000
2.886961e+003,8.463306e+000
2.888889e+003,8.440790e+000
2.890818e+003,8.417363e+000
2.892747e+003,8.393003e+000
2.894675e+003,8.368769e+000
2.896604e+003,8.344393e+000
2.898532e+003,8.319399e+000
2.900460e+003,8.294679e+000
2.902389e+003,8.270041e+000
2.904317e+003,8.243756e+000
2.906246e+003,8.216448e+000
2.908175e+003,8.191212e+000
2.910103e+003,8.164663e+000
2.912031e+003,8.139153e+000
2.913960e+003,8.109937e+000
2.915888e+003,8.075113e+000
2.917817e+003,8.047123e+000
2.919745e+003,8.022682e+000
2.921674e+003,7.998502e+000
2.923603e+003,7.975064e+000
2.925531e+003,7.950913e+000
2.927459e+003,7.931260e+000
2.929388e+003,7.918806e+000
2.931316e+003,7.902422e+000
2.933245e+003,7.885843e+000
2.935173e+003,7.868870e+000
2.937102e+003,7.848560e+000
2.939031e+003,7.836036e+000
2.940959e+003,7.826497e+000
2.942887e+003,7.812807e+000
2.944816e+003,7.794910e+000
2.946744e+003,7.769815e+000
2.948673e+003,7.746843e+000
2.950601e+003,7.728727e+000
2.952530e+003,7.706093e+000
2.954458e+003,7.680480e+000
2.956387e+003,7.651453e+000
2.958315e+003,7.621923e+000
2.960244e+003,7.603854e+000
2.962172e+003,7.583678e+000
2.964101e+003,7.563094e+000
2.966029e+003,7.544866e+000
2.967958e+003,7.530184e+000
2.969886e+003,7.524123e+000
2.971815e+003,7.519515e+000
2.973743e+003,7.510229e+000
2.975672e+003,7.498466e+000
2.977600e+003,7.481283e+000
2.979529e+003,7.469395e+000
2.981457e+003,7.459419e+000
2.983386e+003,7.443191e+000
2.985314e+003,7.425686e+000
2.987243e+003,7.406518e+000
2.989171e+003,7.388711e+000
2.991100e+003,7.377543e+000
2.993028e+003,7.358934e+000
2.994957e+003,7.337449e+000
2.996885e+003,7.319014e+000
2.998814e+003,7.298823e+000
3.000742e+003,7.279364e+000
3.002671e+003,7.260487e+000
3.004599e+003,7.239462e+000
3.006528e+003,7.219294e+000
3.008456e+003,7.199739e+000
3.010385e+003,7.182454e+000
3.012313e+003,7.159104e+000
3.014242e+003,7.126904e+000
3.016170e+003,7.086735e+000
3.018099e+003,7.073721e+000
3.020027e+003,7.079260e+000
3.021956e+003,7.066611e+000
3.023884e+003,7.048731e+000
3.025813e+003,7.028847e+000
3.027741e+003,7.008753e+000
3.029670e+003,6.989716e+000
3.031598e+003,6.971791e+000
3.033527e+003,6.955782e+000
3.035455e+003,6.937428e+000
3.037384e+003,6.917818e+000
3.039312e+003,6.902423e+000
3.041241e+003,6.888685e+000
3.043169e+003,6.870595e+000
3.045098e+003,6.849963e+000
3.047026e+003,6.827523e+000
3.048955e+003,6.811257e+000
3.050883e+003,6.798555e+000
3.052812e+003,6.780248e+000
3.054740e+003,6.761135e+000
3.056669e+003,6.736891e+000
3.058597e+003,6.721162e+000
3.060526e+003,6.709579e+000
3.062454e+003,6.692971e+000
3.064383e+003,6.674589e+000
3.066311e+003,6.652879e+000
3.068240e+003,6.638150e+000
3.070168e+003,6.626320e+000
3.072097e+003,6.609867e+000
3.074025e+003,6.591484e+000
3.075954e+003,6.572122e+000
3.077882e+003,6.561887e+000
3.079811e+003,6.547716e+000
3.081739e+003,6.529192e+000
3.083668e+003,6.507555e+000
3.085596e+003,6.481235e+000
3.087525e+003,6.469893e+000
3.089453e+003,6.459536e+000
3.091382e+003,6.441077e+000
3.093310e+003,6.417533e+000
3.095239e+003,6.395362e+000
3.097167e+003,6.385162e+000
3.099096e+003,6.371099e+000
3.101024e+003,6.353464e+000
3.102953e+003,6.331501e+000
3.104881e+003,6.314979e+000
3.106810e+003,6.305257e+000
3.108738e+003,6.291114e+000
3.110667e+003,6.271225e+000
3.112595e+003,6.250521e+000
3.114524e+003,6.239613e+000
3.116452e+003,6.229959e+000
3.118381e+003,6.212854e+000
3.120309e+003,6.193178e+000
3.122238e+003,6.163706e+000
3.124166e+003,6.147316e+000
3.126095e+003,6.139145e+000
3.128023e+003,6.128252e+000
3.129952e+003,6.112059e+000
3.131880e+003,6.095671e+000
3.133809e+003,6.081914e+000
3.135737e+003,6.068040e+000
3.137666e+003,6.054233e+000
3.139594e+003,6.038065e+000
3.141523e+003,6.020802e+000
3.143451e+003,6.006252e+000
3.145380e+003,5.991165e+000
3.147308e+003,5.975930e+000
3.149237e+003,5.961701e+000
3.151165e+003,5.952826e+000
3.153094e+003,5.938740e+000
3.155022e+003,5.920696e+000
3.156951e+003,5.905087e+000
3.158879e+003,5.891866e+000
3.160808e+003,5.879089e+000
3.162736e+003,5.865510e+000
3.164665e+003,5.852140e+000
3.166593e+003,5.839227e+000
3.168522e+003,5.825809e+000
3.170450e+003,5.812038e+000
3.172379e+003,5.798814e+000
3.174307e+003,5.786233e+000
3.176236e+003,5.773151e+000
3.178164e+003,5.760130e+000
3.180093e+003,5.747970e+000
3.182021e+003,5.735916e+000
3.183950e+003,5.723500e+000
3.185878e+003,5.712267e+000
3.187807e+003,5.700772e+000
3.189735e+003,5.689026e+000
3.191664e+003,5.677662e+000
3.193592e+003,5.666889e+000
3.195521e+003,5.655270e+000
3.197449e+003,5.643984e+000
3.199378e+003,5.633754e+000
3.201306e+003,5.624551e+000
3.203235e+003,5.615020e+000
3.205163e+003,5.606116e+000
3.207092e+003,5.597054e+000
3.209020e+003,5.588089e+000
3.210948e+003,5.580350e+000
3.212877e+003,5.573492e+000
3.214806e+003,5.566617e+000
3.216734e+003,5.560268e+000
3.218663e+003,5.553566e+000
3.220591e+003,5.548056e+000
3.222520e+003,5.542012e+000
3.224448e+003,5.535524e+000
3.226376e+003,5.529067e+000
3.228305e+003,5.523697e+000
3.230234e+003,5.519141e+000
3.232162e+003,5.517911e+000
3.234091e+003,5.512865e+000
3.236019e+003,5.505556e+000
3.237948e+003,5.501400e+000
3.239876e+003,5.496826e+000
3.241804e+003,5.492683e+000
3.243733e+003,5.488746e+000
3.245662e+003,5.486756e+000
3.247590e+003,5.484605e+000
3.249519e+003,5.480595e+000
3.251447e+003,5.478555e+000
3.253375e+003,5.477083e+000
3.255304e+003,5.476533e+000
3.257232e+003,5.474936e+000
3.259161e+003,5.474054e+000
3.261090e+003,5.473290e+000
3.263018e+003,5.473567e+000
3.264947e+003,5.474417e+000
3.266875e+003,5.475930e+000
3.268803e+003,5.478909e+000
3.270732e+003,5.482163e+000
3.272660e+003,5.480342e+000
3.274589e+003,5.480030e+000
3.276518e+003,5.480974e+000
3.278446e+003,5.482558e+000
3.280375e+003,5.482826e+000
3.282303e+003,5.483472e+000
3.284231e+003,5.484137e+000
3.286160e+003,5.485139e+000
3.288088e+003,5.485308e+000
3.290017e+003,5.487188e+000
3.291946e+003,5.488338e+000
3.293874e+003,5.487140e+000
3.295802e+003,5.486454e+000
3.297731e+003,5.485590e+000
3.299659e+003,5.484866e+000
3.301588e+003,5.484889e+000
3.303516e+003,5.488626e+000
3.305445e+003,5.492135e+000
3.307374e+003,5.487722e+000
3.309302e+003,5.483367e+000
3.311230e+003,5.480792e+000
3.313159e+003,5.479712e+000
3.315087e+003,5.478707e+000
3.317016e+003,5.477960e+000
3.318944e+003,5.476310e+000
3.320873e+003,5.473972e+000
3.322802e+003,5.470453e+000
3.324730e+003,5.469432e+000
3.326658e+003,5.468652e+000
3.328587e+003,5.467774e+000
3.330515e+003,5.466080e+000
3.332444e+003,5.463933e+000
3.334372e+003,5.460967e+000
3.336301e+003,5.459240e+000
3.338229e+003,5.458284e+000
3.340158e+003,5.455314e+000
3.342086e+003,5.452191e+000
3.344015e+003,5.449185e+000
3.345943e+003,5.445704e+000
3.347872e+003,5.444023e+000
3.349800e+003,5.442162e+000
3.351729e+003,5.437801e+000
3.353657e+003,5.432837e+000
3.355586e+003,5.429106e+000
3.357514e+003,5.425251e+000
3.359443e+003,5.422727e+000
3.361371e+003,5.418467e+000
3.363300e+003,5.414013e+000
3.365229e+003,5.409847e+000
3.367157e+003,5.408237e+000
3.369085e+003,5.406267e+000
3.371014e+003,5.398288e+000
3.372942e+003,5.389796e+000
3.374871e+003,5.384706e+000
3.376799e+003,5.379004e+000
3.378728e+003,5.373256e+000
3.380656e+003,5.365695e+000
3.382585e+003,5.358607e+000
3.384513e+003,5.350364e+000
3.386442e+003,5.343632e+000
3.388370e+003,5.336766e+000
3.390299e+003,5.331812e+000
3.392227e+003,5.322150e+000
3.394156e+003,5.310393e+000
3.396084e+003,5.300218e+000
3.398013e+003,5.293686e+000
3.399941e+003,5.287446e+000
3.401870e+003,5.274817e+000
3.403798e+003,5.261420e+000
3.405727e+003,5.250913e+000
3.407655e+003,5.240635e+000
3.409584e+003,5.229741e+000
3.411512e+003,5.217569e+000
3.413441e+003,5.205829e+000
3.415369e+003,5.192728e+000
3.417298e+003,5.180049e+000
3.419226e+003,5.165382e+000
3.421155e+003,5.152359e+000
3.423083e+003,5.139315e+000
3.425012e+003,5.125805e+000
3.426940e+003,5.110671e+000
3.428869e+003,5.097226e+000
3.430797e+003,5.081400e+000
3.432726e+003,5.066348e+000
3.434654e+003,5.052958e+000
3.436583e+003,5.038279e+000
3.438511e+003,5.023896e+000
3.440440e+003,5.011722e+000
3.442368e+003,5.000607e+000
3.444297e+003,4.991590e+000
3.446225e+003,4.979957e+000
3.448154e+003,4.972174e+000
3.450082e+003,4.965396e+000
3.452011e+003,4.957344e+000
3.453939e+003,4.948699e+000
3.455868e+003,4.939710e+000
3.457796e+003,4.929638e+000
3.459725e+003,4.920666e+000
3.461653e+003,4.910263e+000
3.463582e+003,4.901184e+000
3.465510e+003,4.893195e+000
3.467439e+003,4.885236e+000
3.469367e+003,4.875896e+000
3.471296e+003,4.865914e+000
3.473224e+003,4.856275e+000
3.475153e+003,4.848391e+000
3.477081e+003,4.841584e+000
3.479010e+003,4.834751e+000
3.480938e+003,4.825419e+000
3.482867e+003,4.818956e+000
3.484795e+003,4.814205e+000
3.486724e+003,4.808069e+000
3.488652e+003,4.802025e+000
3.490581e+003,4.798395e+000
3.492509e+003,4.793448e+000
3.494438e+003,4.787920e+000
3.496366e+003,4.782369e+000
3.498295e+003,4.778395e+000
3.500223e+003,4.773158e+000
3.502152e+003,4.766120e+000
3.504080e+003,4.760771e+000
3.506009e+003,4.758904e+000
3.507937e+003,4.752130e+000
3.509866e+003,4.745846e+000
3.511794e+003,4.742975e+000
3.513723e+003,4.739605e+000
3.515651e+003,4.733119e+000
3.517580e+003,4.726779e+000
3.519508e+003,4.720094e+000
3.521437e+003,4.712401e+000
3.523365e+003,4.703485e+000
3.525294e+003,4.696414e+000
3.527222e+003,4.687174e+000
3.529151e+003,4.681141e+000
3.531079e+003,4.674752e+000
3.533008e+003,4.667334e+000
3.534936e+003,4.655839e+000
3.536865e+003,4.645740e+000
3.538793e+003,4.635570e+000
3.540722e+003,4.625031e+000
3.542650e+003,4.610308e+000
3.544579e+003,4.593241e+000
3.546507e+003,4.578210e+000
3.548436e+003,4.570932e+000
3.550364e+003,4.558421e+000
3.552293e+003,4.541668e+000
3.554221e+003,4.529946e+000
3.556150e+003,4.518032e+000
3.558078e+003,4.500229e+000
3.560007e+003,4.481730e+000
3.561935e+003,4.464075e+000
3.563864e+003,4.440738e+000
3.565792e+003,4.406248e+000
3.567721e+003,4.385746e+000
3.569649e+003,4.386202e+000
3.571578e+003,4.376003e+000
3.573506e+003,4.355221e+000
3.575435e+003,4.334722e+000
3.577363e+003,4.313428e+000
3.579292e+003,4.289903e+000
3.581220e+003,4.264399e+000
3.583149e+003,4.235163e+000
3.585077e+003,4.191474e+000
3.587006e+003,4.144352e+000
3.588934e+003,4.122987e+000
3.590863e+003,4.113348e+000
3.592791e+003,4.083883e+000
3.594720e+003,4.057244e+000
3.596648e+003,4.041485e+000
3.598577e+003,4.029316e+000
3.600505e+003,4.017193e+000
3.602434e+003,4.018340e+000
3.604362e+003,4.020273e+000
3.606291e+003,4.018068e+000
3.608219e+003,4.015879e+000
3.610148e+003,4.044936e+000
3.612076e+003,4.062845e+000
3.614005e+003,4.045776e+000
3.615933e+003,4.001164e+000
3.617862e+003,3.939117e+000
3.619790e+003,3.897081e+000
3.621719e+003,3.887430e+000
3.623647e+003,3.872611e+000
3.625576e+003,3.851262e+000
3.627504e+003,3.800962e+000
3.629433e+003,3.795578e+000
3.631361e+003,3.856725e+000
3.633290e+003,3.884347e+000
3.635218e+003,3.906334e+000
3.637146e+003,3.925349e+000
3.639075e+003,3.940024e+000
3.641004e+003,3.949461e+000
3.642932e+003,3.955025e+000
3.644861e+003,3.948902e+000
3.646789e+003,3.915895e+000
3.648718e+003,3.886072e+000
3.650646e+003,3.904408e+000
3.652574e+003,3.945029e+000
3.654503e+003,3.935001e+000
3.656432e+003,3.921485e+000
3.658360e+003,3.943839e+000
3.660289e+003,3.949577e+000
3.662217e+003,3.945331e+000
3.664146e+003,3.942946e+000
3.666074e+003,3.933444e+000
3.668002e+003,3.898391e+000
3.669931e+003,3.856483e+000
3.671860e+003,3.875336e+000
3.673788e+003,3.848722e+000
3.675717e+003,3.808955e+000
3.677645e+003,3.861180e+000
3.679573e+003,3.884237e+000
3.681502e+003,3.890464e+000
3.683430e+003,3.880842e+000
3.685359e+003,3.860388e+000
3.687288e+003,3.796443e+000
3.689216e+003,3.777199e+000
3.691145e+003,3.795958e+000
3.693073e+003,3.803316e+000
3.695001e+003,3.798171e+000
3.696930e+003,3.786724e+000
3.698858e+003,3.777277e+000
3.700787e+003,3.760639e+000
3.702716e+003,3.769109e+000
3.704644e+003,3.793079e+000
3.706573e+003,3.812960e+000
3.708501e+003,3.828228e+000
3.710429e+003,3.851062e+000
3.712358e+003,3.906017e+000
3.714286e+003,3.984111e+000
3.716215e+003,3.980157e+000
3.718144e+003,3.933614e+000
3.720072e+003,3.887306e+000
3.722000e+003,3.852006e+000
3.723929e+003,3.830281e+000
3.725857e+003,3.818262e+000
3.727786e+003,3.829068e+000
3.729714e+003,3.845111e+000
3.731643e+003,3.845205e+000
3.733572e+003,3.884905e+000
3.735500e+003,3.917301e+000
3.737428e+003,3.998171e+000
3.739357e+003,4.081401e+000
3.741285e+003,4.129003e+000
3.743214e+003,4.090384e+000
3.745142e+003,4.131173e+000
3.747071e+003,4.227785e+000
3.749000e+003,4.213835e+000
3.750928e+003,4.229262e+000
3.752856e+003,4.287561e+000
3.754785e+003,4.369401e+000
3.756713e+003,4.386446e+000
3.758642e+003,4.402368e+000
3.760570e+003,4.423289e+000
3.762499e+003,4.459881e+000
3.764427e+003,4.461668e+000
3.766356e+003,4.481739e+000
3.768284e+003,4.488152e+000
3.770213e+003,4.503242e+000
3.772141e+003,4.539404e+000
3.774070e+003,4.564422e+000
3.775998e+003,4.575532e+000
3.777927e+003,4.579530e+000
3.779855e+003,4.588925e+000
3.781784e+003,4.619002e+000
3.783712e+003,4.629580e+000
3.785641e+003,4.646942e+000
3.787569e+003,4.661891e+000
3.789498e+003,4.677386e+000
3.791426e+003,4.687666e+000
3.793355e+003,4.698761e+000
3.795283e+003,4.691725e+000
3.797212e+003,4.703921e+000
3.799140e+003,4.690903e+000
3.801069e+003,4.651878e+000
3.802997e+003,4.708944e+000
3.804926e+003,4.732375e+000
3.806854e+003,4.712077e+000
3.808783e+003,4.764509e+000
3.810711e+003,4.791407e+000
3.812640e+003,4.795524e+000
3.814568e+003,4.744122e+000
3.816497e+003,4.740558e+000
3.818425e+003,4.789553e+000
3.820354e+003,4.763699e+000
3.822282e+003,4.790366e+000
3.824211e+003,4.837870e+000
3.826139e+003,4.841112e+000
3.828068e+003,4.854821e+000
3.829996e+003,4.851774e+000
3.831925e+003,4.847789e+000
3.833853e+003,4.850586e+000
3.835782e+003,4.822013e+000
3.837710e+003,4.793230e+000
3.839639e+003,4.844181e+000
3.841567e+003,4.874361e+000
3.843496e+003,4.886663e+000
3.845424e+003,4.902897e+000
3.847353e+003,4.915321e+000
3.849281e+003,4.895271e+000
3.851210e+003,4.819877e+000
3.853138e+003,4.734195e+000
3.855067e+003,4.809411e+000
3.856995e+003,4.906872e+000
3.858924e+003,4.922290e+000
3.860852e+003,4.911586e+000
3.862781e+003,4.899574e+000
3.864709e+003,4.889341e+000
3.866638e+003,4.907179e+000
3.868566e+003,4.874484e+000
3.870495e+003,4.870274e+000
3.872423e+003,4.908856e+000
3.874352e+003,4.910639e+000
3.876280e+003,4.930758e+000
3.878209e+003,4.920243e+000
3.880137e+003,4.904137e+000
3.882066e+003,4.915904e+000
3.883994e+003,4.898927e+000
3.885923e+003,4.883945e+000
3.887851e+003,4.921363e+000
3.889780e+003,4.904613e+000
3.891708e+003,4.897923e+000
3.893637e+003,4.921509e+000
3.895565e+003,4.927653e+000
3.897494e+003,4.907613e+000
3.899422e+003,4.885259e+000
3.901351e+003,4.876681e+000
3.903279e+003,4.871547e+000
3.905208e+003,4.889764e+000
3.907136e+003,4.913642e+000
3.909065e+003,4.917256e+000
3.910993e+003,4.915606e+000
3.912922e+003,4.912632e+000
3.914850e+003,4.901805e+000
3.916779e+003,4.886963e+000
3.918707e+003,4.888714e+000
3.920636e+003,4.892227e+000
3.922564e+003,4.891043e+000
3.924493e+003,4.882437e+000
3.926421e+003,4.886493e+000
3.928350e+003,4.883190e+000
3.930278e+003,4.873106e+000
3.932207e+003,4.865367e+000
3.934135e+003,4.870553e+000
3.936064e+003,4.870469e+000
3.937992e+003,4.866216e+000
3.939921e+003,4.859694e+000
3.941849e+003,4.848990e+000
3.943778e+003,4.845770e+000
3.945706e+003,4.844832e+000
3.947635e+003,4.835761e+000
3.949563e+003,4.832108e+000
3.951492e+003,4.829938e+000
3.953420e+003,4.826922e+000
3.955349e+003,4.820711e+000
3.957277e+003,4.814704e+000
3.959206e+003,4.807244e+000
3.961134e+003,4.800796e+000
3.963063e+003,4.795866e+000
3.964991e+003,4.791867e+000
3.966920e+003,4.784142e+000
3.968848e+003,4.777449e+000
3.970777e+003,4.770059e+000
3.972705e+003,4.763194e+000
3.974634e+003,4.755807e+000
3.976562e+003,4.750233e+000
3.978491e+003,4.743281e+000
3.980419e+003,4.735939e+000
3.982348e+003,4.728297e+000
3.984276e+003,4.721914e+000
3.986205e+003,4.714200e+000
3.988133e+003,4.706403e+000
3.990062e+003,4.698180e+000
3.991990e+003,4.691782e+000
3.993919e+003,4.683819e+000
3.995847e+003,4.676437e+000
3.997776e+003,4.668745e+000
3.999704e+003,4.661019e+000
4.001633e+003,0.000000e+000
