3.991989e+002,9.275516e-001
4.011274e+002,9.963164e-001
4.030559e+002,1.068449e+000
4.049844e+002,1.136877e+000
4.069129e+002,1.212502e+000
4.088414e+002,1.286432e+000
4.107699e+002,1.363846e+000
4.126984e+002,1.447690e+000
4.146269e+002,1.538180e+000
4.165554e+002,1.614673e+000
4.184839e+002,1.687270e+000
4.204124e+002,1.780875e+000
4.223409e+002,1.880932e+000
4.242694e+002,1.972148e+000
4.261979e+002,2.067799e+000
4.281264e+002,2.152240e+000
4.300549e+002,2.242360e+000
4.319834e+002,2.330817e+000
4.339119e+002,2.413597e+000
4.358404e+002,2.491789e+000
4.377689e+002,2.578288e+000
4.396974e+002,2.650958e+000
4.416259e+002,2.730156e+000
4.435544e+002,2.798757e+000
4.454829e+002,2.868379e+000
4.474114e+002,2.933861e+000
4.493399e+002,2.999278e+000
4.512684e+002,3.053659e+000
4.531969e+002,3.117870e+000
4.551254e+002,3.175372e+000
4.570539e+002,3.230742e+000
4.589824e+002,3.296568e+000
4.609109e+002,3.367013e+000
4.628394e+002,3.420219e+000
4.647679e+002,3.481953e+000
4.666964e+002,3.532365e+000
4.686249e+002,3.595357e+000
4.705533e+002,3.655797e+000
4.724819e+002,3.711432e+000
4.744103e+002,3.769741e+000
4.763389e+002,3.840999e+000
4.782673e+002,3.904365e+000
4.801959e+002,3.986422e+000
4.821243e+002,4.065517e+000
4.840529e+002,4.141620e+000
4.859813e+002,4.213232e+000
4.879099e+002,4.289449e+000
4.898383e+002,4.344917e+000
4.917668e+002,4.405223e+000
4.936953e+002,4.450856e+000
4.956238e+002,4.493350e+000
4.975523e+002,4.535161e+000
4.994808e+002,4.584449e+000
5.014093e+002,4.620875e+000
5.033378e+002,4.683006e+000
5.052663e+002,4.738453e+000
5.071948e+002,4.792954e+000
5.091233e+002,4.846419e+000
5.110518e+002,4.902480e+000
5.129803e+002,4.947899e+000
5.149088e+002,5.003511e+000
5.168373e+002,5.042222e+000
5.187658e+002,5.097382e+000
5.206943e+002,5.156310e+000
5.226228e+002,5.217270e+000
5.245513e+002,5.266536e+000
5.264798e+002,5.337633e+000
5.284083e+002,5.399115e+000
5.303368e+002,5.467858e+000
5.322653e+002,5.528822e+000
5.341938e+002,5.588347e+000
5.361223e+002,5.638116e+000
5.380508e+002,5.702243e+000
5.399792e+002,5.745628e+000
5.419078e+002,5.793387e+000
5.438363e+002,5.833963e+000
5.457648e+002,5.880709e+000
5.476932e+002,5.919717e+000
5.496218e+002,5.968393e+000
5.515503e+002,6.000406e+000
5.534788e+002,6.051663e+000
5.554072e+002,6.089022e+000
5.573358e+002,6.137736e+000
5.592643e+002,6.184202e+000
5.611927e+002,6.248040e+000
5.631212e+002,6.295020e+000
5.650497e+002,6.357176e+000
5.669783e+002,6.399894e+000
5.689067e+002,6.455821e+000
5.708352e+002,6.495105e+000
5.727637e+002,6.542473e+000
5.746923e+002,6.571338e+000
5.766207e+002,6.618717e+000
5.785492e+002,6.647894e+000
5.804777e+002,6.695493e+000
5.824063e+002,6.718138e+000
5.843347e+002,6.757833e+000
5.862632e+002,6.781681e+000
5.881917e+002,6.827979e+000
5.901202e+002,6.874543e+000
5.920487e+002,6.952199e+000
5.939772e+002,7.010519e+000
5.959057e+002,7.080512e+000
5.978342e+002,7.140789e+000
5.997627e+002,7.236886e+000
6.016912e+002,7.295145e+000
6.036197e+002,7.381629e+000
6.055482e+002,7.438730e+000
6.074767e+002,7.521433e+000
6.094052e+002,7.578818e+000
6.113337e+002,7.680823e+000
6.132622e+002,7.757480e+000
6.151907e+002,7.797780e+000
6.171192e+002,7.646954e+000
6.190477e+002,7.838386e+000
6.209762e+002,8.061481e+000
6.229047e+002,8.145276e+000
6.248332e+002,8.194474e+000
6.267617e+002,8.270010e+000
6.286902e+002,8.312126e+000
6.306187e+002,8.377439e+000
6.325472e+002,8.400241e+000
6.344756e+002,8.439014e+000
6.364042e+002,8.419394e+000
6.383326e+002,8.431015e+000
6.402612e+002,8.369264e+000
6.421896e+002,8.334142e+000
6.441182e+002,8.237257e+000
6.460466e+002,8.148544e+000
6.479752e+002,7.904465e+000
6.499036e+002,7.910028e+000
6.518322e+002,7.961977e+000
6.537606e+002,8.017363e+000
6.556891e+002,8.002763e+000
6.576177e+002,8.132264e+000
6.595461e+002,8.212068e+000
6.614746e+002,8.434652e+000
6.634031e+002,8.651674e+000
6.653317e+002,8.179805e+000
6.672601e+002,4.899240e+000
6.691886e+002,4.914207e+000
6.711171e+002,7.797402e+000
6.730457e+002,8.285536e+000
6.749741e+002,8.226771e+000
6.769026e+002,8.091717e+000
6.788311e+002,8.149994e+000
6.807596e+002,8.136930e+000
6.826881e+002,8.287010e+000
6.846166e+002,8.372395e+000
6.865451e+002,8.584740e+000
6.884736e+002,8.711761e+000
6.904021e+002,8.956753e+000
6.923306e+002,9.154811e+000
6.942591e+002,9.413388e+000
6.961876e+002,9.595916e+000
6.981161e+002,9.831942e+000
7.000446e+002,9.990179e+000
7.019731e+002,1.018265e+001
7.039016e+002,1.029689e+001
7.058301e+002,1.045212e+001
7.077585e+002,1.053414e+001
7.096871e+002,1.065287e+001
7.116156e+002,1.070490e+001
7.135441e+002,1.080384e+001
7.154725e+002,1.084206e+001
7.174011e+002,1.084862e+001
7.193296e+002,1.055773e+001
7.212581e+002,1.064390e+001
7.231865e+002,1.096896e+001
7.251151e+002,1.103639e+001
7.270436e+002,1.104357e+001
7.289720e+002,1.106234e+001
7.309005e+002,1.107293e+001
7.328290e+002,1.109385e+001
7.347576e+002,1.110485e+001
7.366860e+002,1.112625e+001
7.386145e+002,1.113548e+001
7.405430e+002,1.114468e+001
7.424716e+002,1.116049e+001
7.444000e+002,1.120251e+001
7.463285e+002,1.121902e+001
7.482570e+002,1.124914e+001
7.501855e+002,1.126639e+001
7.521140e+002,1.129844e+001
7.540425e+002,1.131511e+001
7.559710e+002,1.134941e+001
7.578995e+002,1.137205e+001
7.598280e+002,1.141121e+001
7.617565e+002,1.143804e+001
7.636850e+002,1.147933e+001
7.656135e+002,1.150447e+001
7.675420e+002,1.154347e+001
7.694705e+002,1.157171e+001
7.713990e+002,1.161098e+001
7.733275e+002,1.163703e+001
7.752560e+002,1.167223e+001
7.771844e+002,1.169404e+001
7.791130e+002,1.172903e+001
7.810415e+002,1.174755e+001
7.829700e+002,1.177066e+001
7.848984e+002,1.177687e+001
7.868270e+002,1.178599e+001
7.887555e+002,1.177461e+001
7.906840e+002,1.177059e+001
7.926124e+002,1.175040e+001
7.945410e+002,1.173991e+001
7.964695e+002,1.171922e+001
7.983979e+002,1.171276e+001
8.003264e+002,1.169798e+001
8.022549e+002,1.169886e+001
8.041835e+002,1.169198e+001
8.061119e+002,1.170012e+001
8.080404e+002,1.170243e+001
8.099689e+002,1.171665e+001
8.118975e+002,1.172048e+001
8.138259e+002,1.173473e+001
8.157545e+002,1.173373e+001
8.176830e+002,1.173877e+001
8.196115e+002,1.173512e+001
8.215399e+002,1.174183e+001
8.234684e+002,1.174644e+001
8.253970e+002,1.177019e+001
8.273254e+002,1.178958e+001
8.292539e+002,1.182036e+001
8.311824e+002,1.183869e+001
8.331110e+002,1.186392e+001
8.350394e+002,1.187830e+001
8.369679e+002,1.190014e+001
8.388964e+002,1.191384e+001
8.408250e+002,1.193983e+001
8.427534e+002,1.195856e+001
8.446819e+002,1.198647e+001
8.466104e+002,1.200983e+001
8.485389e+002,1.204361e+001
8.504674e+002,1.206715e+001
8.523959e+002,1.209931e+001
8.543244e+002,1.212350e+001
8.562529e+002,1.215691e+001
8.581814e+002,1.218258e+001
8.601099e+002,1.221422e+001
8.620384e+002,1.223699e+001
8.639669e+002,1.227172e+001
8.658954e+002,1.229902e+001
8.678239e+002,1.233350e+001
8.697524e+002,1.236181e+001
8.716809e+002,1.239750e+001
8.736094e+002,1.242721e+001
8.755378e+002,1.246826e+001
8.774664e+002,1.250146e+001
8.793949e+002,1.254345e+001
8.813234e+002,1.257979e+001
8.832518e+002,1.262154e+001
8.851804e+002,1.265759e+001
8.871089e+002,1.270088e+001
8.890374e+002,1.273532e+001
8.909658e+002,1.277895e+001
8.928943e+002,1.281742e+001
8.948229e+002,1.286286e+001
8.967513e+002,1.290419e+001
8.986798e+002,1.295594e+001
9.006083e+002,1.300232e+001
9.025369e+002,1.305667e+001
9.044653e+002,1.310610e+001
9.063938e+002,1.316159e+001
9.083223e+002,1.321187e+001
9.102509e+002,1.326990e+001
9.121793e+002,1.331989e+001
9.141078e+002,1.337568e+001
9.160364e+002,1.342831e+001
9.179648e+002,1.349029e+001
9.198933e+002,1.355228e+001
9.218218e+002,1.362058e+001
9.237504e+002,1.368116e+001
9.256788e+002,1.374867e+001
9.276073e+002,1.380918e+001
9.295358e+002,1.387797e+001
9.314644e+002,1.393919e+001
9.333928e+002,1.400157e+001
9.353213e+002,1.405908e+001
9.372498e+002,1.412447e+001
9.391783e+002,1.417922e+001
9.411068e+002,1.423854e+001
9.430353e+002,1.429033e+001
9.449637e+002,1.434385e+001
9.468923e+002,1.439482e+001
9.488208e+002,1.445197e+001
9.507493e+002,1.449966e+001
9.526777e+002,1.455712e+001
9.546063e+002,1.460988e+001
9.565348e+002,1.466628e+001
9.584633e+002,1.471808e+001
9.603917e+002,1.477514e+001
9.623203e+002,1.482933e+001
9.642488e+002,1.489810e+001
9.661772e+002,1.496437e+001
9.681057e+002,1.503533e+001
9.700343e+002,1.510241e+001
9.719628e+002,1.517182e+001
9.738912e+002,1.523926e+001
9.758197e+002,1.532044e+001
9.777483e+002,1.539288e+001
9.796768e+002,1.546122e+001
9.816052e+002,1.552038e+001
9.835337e+002,1.558177e+001
9.854623e+002,1.563696e+001
9.873907e+002,1.570020e+001
9.893192e+002,1.575659e+001
9.912477e+002,1.581710e+001
9.931763e+002,1.587695e+001
9.951047e+002,1.593857e+001
9.970332e+002,1.599441e+001
9.989617e+002,1.605276e+001
1.000890e+003,1.609885e+001
1.002819e+003,1.614213e+001
1.004747e+003,1.617534e+001
1.006676e+003,1.620224e+001
1.008604e+003,1.621898e+001
1.010533e+003,1.623717e+001
1.012461e+003,1.624774e+001
1.014390e+003,1.626497e+001
1.016318e+003,1.627892e+001
1.018247e+003,1.629621e+001
1.020175e+003,1.631629e+001
1.022104e+003,1.634659e+001
1.024032e+003,1.637100e+001
1.025961e+003,1.640566e+001
1.027889e+003,1.643913e+001
1.029818e+003,1.647512e+001
1.031746e+003,1.651232e+001
1.033675e+003,1.655445e+001
1.035603e+003,1.659233e+001
1.037532e+003,1.663623e+001
1.039460e+003,1.666500e+001
1.041389e+003,1.668610e+001
1.043317e+003,1.669757e+001
1.045246e+003,1.670846e+001
1.047174e+003,1.671651e+001
1.049103e+003,1.673219e+001
1.051031e+003,1.674397e+001
1.052960e+003,1.676314e+001
1.054888e+003,1.678295e+001
1.056817e+003,1.680652e+001
1.058745e+003,1.682817e+001
1.060674e+003,1.685950e+001
1.062602e+003,1.688576e+001
1.064531e+003,1.691719e+001
1.066459e+003,1.694342e+001
1.068388e+003,1.696745e+001
1.070316e+003,1.698207e+001
1.072245e+003,1.699215e+001
1.074173e+003,1.699077e+001
1.076102e+003,1.701712e+001
1.078030e+003,1.706158e+001
1.079959e+003,1.710818e+001
1.081887e+003,1.717377e+001
1.083816e+003,1.725008e+001
1.085744e+003,1.730011e+001
1.087673e+003,1.733772e+001
1.089601e+003,1.736273e+001
1.091530e+003,1.738469e+001
1.093458e+003,1.740214e+001
1.095387e+003,1.742754e+001
1.097315e+003,1.745436e+001
1.099244e+003,1.749101e+001
1.101172e+003,1.752527e+001
1.103101e+003,1.756746e+001
1.105029e+003,1.761213e+001
1.106958e+003,1.766576e+001
1.108886e+003,1.772240e+001
1.110815e+003,1.779287e+001
1.112743e+003,1.786681e+001
1.114672e+003,1.795407e+001
1.116600e+003,1.804378e+001
1.118529e+003,1.813059e+001
1.120457e+003,1.821058e+001
1.122386e+003,1.829626e+001
1.124314e+003,1.837837e+001
1.126243e+003,1.846546e+001
1.128171e+003,1.854343e+001
1.130100e+003,1.861101e+001
1.132028e+003,1.866739e+001
1.133957e+003,1.871763e+001
1.135885e+003,1.875228e+001
1.137814e+003,1.877559e+001
1.139742e+003,1.877094e+001
1.141671e+003,1.876458e+001
1.143599e+003,1.879939e+001
1.145528e+003,1.885852e+001
1.147456e+003,1.889862e+001
1.149385e+003,1.893567e+001
1.151313e+003,1.899262e+001
1.153242e+003,1.908371e+001
1.155170e+003,1.917166e+001
1.157099e+003,1.924792e+001
1.159027e+003,1.931812e+001
1.160956e+003,1.939698e+001
1.162884e+003,1.947422e+001
1.164813e+003,1.956267e+001
1.166741e+003,1.965944e+001
1.168670e+003,1.975299e+001
1.170598e+003,1.982957e+001
1.172526e+003,1.989635e+001
1.174455e+003,1.993934e+001
1.176384e+003,1.994915e+001
1.178312e+003,1.988744e+001
1.180240e+003,1.982475e+001
1.182169e+003,1.994188e+001
1.184098e+003,2.011850e+001
1.186026e+003,2.018943e+001
1.187954e+003,2.022775e+001
1.189883e+003,2.025203e+001
1.191812e+003,2.027730e+001
1.193740e+003,2.030189e+001
1.195668e+003,2.033537e+001
1.197597e+003,2.036495e+001
1.199526e+003,2.041017e+001
1.201454e+003,2.045366e+001
1.203382e+003,2.050252e+001
1.205311e+003,2.054950e+001
1.207240e+003,2.060073e+001
1.209168e+003,2.064243e+001
1.211096e+003,2.068471e+001
1.213025e+003,2.071568e+001
1.214953e+003,2.075058e+001
1.216882e+003,2.078160e+001
1.218810e+003,2.081491e+001
1.220739e+003,2.084263e+001
1.222667e+003,2.087963e+001
1.224596e+003,2.090859e+001
1.226524e+003,2.094473e+001
1.228453e+003,2.097769e+001
1.230381e+003,2.101208e+001
1.232310e+003,2.104300e+001
1.234238e+003,2.108229e+001
1.236167e+003,2.111011e+001
1.238095e+003,2.114282e+001
1.240024e+003,2.116940e+001
1.241952e+003,2.119491e+001
1.243881e+003,2.121690e+001
1.245809e+003,2.124145e+001
1.247738e+003,2.125916e+001
1.249666e+003,2.128582e+001
1.251595e+003,2.129945e+001
1.253523e+003,2.130204e+001
1.255452e+003,2.129137e+001
1.257380e+003,2.126941e+001
1.259309e+003,2.122559e+001
1.261237e+003,2.119966e+001
1.263166e+003,2.119987e+001
1.265094e+003,2.124349e+001
1.267023e+003,2.133132e+001
1.268951e+003,2.145115e+001
1.270880e+003,2.154932e+001
1.272808e+003,2.163230e+001
1.274737e+003,2.168689e+001
1.276665e+003,2.173479e+001
1.278594e+003,2.177616e+001
1.280522e+003,2.181021e+001
1.282451e+003,2.183126e+001
1.284379e+003,2.186086e+001
1.286308e+003,2.187185e+001
1.288236e+003,2.188027e+001
1.290165e+003,2.189425e+001
1.292093e+003,2.190540e+001
1.294022e+003,2.190787e+001
1.295950e+003,2.191676e+001
1.297879e+003,2.191773e+001
1.299807e+003,2.192181e+001
1.301736e+003,2.191684e+001
1.303664e+003,2.190871e+001
1.305593e+003,2.191130e+001
1.307521e+003,2.195864e+001
1.309450e+003,2.198444e+001
1.311378e+003,2.199506e+001
1.313307e+003,2.200314e+001
1.315235e+003,2.202067e+001
1.317164e+003,2.202858e+001
1.319092e+003,2.204051e+001
1.321021e+003,2.205111e+001
1.322949e+003,2.206758e+001
1.324878e+003,2.207166e+001
1.326806e+003,2.206964e+001
1.328735e+003,2.207578e+001
1.330663e+003,2.206114e+001
1.332592e+003,2.205050e+001
1.334520e+003,2.210929e+001
1.336449e+003,2.211971e+001
1.338377e+003,2.210402e+001
1.340306e+003,2.209971e+001
1.342234e+003,2.211967e+001
1.344163e+003,2.212089e+001
1.346091e+003,2.211515e+001
1.348020e+003,2.210269e+001
1.349948e+003,2.209961e+001
1.351877e+003,2.208789e+001
1.353805e+003,2.208542e+001
1.355734e+003,2.208273e+001
1.357662e+003,2.209087e+001
1.359591e+003,2.206200e+001
1.361519e+003,2.201601e+001
1.363448e+003,2.201739e+001
1.365376e+003,2.207155e+001
1.367305e+003,2.206718e+001
1.369233e+003,2.206542e+001
1.371162e+003,2.205369e+001
1.373090e+003,2.200694e+001
1.375019e+003,2.198646e+001
1.376947e+003,2.201218e+001
1.378876e+003,2.198689e+001
1.380804e+003,2.193400e+001
1.382733e+003,2.180424e+001
1.384661e+003,2.175147e+001
1.386590e+003,2.176816e+001
1.388518e+003,2.188026e+001
1.390447e+003,2.197708e+001
1.392375e+003,2.195191e+001
1.394304e+003,2.185900e+001
1.396232e+003,2.188938e+001
1.398161e+003,2.187934e+001
1.400089e+003,2.189548e+001
1.402018e+003,2.194649e+001
1.403946e+003,2.191421e+001
1.405875e+003,2.191539e+001
1.407803e+003,2.195287e+001
1.409732e+003,2.195317e+001
1.411660e+003,2.195887e+001
1.413589e+003,2.196428e+001
1.415517e+003,2.194950e+001
1.417446e+003,2.181931e+001
1.419374e+003,2.171613e+001
1.421303e+003,2.189146e+001
1.423231e+003,2.195906e+001
1.425160e+003,2.197142e+001
1.427088e+003,2.199455e+001
1.429017e+003,2.194959e+001
1.430945e+003,2.195530e+001
1.432874e+003,2.197580e+001
1.434802e+003,2.185662e+001
1.436731e+003,2.169567e+001
1.438659e+003,2.186594e+001
1.440588e+003,2.193405e+001
1.442516e+003,2.191568e+001
1.444445e+003,2.187460e+001
1.446373e+003,2.181695e+001
1.448302e+003,2.175536e+001
1.450230e+003,2.178955e+001
1.452159e+003,2.174806e+001
1.454087e+003,2.164227e+001
1.456016e+003,2.127597e+001
1.457944e+003,2.130765e+001
1.459873e+003,2.160551e+001
1.461801e+003,2.168623e+001
1.463730e+003,2.158054e+001
1.465658e+003,2.156745e+001
1.467587e+003,2.166648e+001
1.469515e+003,2.163182e+001
1.471444e+003,2.142022e+001
1.473372e+003,2.136420e+001
1.475301e+003,2.149830e+001
1.477229e+003,2.156365e+001
1.479158e+003,2.162371e+001
1.481086e+003,2.160098e+001
1.483015e+003,2.160357e+001
1.484943e+003,2.155813e+001
1.486872e+003,2.146915e+001
1.488800e+003,2.138451e+001
1.490729e+003,2.138271e+001
1.492657e+003,2.148000e+001
1.494586e+003,2.136592e+001
1.496514e+003,2.120856e+001
1.498443e+003,2.129089e+001
1.500371e+003,2.137396e+001
1.502300e+003,2.140063e+001
1.504228e+003,2.112542e+001
1.506157e+003,2.075162e+001
1.508085e+003,2.093429e+001
1.510014e+003,2.120079e+001
1.511942e+003,2.120881e+001
1.513871e+003,2.121392e+001
1.515799e+003,2.111181e+001
1.517728e+003,2.105959e+001
1.519656e+003,2.090896e+001
1.521585e+003,2.074746e+001
1.523513e+003,2.092589e+001
1.525442e+003,2.093018e+001
1.527370e+003,2.095249e+001
1.529299e+003,2.097439e+001
1.531227e+003,2.091694e+001
1.533156e+003,2.075084e+001
1.535084e+003,2.081000e+001
1.537013e+003,2.068710e+001
1.538941e+003,2.024710e+001
1.540870e+003,2.022569e+001
1.542798e+003,2.045029e+001
1.544727e+003,2.054232e+001
1.546655e+003,2.062395e+001
1.548584e+003,2.060449e+001
1.550512e+003,2.055121e+001
1.552441e+003,2.046698e+001
1.554369e+003,2.032217e+001
1.556298e+003,2.017176e+001
1.558226e+003,1.972942e+001
1.560155e+003,1.979363e+001
1.562083e+003,2.022608e+001
1.564012e+003,2.028325e+001
1.565940e+003,2.024524e+001
1.567869e+003,2.013268e+001
1.569797e+003,2.001096e+001
1.571726e+003,2.008710e+001
1.573654e+003,1.999756e+001
1.575583e+003,1.966141e+001
1.577511e+003,1.974562e+001
1.579440e+003,1.992116e+001
1.581368e+003,1.986985e+001
1.583297e+003,1.982360e+001
1.585225e+003,1.976032e+001
1.587154e+003,1.971227e+001
1.589082e+003,1.964270e+001
1.591010e+003,1.958731e+001
1.592939e+003,1.951510e+001
1.594868e+003,1.945038e+001
1.596796e+003,1.938480e+001
1.598724e+003,1.932790e+001
1.600653e+003,1.924962e+001
1.602582e+003,1.917852e+001
1.604510e+003,1.910114e+001
1.606438e+003,1.902245e+001
1.608367e+003,1.892253e+001
1.610296e+003,1.884640e+001
1.612224e+003,1.876945e+001
1.614152e+003,1.860501e+001
1.616081e+003,1.825490e+001
1.618010e+003,1.824085e+001
1.619938e+003,1.832997e+001
1.621866e+003,1.821435e+001
1.623795e+003,1.814668e+001
1.625724e+003,1.816535e+001
1.627652e+003,1.810615e+001
1.629580e+003,1.806845e+001
1.631509e+003,1.802660e+001
1.633438e+003,1.781573e+001
1.635366e+003,1.754151e+001
1.637294e+003,1.762689e+001
1.639223e+003,1.771259e+001
1.641151e+003,1.765537e+001
1.643080e+003,1.756352e+001
1.645008e+003,1.731136e+001
1.646937e+003,1.718808e+001
1.648865e+003,1.727620e+001
1.650794e+003,1.702376e+001
1.652722e+003,1.653373e+001
1.654651e+003,1.678042e+001
1.656579e+003,1.705927e+001
1.658508e+003,1.703160e+001
1.660436e+003,1.692621e+001
1.662365e+003,1.678394e+001
1.664293e+003,1.676155e+001
1.666222e+003,1.672328e+001
1.668150e+003,1.652662e+001
1.670079e+003,1.641923e+001
1.672007e+003,1.642995e+001
1.673936e+003,1.629655e+001
1.675864e+003,1.618827e+001
1.677793e+003,1.624745e+001
1.679721e+003,1.615837e+001
1.681650e+003,1.600913e+001
1.683578e+003,1.562519e+001
1.685507e+003,1.560941e+001
1.687435e+003,1.580184e+001
1.689364e+003,1.575651e+001
1.691292e+003,1.569064e+001
1.693221e+003,1.554967e+001
1.695149e+003,1.519655e+001
1.697078e+003,1.516629e+001
1.699006e+003,1.503657e+001
1.700935e+003,1.490922e+001
1.702863e+003,1.509320e+001
1.704792e+003,1.499251e+001
1.706720e+003,1.494384e+001
1.708649e+003,1.488636e+001
1.710577e+003,1.482565e+001
1.712506e+003,1.469316e+001
1.714434e+003,1.452548e+001
1.716363e+003,1.426762e+001
1.718291e+003,1.419395e+001
1.720220e+003,1.429358e+001
1.722148e+003,1.425470e+001
1.724077e+003,1.415449e+001
1.726005e+003,1.407469e+001
1.727934e+003,1.396501e+001
1.729862e+003,1.385066e+001
1.731791e+003,1.365496e+001
1.733719e+003,1.339371e+001
1.735648e+003,1.345186e+001
1.737576e+003,1.349384e+001
1.739505e+003,1.335334e+001
1.741433e+003,1.331763e+001
1.743362e+003,1.325839e+001
1.745290e+003,1.318984e+001
1.747219e+003,1.308310e+001
1.749147e+003,1.296004e+001
1.751076e+003,1.282388e+001
1.753004e+003,1.281606e+001
1.754933e+003,1.274939e+001
1.756861e+003,1.263046e+001
1.758790e+003,1.255336e+001
1.760718e+003,1.241882e+001
1.762647e+003,1.231188e+001
1.764575e+003,1.225932e+001
1.766504e+003,1.211614e+001
1.768432e+003,1.197568e+001
1.770361e+003,1.182581e+001
1.772289e+003,1.163222e+001
1.774218e+003,1.156848e+001
1.776146e+003,1.146796e+001
1.778075e+003,1.132086e+001
1.780003e+003,1.119968e+001
1.781932e+003,1.110756e+001
1.783860e+003,1.100714e+001
1.785789e+003,1.090936e+001
1.787717e+003,1.083053e+001
1.789646e+003,1.070098e+001
1.791574e+003,1.053928e+001
1.793503e+003,1.044579e+001
1.795431e+003,1.039225e+001
1.797360e+003,1.027152e+001
1.799288e+003,1.013918e+001
1.801217e+003,1.000117e+001
1.803145e+003,9.886319e+000
1.805074e+003,9.742107e+000
1.807002e+003,9.582932e+000
1.808931e+003,9.389986e+000
1.810859e+003,9.187755e+000
1.812788e+003,8.955276e+000
1.814716e+003,8.658886e+000
1.816645e+003,8.236666e+000
1.818573e+003,7.886502e+000
1.820502e+003,7.694267e+000
1.822430e+003,7.575121e+000
1.824359e+003,7.447879e+000
1.826287e+003,7.337023e+000
1.828216e+003,7.207010e+000
1.830144e+003,7.072538e+000
1.832073e+003,6.964944e+000
1.834001e+003,6.839663e+000
1.835930e+003,6.697102e+000
1.837858e+003,6.561034e+000
1.839787e+003,6.427580e+000
1.841715e+003,6.285537e+000
1.843644e+003,6.121795e+000
1.845572e+003,6.019428e+000
1.847501e+003,5.923730e+000
1.849429e+003,5.812773e+000
1.851358e+003,5.701086e+000
1.853286e+003,5.593165e+000
1.855215e+003,5.487914e+000
1.857143e+003,5.387349e+000
1.859072e+003,5.287742e+000
1.861000e+003,5.192702e+000
1.862929e+003,5.097882e+000
1.864857e+003,5.005099e+000
1.866786e+003,4.903946e+000
1.868714e+003,4.803965e+000
1.870643e+003,4.723812e+000
1.872571e+003,4.646221e+000
1.874500e+003,4.554257e+000
1.876428e+003,4.466699e+000
1.878357e+003,4.375634e+000
1.880285e+003,4.287249e+000
1.882214e+003,4.198033e+000
1.884142e+003,4.112733e+000
1.886071e+003,4.023356e+000
1.887999e+003,3.934257e+000
1.889928e+003,3.845986e+000
1.891856e+003,3.769124e+000
1.893785e+003,3.684762e+000
1.895713e+003,3.605230e+000
1.897642e+003,3.524759e+000
1.899570e+003,3.447300e+000
1.901499e+003,3.366816e+000
1.903427e+003,3.289978e+000
1.905356e+003,3.210448e+000
1.907284e+003,3.134348e+000
1.909213e+003,3.057166e+000
1.911141e+003,2.986446e+000
1.913070e+003,2.912112e+000
1.914998e+003,2.839848e+000
1.916927e+003,2.761105e+000
1.918855e+003,2.696154e+000
1.920784e+003,2.632560e+000
1.922712e+003,2.546556e+000
1.924641e+003,2.446493e+000
1.926569e+003,2.349574e+000
1.928498e+003,2.252537e+000
1.930426e+003,2.161498e+000
1.932355e+003,2.070978e+000
1.934283e+003,1.986409e+000
1.936212e+003,1.903294e+000
1.938140e+003,1.825525e+000
1.940069e+003,1.745535e+000
1.941997e+003,1.668853e+000
1.943926e+003,1.596182e+000
1.945854e+003,1.528669e+000
1.947783e+003,1.458207e+000
1.949711e+003,1.391890e+000
1.951640e+003,1.328556e+000
1.953568e+003,1.267764e+000
1.955497e+003,1.196331e+000
1.957425e+003,1.105099e+000
1.959354e+003,1.013217e+000
1.961282e+003,9.570792e-001
1.963211e+003,9.113494e-001
1.965139e+003,8.709800e-001
1.967068e+003,8.298072e-001
1.968996e+003,7.933599e-001
1.970925e+003,7.551213e-001
1.972853e+003,7.212107e-001
1.974782e+003,6.867362e-001
1.976710e+003,6.627574e-001
1.978639e+003,6.849442e-001
1.980567e+003,7.632871e-001
1.982496e+003,8.242110e-001
1.984424e+003,8.627469e-001
1.986353e+003,8.861957e-001
1.988281e+003,9.061269e-001
1.990210e+003,9.158274e-001
1.992138e+003,9.230839e-001
1.994067e+003,9.236566e-001
1.995995e+003,9.211974e-001
1.997924e+003,9.078377e-001
1.999852e+003,8.863361e-001
2.001781e+003,8.495448e-001
2.003709e+003,8.008619e-001
2.005638e+003,7.373606e-001
2.007566e+003,6.982796e-001
2.009495e+003,6.903471e-001
2.011423e+003,6.892467e-001
2.013352e+003,6.803178e-001
2.015280e+003,6.713355e-001
2.017208e+003,6.598209e-001
2.019137e+003,6.510437e-001
2.021066e+003,6.415042e-001
2.022994e+003,6.352118e-001
2.024922e+003,6.271409e-001
2.026851e+003,6.221868e-001
2.028780e+003,6.163085e-001
2.030708e+003,6.180365e-001
2.032636e+003,6.201471e-001
2.034565e+003,6.369411e-001
2.036494e+003,6.736150e-001
2.038422e+003,7.203168e-001
2.040350e+003,7.600012e-001
2.042279e+003,7.980113e-001
2.044208e+003,8.323404e-001
2.046136e+003,8.699991e-001
2.048064e+003,9.149384e-001
2.049993e+003,1.015074e+000
2.051921e+003,1.145254e+000
2.053850e+003,1.208074e+000
2.055778e+003,1.253153e+000
2.057707e+003,1.302863e+000
2.059635e+003,1.336873e+000
2.061564e+003,1.368475e+000
2.063492e+003,1.397435e+000
2.065421e+003,1.431358e+000
2.067349e+003,1.465066e+000
2.069278e+003,1.503037e+000
2.071206e+003,1.542946e+000
2.073135e+003,1.588872e+000
2.075063e+003,1.634514e+000
2.076992e+003,1.684079e+000
2.078920e+003,1.736361e+000
2.080849e+003,1.790910e+000
2.082777e+003,1.837600e+000
2.084706e+003,1.877889e+000
2.086634e+003,1.906868e+000
2.088563e+003,1.927533e+000
2.090491e+003,1.929211e+000
2.092420e+003,1.908802e+000
2.094348e+003,1.861460e+000
2.096277e+003,1.839207e+000
2.098205e+003,1.849856e+000
2.100134e+003,1.871072e+000
2.102062e+003,1.889535e+000
2.103991e+003,1.908098e+000
2.105919e+003,1.924111e+000
2.107848e+003,1.941853e+000
2.109776e+003,1.959169e+000
2.111705e+003,1.979209e+000
2.113633e+003,1.999848e+000
2.115562e+003,2.014988e+000
2.117490e+003,2.006196e+000
2.119419e+003,1.977563e+000
2.121347e+003,1.934448e+000
2.123276e+003,1.878677e+000
2.125204e+003,1.807873e+000
2.127133e+003,1.723905e+000
2.129061e+003,1.621613e+000
2.130990e+003,1.501603e+000
2.132918e+003,1.361840e+000
2.134847e+003,1.237190e+000
2.136775e+003,1.151028e+000
2.138704e+003,1.085235e+000
2.140632e+003,1.020975e+000
2.142561e+003,9.572797e-001
2.144489e+003,8.926860e-001
2.146418e+003,8.320723e-001
2.148346e+003,7.778549e-001
2.150275e+003,7.290575e-001
2.152203e+003,6.726698e-001
2.154132e+003,6.072394e-001
2.156060e+003,5.282760e-001
2.157989e+003,4.494257e-001
2.159917e+003,4.318765e-001
2.161846e+003,4.840903e-001
2.163774e+003,5.361726e-001
2.165703e+003,5.828141e-001
2.167631e+003,6.284987e-001
2.169560e+003,6.685921e-001
2.171488e+003,6.907268e-001
2.173417e+003,6.985633e-001
2.175345e+003,6.971461e-001
2.177274e+003,7.093351e-001
2.179202e+003,7.202513e-001
2.181131e+003,7.223295e-001
2.183059e+003,7.340077e-001
2.184988e+003,7.642278e-001
2.186916e+003,7.963055e-001
2.188845e+003,8.292795e-001
2.190773e+003,8.578717e-001
2.192702e+003,8.856900e-001
2.194630e+003,9.107167e-001
2.196559e+003,9.358378e-001
2.198487e+003,9.581080e-001
2.200416e+003,9.810291e-001
2.202344e+003,1.002394e+000
2.204273e+003,1.025427e+000
2.206201e+003,1.045309e+000
2.208130e+003,1.067376e+000
2.210058e+003,1.087210e+000
2.211987e+003,1.109823e+000
2.213915e+003,1.131318e+000
2.215844e+003,1.156313e+000
2.217772e+003,1.180035e+000
2.219701e+003,1.206666e+000
2.221629e+003,1.232848e+000
2.223558e+003,1.261491e+000
2.225486e+003,1.289848e+000
2.227415e+003,1.321416e+000
2.229343e+003,1.353729e+000
2.231272e+003,1.388394e+000
2.233200e+003,1.422418e+000
2.235129e+003,1.460821e+000
2.237057e+003,1.498255e+000
2.238986e+003,1.537989e+000
2.240914e+003,1.576842e+000
2.242843e+003,1.617242e+000
2.244771e+003,1.655647e+000
2.246700e+003,1.694852e+000
2.248628e+003,1.730913e+000
2.250557e+003,1.766259e+000
2.252485e+003,1.795112e+000
2.254414e+003,1.824187e+000
2.256342e+003,1.867587e+000
2.258271e+003,1.926626e+000
2.260199e+003,1.980929e+000
2.262128e+003,2.029560e+000
2.264056e+003,2.072849e+000
2.265985e+003,2.122471e+000
2.267913e+003,2.184551e+000
2.269842e+003,2.260921e+000
2.271770e+003,2.340935e+000
2.273699e+003,2.429440e+000
2.275627e+003,2.526538e+000
2.277556e+003,2.638696e+000
2.279484e+003,2.764872e+000
2.281413e+003,2.912146e+000
2.283341e+003,3.065343e+000
2.285270e+003,3.212180e+000
2.287198e+003,3.347775e+000
2.289127e+003,3.475623e+000
2.291055e+003,3.589589e+000
2.292984e+003,3.684372e+000
2.294912e+003,3.757256e+000
2.296841e+003,3.813070e+000
2.298769e+003,3.847646e+000
2.300698e+003,3.863905e+000
2.302626e+003,3.868423e+000
2.304555e+003,3.834754e+000
2.306483e+003,3.744268e+000
2.308412e+003,3.635494e+000
2.310340e+003,3.522904e+000
2.312269e+003,3.433004e+000
2.314197e+003,3.390715e+000
2.316125e+003,3.320350e+000
2.318054e+003,3.143005e+000
2.319983e+003,2.947876e+000
2.321911e+003,2.846621e+000
2.323840e+003,2.904800e+000
2.325768e+003,2.983767e+000
2.327697e+003,2.843752e+000
2.329625e+003,2.631173e+000
2.331553e+003,2.520457e+000
2.333482e+003,2.502710e+000
2.335411e+003,2.428410e+000
2.337339e+003,2.336862e+000
2.339268e+003,2.272126e+000
2.341196e+003,2.225588e+000
2.343125e+003,2.280915e+000
2.345053e+003,2.548814e+000
2.346981e+003,3.373245e+000
2.348910e+003,3.881994e+000
2.350839e+003,3.122488e+000
2.352767e+003,2.285119e+000
2.354696e+003,1.781648e+000
2.356624e+003,1.485999e+000
2.358552e+003,1.325058e+000
2.360481e+003,1.278828e+000
2.362409e+003,1.298425e+000
2.364338e+003,1.381236e+000
2.366267e+003,1.533719e+000
2.368195e+003,1.761286e+000
2.370124e+003,2.066226e+000
2.372052e+003,2.453818e+000
2.373980e+003,2.914756e+000
2.375909e+003,3.439223e+000
2.377838e+003,4.010988e+000
2.379766e+003,4.596649e+000
2.381695e+003,5.120517e+000
2.383623e+003,5.498867e+000
2.385552e+003,5.695635e+000
2.387480e+003,5.743904e+000
2.389408e+003,5.705608e+000
2.391337e+003,5.629279e+000
2.393266e+003,5.541522e+000
2.395194e+003,5.451887e+000
2.397123e+003,5.363644e+000
2.399051e+003,5.276559e+000
2.400979e+003,5.191564e+000
2.402908e+003,5.107233e+000
2.404836e+003,5.021024e+000
2.406765e+003,4.942599e+000
2.408694e+003,4.891311e+000
2.410622e+003,4.851531e+000
2.412551e+003,4.808993e+000
2.414479e+003,4.763953e+000
2.416407e+003,4.718459e+000
2.418336e+003,4.673660e+000
2.420264e+003,4.631888e+000
2.422193e+003,4.591187e+000
2.424122e+003,4.552628e+000
2.426050e+003,4.516684e+000
2.427979e+003,4.484133e+000
2.429907e+003,4.454153e+000
2.431835e+003,4.428307e+000
2.433764e+003,4.405069e+000
2.435692e+003,4.385397e+000
2.437621e+003,4.367849e+000
2.439550e+003,4.354512e+000
2.441478e+003,4.344916e+000
2.443406e+003,4.339761e+000
2.445335e+003,4.337400e+000
2.447263e+003,4.339359e+000
2.449192e+003,4.344024e+000
2.451121e+003,4.353192e+000
2.453049e+003,4.365661e+000
2.454978e+003,4.381394e+000
2.456906e+003,4.395694e+000
2.458834e+003,4.403151e+000
2.460763e+003,4.401486e+000
2.462691e+003,4.396148e+000
2.464620e+003,4.387064e+000
2.466549e+003,4.375669e+000
2.468477e+003,4.362219e+000
2.470406e+003,4.349246e+000
2.472334e+003,4.334492e+000
2.474262e+003,4.319827e+000
2.476191e+003,4.304872e+000
2.478119e+003,4.291441e+000
2.480048e+003,4.277129e+000
2.481977e+003,4.263807e+000
2.483905e+003,4.251981e+000
2.485833e+003,4.242604e+000
2.487762e+003,4.233172e+000
2.489690e+003,4.225098e+000
2.491619e+003,4.218867e+000
2.493547e+003,4.214869e+000
2.495476e+003,4.211587e+000
2.497405e+003,4.207960e+000
2.499333e+003,4.202545e+000
2.501261e+003,4.196660e+000
2.503190e+003,4.190563e+000
2.505118e+003,4.185972e+000
2.507047e+003,4.181185e+000
2.508975e+003,4.176785e+000
2.510904e+003,4.172427e+000
2.512833e+003,4.168552e+000
2.514761e+003,4.164401e+000
2.516689e+003,4.161696e+000
2.518618e+003,4.159639e+000
2.520546e+003,4.158608e+000
2.522475e+003,4.157767e+000
2.524403e+003,4.159601e+000
2.526332e+003,4.160885e+000
2.528260e+003,4.162846e+000
2.530189e+003,4.165819e+000
2.532117e+003,4.170273e+000
2.534046e+003,4.175017e+000
2.535974e+003,4.181228e+000
2.537903e+003,4.187606e+000
2.539831e+003,4.195924e+000
2.541760e+003,4.205754e+000
2.543688e+003,4.216882e+000
2.545617e+003,4.228874e+000
2.547545e+003,4.243000e+000
2.549474e+003,4.258104e+000
2.551402e+003,4.275531e+000
2.553331e+003,4.293990e+000
2.555259e+003,4.314800e+000
2.557188e+003,4.336608e+000
2.559116e+003,4.359926e+000
2.561045e+003,4.385061e+000
2.562973e+003,4.413550e+000
2.564902e+003,4.442830e+000
2.566830e+003,4.474444e+000
2.568759e+003,4.508305e+000
2.570687e+003,4.544956e+000
2.572616e+003,4.582694e+000
2.574544e+003,4.623678e+000
2.576473e+003,4.666252e+000
2.578401e+003,4.712314e+000
2.580330e+003,4.759433e+000
2.582258e+003,4.810075e+000
2.584187e+003,4.863200e+000
2.586115e+003,4.919562e+000
2.588044e+003,4.978993e+000
2.589972e+003,5.041910e+000
2.591901e+003,5.108054e+000
2.593829e+003,5.177620e+000
2.595758e+003,5.250102e+000
2.597686e+003,5.327306e+000
2.599615e+003,5.408246e+000
2.601543e+003,5.493089e+000
2.603472e+003,5.582181e+000
2.605400e+003,5.676192e+000
2.607329e+003,5.773716e+000
2.609257e+003,5.877528e+000
2.611186e+003,5.986734e+000
2.613114e+003,6.100602e+000
2.615043e+003,6.218682e+000
2.616971e+003,6.343743e+000
2.618900e+003,6.473483e+000
2.620828e+003,6.609469e+000
2.622757e+003,6.751921e+000
2.624685e+003,6.901350e+000
2.626614e+003,7.055653e+000
2.628542e+003,7.217175e+000
2.630471e+003,7.385211e+000
2.632399e+003,7.560552e+000
2.634328e+003,7.741955e+000
2.636256e+003,7.930732e+000
2.638185e+003,8.124536e+000
2.640113e+003,8.323999e+000
2.642042e+003,8.529243e+000
2.643970e+003,8.739798e+000
2.645899e+003,8.953913e+000
2.647827e+003,9.171456e+000
2.649756e+003,9.388638e+000
2.651684e+003,9.605556e+000
2.653613e+003,9.818390e+000
2.655541e+003,1.002364e+001
2.657470e+003,1.021649e+001
2.659398e+003,1.039003e+001
2.661327e+003,1.053402e+001
2.663255e+003,1.063570e+001
2.665184e+003,1.068644e+001
2.667112e+003,1.070102e+001
2.669041e+003,1.069934e+001
2.670969e+003,1.069187e+001
2.672898e+003,1.067982e+001
2.674826e+003,1.066625e+001
2.676755e+003,1.065039e+001
2.678683e+003,1.063381e+001
2.680612e+003,1.061654e+001
2.682540e+003,1.059898e+001
2.684469e+003,1.057998e+001
2.686397e+003,1.056117e+001
2.688326e+003,1.054202e+001
2.690254e+003,1.052289e+001
2.692183e+003,1.050387e+001
2.694111e+003,1.048451e+001
2.696040e+003,1.046530e+001
2.697968e+003,1.044821e+001
2.699897e+003,1.042929e+001
2.701825e+003,1.040936e+001
2.703754e+003,1.039010e+001
2.705682e+003,1.037139e+001
2.707611e+003,1.035191e+001
2.709539e+003,1.033345e+001
2.711468e+003,1.031509e+001
2.713396e+003,1.029619e+001
2.715325e+003,1.027761e+001
2.717253e+003,1.025926e+001
2.719182e+003,1.024031e+001
2.721110e+003,1.022199e+001
2.723039e+003,1.020356e+001
2.724967e+003,1.018540e+001
2.726896e+003,1.016642e+001
2.728824e+003,1.014719e+001
2.730753e+003,1.012957e+001
2.732681e+003,1.011182e+001
2.734610e+003,1.009327e+001
2.736538e+003,1.007496e+001
2.738467e+003,1.005540e+001
2.740395e+003,1.003670e+001
2.742324e+003,1.001856e+001
2.744252e+003,1.000014e+001
2.746181e+003,9.981972e+000
2.748109e+003,9.963820e+000
2.750038e+003,9.944444e+000
2.751966e+003,9.925274e+000
2.753895e+003,9.905391e+000
2.755823e+003,9.886058e+000
2.757752e+003,9.867183e+000
2.759680e+003,9.847815e+000
2.761609e+003,9.827930e+000
2.763537e+003,9.809118e+000
2.765466e+003,9.790224e+000
2.767394e+003,9.771360e+000
2.769323e+003,9.752070e+000
2.771251e+003,9.732545e+000
2.773180e+003,9.713752e+000
2.775108e+003,9.694568e+000
2.777037e+003,9.673157e+000
2.778965e+003,9.653477e+000
2.780894e+003,9.633224e+000
2.782822e+003,9.613175e+000
2.784750e+003,9.593809e+000
2.786679e+003,9.575315e+000
2.788608e+003,9.556941e+000
2.790536e+003,9.537574e+000
2.792465e+003,9.517405e+000
2.794393e+003,9.497764e+000
2.796322e+003,9.477612e+000
2.798250e+003,9.458679e+000
2.800178e+003,9.438157e+000
2.802107e+003,9.417694e+000
2.804036e+003,9.397114e+000
2.805964e+003,9.376960e+000
2.807893e+003,9.356977e+000
2.809821e+003,9.337880e+000
2.811750e+003,9.317681e+000
2.813678e+003,9.297414e+000
2.815606e+003,9.276675e+000
2.817535e+003,9.255914e+000
2.819464e+003,9.235001e+000
2.821392e+003,9.215027e+000
2.823321e+003,9.193298e+000
2.825249e+003,9.171393e+000
2.827177e+003,9.149832e+000
2.829106e+003,9.128681e+000
2.831034e+003,9.106297e+000
2.832963e+003,9.084286e+000
2.834892e+003,9.061781e+000
2.836820e+003,9.039051e+000
2.838749e+003,9.015541e+000
2.840677e+003,8.986221e+000
2.842605e+003,8.956556e+000
2.844534e+003,8.927267e+000
2.846462e+003,8.896438e+000
2.848391e+003,8.865998e+000
2.850320e+003,8.838909e+000
2.852248e+003,8.816519e+000
2.854177e+003,8.795693e+000
2.856105e+003,8.775216e+000
2.858033e+003,8.755722e+000
2.859962e+003,8.737670e+000
2.861890e+003,8.716966e+000
2.863819e+003,8.696805e+000
2.865748e+003,8.675673e+000
2.867676e+003,8.653020e+000
2.869604e+003,8.630209e+000
2.871533e+003,8.610158e+000
2.873461e+003,8.589614e+000
2.875390e+003,8.564770e+000
2.877319e+003,8.542124e+000
2.879247e+003,8.520875e+000
2.881176e+003,8.499599e+000
2.883104e+003,8.478194e+000
2.885032e+003,8.456219e+000
2.886961e+003,8.434094e+000
2.888889e+003,8.411451e+000
2.890818e+003,8.387429e+000
2.892747e+003,8.362848e+000
2.894675e+003,8.338795e+000
2.896604e+003,8.314849e+000
2.898532e+003,8.290420e+000
2.900460e+003,8.265604e+000
2.902389e+003,8.240798e+000
2.904317e+003,8.214892e+000
2.906246e+003,8.187138e+000
2.908175e+003,8.161748e+000
2.910103e+003,8.135014e+000
2.912031e+003,8.108719e+000
2.913960e+003,8.079076e+000
2.915888e+003,8.044098e+000
2.917817e+003,8.016570e+000
2.919745e+003,7.992681e+000
2.921674e+003,7.968792e+000
2.923603e+003,7.945218e+000
2.925531e+003,7.921452e+000
2.927459e+003,7.901971e+000
2.929388e+003,7.889420e+000
2.931316e+003,7.873903e+000
2.933245e+003,7.857555e+000
2.935173e+003,7.840504e+000
2.937102e+003,7.821092e+000
2.939031e+003,7.808289e+000
2.940959e+003,7.798268e+000
2.942887e+003,7.784376e+000
2.944816e+003,7.767140e+000
2.946744e+003,7.742928e+000
2.948673e+003,7.719868e+000
2.950601e+003,7.701364e+000
2.952530e+003,7.678461e+000
2.954458e+003,7.652644e+000
2.956387e+003,7.623632e+000
2.958315e+003,7.594516e+000
2.960244e+003,7.575957e+000
2.962172e+003,7.555436e+000
2.964101e+003,7.534887e+000
2.966029e+003,7.517023e+000
2.967958e+003,7.503561e+000
2.969886e+003,7.497332e+000
2.971815e+003,7.491789e+000
2.973743e+003,7.482875e+000
2.975672e+003,7.471531e+000
2.977600e+003,7.454742e+000
2.979529e+003,7.441687e+000
2.981457e+003,7.430719e+000
2.983386e+003,7.415331e+000
2.985314e+003,7.398657e+000
2.987243e+003,7.379686e+000
2.989171e+003,7.361732e+000
2.991100e+003,7.350005e+000
2.993028e+003,7.331594e+000
2.994957e+003,7.310389e+000
2.996885e+003,7.291751e+000
2.998814e+003,7.271185e+000
3.000742e+003,7.251504e+000
3.002671e+003,7.232268e+000
3.004599e+003,7.211790e+000
3.006528e+003,7.192208e+000
3.008456e+003,7.173144e+000
3.010385e+003,7.155965e+000
3.012313e+003,7.132205e+000
3.014242e+003,7.099620e+000
3.016170e+003,7.060649e+000
3.018099e+003,7.048930e+000
3.020027e+003,7.053848e+000
3.021956e+003,7.039869e+000
3.023884e+003,7.021507e+000
3.025813e+003,7.002141e+000
3.027741e+003,6.981982e+000
3.029670e+003,6.962676e+000
3.031598e+003,6.945097e+000
3.033527e+003,6.928738e+000
3.035455e+003,6.911236e+000
3.037384e+003,6.891360e+000
3.039312e+003,6.874986e+000
3.041241e+003,6.861322e+000
3.043169e+003,6.843237e+000
3.045098e+003,6.823378e+000
3.047026e+003,6.802340e+000
3.048955e+003,6.784695e+000
3.050883e+003,6.770964e+000
3.052812e+003,6.752403e+000
3.054740e+003,6.733330e+000
3.056669e+003,6.710301e+000
3.058597e+003,6.694934e+000
3.060526e+003,6.683766e+000
3.062454e+003,6.666740e+000
3.064383e+003,6.648331e+000
3.066311e+003,6.626137e+000
3.068240e+003,6.611419e+000
3.070168e+003,6.599530e+000
3.072097e+003,6.582887e+000
3.074025e+003,6.564331e+000
3.075954e+003,6.544868e+000
3.077882e+003,6.534733e+000
3.079811e+003,6.520719e+000
3.081739e+003,6.501287e+000
3.083668e+003,6.480326e+000
3.085596e+003,6.454934e+000
3.087525e+003,6.443816e+000
3.089453e+003,6.432410e+000
3.091382e+003,6.414086e+000
3.093310e+003,6.391236e+000
3.095239e+003,6.369397e+000
3.097167e+003,6.358852e+000
3.099096e+003,6.344728e+000
3.101024e+003,6.327544e+000
3.102953e+003,6.306202e+000
3.104881e+003,6.289180e+000
3.106810e+003,6.279892e+000
3.108738e+003,6.265843e+000
3.110667e+003,6.245359e+000
3.112595e+003,6.224356e+000
3.114524e+003,6.213492e+000
3.116452e+003,6.203405e+000
3.118381e+003,6.186553e+000
3.120309e+003,6.166754e+000
3.122238e+003,6.138454e+000
3.124166e+003,6.122442e+000
3.126095e+003,6.114000e+000
3.128023e+003,6.102746e+000
3.129952e+003,6.086905e+000
3.131880e+003,6.070709e+000
3.133809e+003,6.057385e+000
3.135737e+003,6.043787e+000
3.137666e+003,6.029571e+000
3.139594e+003,6.012846e+000
3.141523e+003,5.996359e+000
3.143451e+003,5.981626e+000
3.145380e+003,5.965897e+000
3.147308e+003,5.950606e+000
3.149237e+003,5.936154e+000
3.151165e+003,5.927348e+000
3.153094e+003,5.913133e+000
3.155022e+003,5.895896e+000
3.156951e+003,5.881227e+000
3.158879e+003,5.866923e+000
3.160808e+003,5.853291e+000
3.162736e+003,5.840265e+000
3.164665e+003,5.826936e+000
3.166593e+003,5.814187e+000
3.168522e+003,5.801315e+000
3.170450e+003,5.787852e+000
3.172379e+003,5.774378e+000
3.174307e+003,5.761779e+000
3.176236e+003,5.748748e+000
3.178164e+003,5.735697e+000
3.180093e+003,5.723679e+000
3.182021e+003,5.711848e+000
3.183950e+003,5.699139e+000
3.185878e+003,5.687348e+000
3.187807e+003,5.676525e+000
3.189735e+003,5.665742e+000
3.191664e+003,5.654752e+000
3.193592e+003,5.643512e+000
3.195521e+003,5.632451e+000
3.197449e+003,5.621157e+000
3.199378e+003,5.610746e+000
3.201306e+003,5.601540e+000
3.203235e+003,5.591704e+000
3.205163e+003,5.582467e+000
3.207092e+003,5.573746e+000
3.209020e+003,5.564732e+000
3.210948e+003,5.557357e+000
3.212877e+003,5.550319e+000
3.214806e+003,5.543426e+000
3.216734e+003,5.537109e+000
3.218663e+003,5.530265e+000
3.220591e+003,5.524486e+000
3.222520e+003,5.519072e+000
3.224448e+003,5.513088e+000
3.226376e+003,5.507176e+000
3.228305e+003,5.501602e+000
3.230234e+003,5.496346e+000
3.232162e+003,5.494540e+000
3.234091e+003,5.490205e+000
3.236019e+003,5.483201e+000
3.237948e+003,5.478289e+000
3.239876e+003,5.474401e+000
3.241804e+003,5.470468e+000
3.243733e+003,5.466733e+000
3.245662e+003,5.464746e+000
3.247590e+003,5.462849e+000
3.249519e+003,5.459030e+000
3.251447e+003,5.456395e+000
3.253375e+003,5.454702e+000
3.255304e+003,5.454393e+000
3.257232e+003,5.452918e+000
3.259161e+003,5.451816e+000
3.261090e+003,5.451138e+000
3.263018e+003,5.451394e+000
3.264947e+003,5.452013e+000
3.266875e+003,5.453547e+000
3.268803e+003,5.456480e+000
3.270732e+003,5.460131e+000
3.272660e+003,5.458020e+000
3.274589e+003,5.457642e+000
3.276518e+003,5.458457e+000
3.278446e+003,5.459385e+000
3.280375e+003,5.460303e+000
3.282303e+003,5.461458e+000
3.284231e+003,5.462253e+000
3.286160e+003,5.463372e+000
3.288088e+003,5.463636e+000
3.290017e+003,5.465147e+000
3.291946e+003,5.466462e+000
3.293874e+003,5.465409e+000
3.295802e+003,5.463904e+000
3.297731e+003,5.462443e+000
3.299659e+003,5.462167e+000
3.301588e+003,5.462593e+000
3.303516e+003,5.465358e+000
3.305445e+003,5.468017e+000
3.307374e+003,5.463701e+000
3.309302e+003,5.459766e+000
3.311230e+003,5.457611e+000
3.313159e+003,5.456417e+000
3.315087e+003,5.455494e+000
3.317016e+003,5.453977e+000
3.318944e+003,5.452381e+000
3.320873e+003,5.450002e+000
3.322802e+003,5.446702e+000
3.324730e+003,5.446345e+000
3.326658e+003,5.445541e+000
3.328587e+003,5.443836e+000
3.330515e+003,5.442454e+000
3.332444e+003,5.440360e+000
3.334372e+003,5.437501e+000
3.336301e+003,5.435338e+000
3.338229e+003,5.433775e+000
3.340158e+003,5.430724e+000
3.342086e+003,5.427634e+000
3.344015e+003,5.424842e+000
3.345943e+003,5.421165e+000
3.347872e+003,5.418848e+000
3.349800e+003,5.417059e+000
3.351729e+003,5.413268e+000
3.353657e+003,5.408009e+000
3.355586e+003,5.404068e+000
3.357514e+003,5.400391e+000
3.359443e+003,5.397561e+000
3.361371e+003,5.393326e+000
3.363300e+003,5.389189e+000
3.365229e+003,5.385381e+000
3.367157e+003,5.383503e+000
3.369085e+003,5.381051e+000
3.371014e+003,5.372947e+000
3.372942e+003,5.364707e+000
3.374871e+003,5.359441e+000
3.376799e+003,5.352860e+000
3.378728e+003,5.346912e+000
3.380656e+003,5.340239e+000
3.382585e+003,5.332936e+000
3.384513e+003,5.324594e+000
3.386442e+003,5.317740e+000
3.388370e+003,5.310305e+000
3.390299e+003,5.305115e+000
3.392227e+003,5.295756e+000
3.394156e+003,5.284129e+000
3.396084e+003,5.274782e+000
3.398013e+003,5.267724e+000
3.399941e+003,5.260308e+000
3.401870e+003,5.247873e+000
3.403798e+003,5.235222e+000
3.405727e+003,5.225050e+000
3.407655e+003,5.214506e+000
3.409584e+003,5.203732e+000
3.411512e+003,5.192175e+000
3.413441e+003,5.179701e+000
3.415369e+003,5.166897e+000
3.417298e+003,5.154494e+000
3.419226e+003,5.140013e+000
3.421155e+003,5.125891e+000
3.423083e+003,5.112877e+000
3.425012e+003,5.099677e+000
3.426940e+003,5.084938e+000
3.428869e+003,5.070507e+000
3.430797e+003,5.054342e+000
3.432726e+003,5.039979e+000
3.434654e+003,5.027050e+000
3.436583e+003,5.012324e+000
3.438511e+003,4.998626e+000
3.440440e+003,4.986628e+000
3.442368e+003,4.975077e+000
3.444297e+003,4.965446e+000
3.446225e+003,4.953789e+000
3.448154e+003,4.946531e+000
3.450082e+003,4.940347e+000
3.452011e+003,4.932237e+000
3.453939e+003,4.922823e+000
3.455868e+003,4.913304e+000
3.457796e+003,4.903980e+000
3.459725e+003,4.894914e+000
3.461653e+003,4.884670e+000
3.463582e+003,4.875565e+000
3.465510e+003,4.867287e+000
3.467439e+003,4.859929e+000
3.469367e+003,4.850984e+000
3.471296e+003,4.841250e+000
3.473224e+003,4.832258e+000
3.475153e+003,4.823797e+000
3.477081e+003,4.817307e+000
3.479010e+003,4.810228e+000
3.480938e+003,4.799989e+000
3.482867e+003,4.793445e+000
3.484795e+003,4.789344e+000
3.486724e+003,4.783293e+000
3.488652e+003,4.776698e+000
3.490581e+003,4.772245e+000
3.492509e+003,4.768409e+000
3.494438e+003,4.763813e+000
3.496366e+003,4.758485e+000
3.498295e+003,4.754331e+000
3.500223e+003,4.748240e+000
3.502152e+003,4.742053e+000
3.504080e+003,4.736876e+000
3.506009e+003,4.734155e+000
3.507937e+003,4.727306e+000
3.509866e+003,4.721620e+000
3.511794e+003,4.718566e+000
3.513723e+003,4.714613e+000
3.515651e+003,4.708424e+000
3.517580e+003,4.702237e+000
3.519508e+003,4.695140e+000
3.521437e+003,4.687225e+000
3.523365e+003,4.677971e+000
3.525294e+003,4.671213e+000
3.527222e+003,4.663231e+000
3.529151e+003,4.656433e+000
3.531079e+003,4.649507e+000
3.533008e+003,4.641117e+000
3.534936e+003,4.629359e+000
3.536865e+003,4.619007e+000
3.538793e+003,4.608955e+000
3.540722e+003,4.598204e+000
3.542650e+003,4.584122e+000
3.544579e+003,4.567966e+000
3.546507e+003,4.553171e+000
3.548436e+003,4.545041e+000
3.550364e+003,4.531996e+000
3.552293e+003,4.516146e+000
3.554221e+003,4.504606e+000
3.556150e+003,4.491475e+000
3.558078e+003,4.473803e+000
3.560007e+003,4.455802e+000
3.561935e+003,4.436972e+000
3.563864e+003,4.414157e+000
3.565792e+003,4.381700e+000
3.567721e+003,4.361199e+000
3.569649e+003,4.358993e+000
3.571578e+003,4.347699e+000
3.573506e+003,4.327451e+000
3.575435e+003,4.306560e+000
3.577363e+003,4.285224e+000
3.579292e+003,4.261887e+000
3.581220e+003,4.235733e+000
3.583149e+003,4.206357e+000
3.585077e+003,4.163844e+000
3.587006e+003,4.118016e+000
3.588934e+003,4.095023e+000
3.590863e+003,4.081660e+000
3.592791e+003,4.053038e+000
3.594720e+003,4.026867e+000
3.596648e+003,4.009451e+000
3.598577e+003,3.997204e+000
3.600505e+003,3.986049e+000
3.602434e+003,3.986582e+000
3.604362e+003,3.989540e+000
3.606291e+003,3.990722e+000
3.608219e+003,3.992692e+000
3.610148e+003,4.022331e+000
3.612076e+003,4.040665e+000
3.614005e+003,4.022402e+000
3.615933e+003,3.976015e+000
3.617862e+003,3.914163e+000
3.619790e+003,3.871550e+000
3.621719e+003,3.858616e+000
3.623647e+003,3.842078e+000
3.625576e+003,3.821161e+000
3.627504e+003,3.777546e+000
3.629433e+003,3.774854e+000
3.631361e+003,3.830009e+000
3.633290e+003,3.857054e+000
3.635218e+003,3.879669e+000
3.637146e+003,3.899098e+000
3.639075e+003,3.915350e+000
3.641004e+003,3.926082e+000
3.642932e+003,3.932974e+000
3.644861e+003,3.928297e+000
3.646789e+003,3.899392e+000
3.648718e+003,3.873803e+000
3.650646e+003,3.890101e+000
3.652574e+003,3.925831e+000
3.654503e+003,3.916948e+000
3.656432e+003,3.904019e+000
3.658360e+003,3.922390e+000
3.660289e+003,3.927636e+000
3.662217e+003,3.923732e+000
3.664146e+003,3.920689e+000
3.666074e+003,3.911932e+000
3.668002e+003,3.881602e+000
3.669931e+003,3.844380e+000
3.671860e+003,3.859302e+000
3.673788e+003,3.833526e+000
3.675717e+003,3.797344e+000
3.677645e+003,3.843551e+000
3.679573e+003,3.862998e+000
3.681502e+003,3.866446e+000
3.683430e+003,3.856554e+000
3.685359e+003,3.837453e+000
3.687288e+003,3.779675e+000
3.689216e+003,3.759964e+000
3.691145e+003,3.773545e+000
3.693073e+003,3.777003e+000
3.695001e+003,3.770812e+000
3.696930e+003,3.759040e+000
3.698858e+003,3.748828e+000
3.700787e+003,3.734124e+000
3.702716e+003,3.742244e+000
3.704644e+003,3.763986e+000
3.706573e+003,3.784510e+000
3.708501e+003,3.804001e+000
3.710429e+003,3.831706e+000
3.712358e+003,3.889125e+000
3.714286e+003,3.964870e+000
3.716215e+003,3.958988e+000
3.718144e+003,3.910206e+000
3.720072e+003,3.862405e+000
3.722000e+003,3.825767e+000
3.723929e+003,3.802352e+000
3.725857e+003,3.789699e+000
3.727786e+003,3.798758e+000
3.729714e+003,3.815729e+000
3.731643e+003,3.821113e+000
3.733572e+003,3.862465e+000
3.735500e+003,3.899306e+000
3.737428e+003,3.977948e+000
3.739357e+003,4.059978e+000
3.741285e+003,4.110917e+000
3.743214e+003,4.084306e+000
3.745142e+003,4.125988e+000
3.747071e+003,4.215853e+000
3.749000e+003,4.207731e+000
3.750928e+003,4.224111e+000
3.752856e+003,4.277095e+000
3.754785e+003,4.352147e+000
3.756713e+003,4.370049e+000
3.758642e+003,4.386415e+000
3.760570e+003,4.406353e+000
3.762499e+003,4.440134e+000
3.764427e+003,4.444275e+000
3.766356e+003,4.463872e+000
3.768284e+003,4.471493e+000
3.770213e+003,4.486042e+000
3.772141e+003,4.518292e+000
3.774070e+003,4.541362e+000
3.775998e+003,4.554039e+000
3.777927e+003,4.559858e+000
3.779855e+003,4.569417e+000
3.781784e+003,4.597294e+000
3.783712e+003,4.608029e+000
3.785641e+003,4.624346e+000
3.787569e+003,4.639522e+000
3.789498e+003,4.654840e+000
3.791426e+003,4.664694e+000
3.793355e+003,4.675025e+000
3.795283e+003,4.669621e+000
3.797212e+003,4.681832e+000
3.799140e+003,4.671467e+000
3.801069e+003,4.638093e+000
3.802997e+003,4.689091e+000
3.804926e+003,4.710338e+000
3.806854e+003,4.694099e+000
3.808783e+003,4.740782e+000
3.810711e+003,4.765100e+000
3.812640e+003,4.770363e+000
3.814568e+003,4.726453e+000
3.816497e+003,4.724711e+000
3.818425e+003,4.768379e+000
3.820354e+003,4.745803e+000
3.822282e+003,4.770192e+000
3.824211e+003,4.812369e+000
3.826139e+003,4.815469e+000
3.828068e+003,4.828466e+000
3.829996e+003,4.826864e+000
3.831925e+003,4.824257e+000
3.833853e+003,4.826674e+000
3.835782e+003,4.801963e+000
3.837710e+003,4.777326e+000
3.839639e+003,4.823180e+000
3.841567e+003,4.849893e+000
3.843496e+003,4.860798e+000
3.845424e+003,4.875000e+000
3.847353e+003,4.886235e+000
3.849281e+003,4.869164e+000
3.851210e+003,4.803346e+000
3.853138e+003,4.728975e+000
3.855067e+003,4.794890e+000
3.856995e+003,4.879845e+000
3.858924e+003,4.893283e+000
3.860852e+003,4.883732e+000
3.862781e+003,4.873504e+000
3.864709e+003,4.864650e+000
3.866638e+003,4.880702e+000
3.868566e+003,4.853076e+000
3.870495e+003,4.849484e+000
3.872423e+003,4.882829e+000
3.874352e+003,4.883326e+000
3.876280e+003,4.900480e+000
3.878209e+003,4.890643e+000
3.880137e+003,4.877068e+000
3.882066e+003,4.887852e+000
3.883994e+003,4.872312e+000
3.885923e+003,4.858986e+000
3.887851e+003,4.891887e+000
3.889780e+003,4.876808e+000
3.891708e+003,4.870743e+000
3.893637e+003,4.891045e+000
3.895565e+003,4.896531e+000
3.897494e+003,4.878921e+000
3.899422e+003,4.858516e+000
3.901351e+003,4.850811e+000
3.903279e+003,4.846745e+000
3.905208e+003,4.862344e+000
3.907136e+003,4.882610e+000
3.909065e+003,4.885449e+000
3.910993e+003,4.883629e+000
3.912922e+003,4.880461e+000
3.914850e+003,4.871100e+000
3.916779e+003,4.857709e+000
3.918707e+003,4.857777e+000
3.920636e+003,4.860229e+000
3.922564e+003,4.859614e+000
3.924493e+003,4.851825e+000
3.926421e+003,4.854215e+000
3.928350e+003,4.850792e+000
3.930278e+003,4.841956e+000
3.932207e+003,4.834746e+000
3.934135e+003,4.838294e+000
3.936064e+003,4.837917e+000
3.937992e+003,4.833706e+000
3.939921e+003,4.826523e+000
3.941849e+003,4.816308e+000
3.943778e+003,4.814021e+000
3.945706e+003,4.811924e+000
3.947635e+003,4.802698e+000
3.949563e+003,4.798770e+000
3.951492e+003,4.796752e+000
3.953420e+003,4.792914e+000
3.955349e+003,4.786258e+000
3.957277e+003,4.780606e+000
3.959206e+003,4.774096e+000
3.961134e+003,4.767737e+000
3.963063e+003,4.762503e+000
3.964991e+003,4.757674e+000
3.966920e+003,4.750317e+000
3.968848e+003,4.743297e+000
3.970777e+003,4.735994e+000
3.972705e+003,4.729128e+000
3.974634e+003,4.721875e+000
3.976562e+003,4.716452e+000
3.978491e+003,4.709930e+000
3.980419e+003,4.702829e+000
3.982348e+003,4.695187e+000
3.984276e+003,4.688070e+000
3.986205e+003,4.680072e+000
3.988133e+003,4.672848e+000
3.990062e+003,4.664646e+000
3.991990e+003,4.657426e+000
3.993919e+003,4.649541e+000
3.995847e+003,4.642334e+000
3.997776e+003,4.634816e+000
3.999704e+003,4.627393e+000
4.001633e+003,0.000000e+000
