3.991989e+002,8.859528e-001
4.011274e+002,9.566711e-001
4.030559e+002,1.026556e+000
4.049844e+002,1.094363e+000
4.069129e+002,1.172510e+000
4.088414e+002,1.247439e+000
4.107699e+002,1.326175e+000
4.126984e+002,1.406207e+000
4.146269e+002,1.498978e+000
4.165554e+002,1.574683e+000
4.184839e+002,1.641364e+000
4.204124e+002,1.735078e+000
4.223409e+002,1.838765e+000
4.242694e+002,1.928376e+000
4.261979e+002,2.019328e+000
4.281264e+002,2.103076e+000
4.300549e+002,2.198152e+000
4.319834e+002,2.284517e+000
4.339119e+002,2.363479e+000
4.358404e+002,2.441856e+000
4.377689e+002,2.531870e+000
4.396974e+002,2.606318e+000
4.416259e+002,2.679611e+000
4.435544e+002,2.744487e+000
4.454829e+002,2.814886e+000
4.474114e+002,2.879480e+000
4.493399e+002,2.948510e+000
4.512684e+002,3.007451e+000
4.531969e+002,3.072779e+000
4.551254e+002,3.123940e+000
4.570539e+002,3.176089e+000
4.589824e+002,3.242536e+000
4.609109e+002,3.314749e+000
4.628394e+002,3.369043e+000
4.647679e+002,3.434529e+000
4.666964e+002,3.480423e+000
4.686249e+002,3.540477e+000
4.705533e+002,3.598702e+000
4.724819e+002,3.657529e+000
4.744103e+002,3.724245e+000
4.763389e+002,3.795216e+000
4.782673e+002,3.854921e+000
4.801959e+002,3.940526e+000
4.821243e+002,4.018408e+000
4.840529e+002,4.091413e+000
4.859813e+002,4.161688e+000
4.879099e+002,4.235579e+000
4.898383e+002,4.289955e+000
4.917668e+002,4.352464e+000
4.936953e+002,4.399621e+000
4.956238e+002,4.444817e+000
4.975523e+002,4.483785e+000
4.994808e+002,4.531868e+000
5.014093e+002,4.567771e+000
5.033378e+002,4.627438e+000
5.052663e+002,4.678268e+000
5.071948e+002,4.734983e+000
5.091233e+002,4.792046e+000
5.110518e+002,4.849076e+000
5.129803e+002,4.893188e+000
5.149088e+002,4.947959e+000
5.168373e+002,4.982607e+000
5.187658e+002,5.038022e+000
5.206943e+002,5.095929e+000
5.226228e+002,5.156604e+000
5.245513e+002,5.206738e+000
5.264798e+002,5.276043e+000
5.284083e+002,5.342461e+000
5.303368e+002,5.414307e+000
5.322653e+002,5.473656e+000
5.341938e+002,5.535708e+000
5.361223e+002,5.585033e+000
5.380508e+002,5.643708e+000
5.399792e+002,5.681433e+000
5.419078e+002,5.734393e+000
5.438363e+002,5.774261e+000
5.457648e+002,5.822589e+000
5.476932e+002,5.861521e+000
5.496218e+002,5.907204e+000
5.515503e+002,5.942657e+000
5.534788e+002,5.997083e+000
5.554072e+002,6.035790e+000
5.573358e+002,6.086471e+000
5.592643e+002,6.129209e+000
5.611927e+002,6.186136e+000
5.631212e+002,6.231258e+000
5.650497e+002,6.298481e+000
5.669783e+002,6.342370e+000
5.689067e+002,6.397418e+000
5.708352e+002,6.435406e+000
5.727637e+002,6.484292e+000
5.746923e+002,6.512034e+000
5.766207e+002,6.558256e+000
5.785492e+002,6.582343e+000
5.804777e+002,6.623970e+000
5.824063e+002,6.650415e+000
5.843347e+002,6.694947e+000
5.862632e+002,6.718787e+000
5.881917e+002,6.767195e+000
5.901202e+002,6.815049e+000
5.920487e+002,6.889451e+000
5.939772e+002,6.945258e+000
5.959057e+002,7.018559e+000
5.978342e+002,7.079351e+000
5.997627e+002,7.175179e+000
6.016912e+002,7.232201e+000
6.036197e+002,7.320587e+000
6.055482e+002,7.378365e+000
6.074767e+002,7.464002e+000
6.094052e+002,7.520666e+000
6.113337e+002,7.620104e+000
6.132622e+002,7.697148e+000
6.151907e+002,7.739913e+000
6.171192e+002,7.591826e+000
6.190477e+002,7.781897e+000
6.209762e+002,8.002749e+000
6.229047e+002,8.086975e+000
6.248332e+002,8.133571e+000
6.267617e+002,8.210463e+000
6.286902e+002,8.253242e+000
6.306187e+002,8.318236e+000
6.325472e+002,8.340819e+000
6.344756e+002,8.381059e+000
6.364042e+002,8.364306e+000
6.383326e+002,8.375827e+000
6.402612e+002,8.314511e+000
6.421896e+002,8.283813e+000
6.441182e+002,8.185720e+000
6.460466e+002,8.097773e+000
6.479752e+002,7.859255e+000
6.499036e+002,7.871239e+000
6.518322e+002,7.921281e+000
6.537606e+002,7.973560e+000
6.556891e+002,7.957436e+000
6.576177e+002,8.086896e+000
6.595461e+002,8.165220e+000
6.614746e+002,8.387746e+000
6.634031e+002,8.600863e+000
6.653317e+002,8.133248e+000
6.672601e+002,4.873410e+000
6.691886e+002,4.891834e+000
6.711171e+002,7.758139e+000
6.730457e+002,8.241261e+000
6.749741e+002,8.184918e+000
6.769026e+002,8.051833e+000
6.788311e+002,8.108999e+000
6.807596e+002,8.095411e+000
6.826881e+002,8.247238e+000
6.846166e+002,8.333879e+000
6.865451e+002,8.542394e+000
6.884736e+002,8.668047e+000
6.904021e+002,8.913494e+000
6.923306e+002,9.106939e+000
6.942591e+002,9.358952e+000
6.961876e+002,9.538894e+000
6.981161e+002,9.769461e+000
7.000446e+002,9.926705e+000
7.019731e+002,1.012084e+001
7.039016e+002,1.023436e+001
7.058301e+002,1.038731e+001
7.077585e+002,1.046820e+001
7.096871e+002,1.058885e+001
7.116156e+002,1.064018e+001
7.135441e+002,1.073462e+001
7.154725e+002,1.076934e+001
7.174011e+002,1.077714e+001
7.193296e+002,1.049300e+001
7.212581e+002,1.057993e+001
7.231865e+002,1.090048e+001
7.251151e+002,1.096414e+001
7.270436e+002,1.097152e+001
7.289720e+002,1.099055e+001
7.309005e+002,1.099978e+001
7.328290e+002,1.101982e+001
7.347576e+002,1.103097e+001
7.366860e+002,1.105258e+001
7.386145e+002,1.106037e+001
7.405430e+002,1.107159e+001
7.424716e+002,1.109013e+001
7.444000e+002,1.112998e+001
7.463285e+002,1.114625e+001
7.482570e+002,1.117603e+001
7.501855e+002,1.119372e+001
7.521140e+002,1.122698e+001
7.540425e+002,1.124490e+001
7.559710e+002,1.127801e+001
7.578995e+002,1.129977e+001
7.598280e+002,1.133885e+001
7.617565e+002,1.136746e+001
7.636850e+002,1.140628e+001
7.656135e+002,1.143144e+001
7.675420e+002,1.147284e+001
7.694705e+002,1.150127e+001
7.713990e+002,1.154189e+001
7.733275e+002,1.156865e+001
7.752560e+002,1.160320e+001
7.771844e+002,1.162359e+001
7.791130e+002,1.165668e+001
7.810415e+002,1.167607e+001
7.829700e+002,1.170088e+001
7.848984e+002,1.170811e+001
7.868270e+002,1.171816e+001
7.887555e+002,1.170580e+001
7.906840e+002,1.169972e+001
7.926124e+002,1.167954e+001
7.945410e+002,1.167080e+001
7.964695e+002,1.165228e+001
7.983979e+002,1.164512e+001
8.003264e+002,1.163026e+001
8.022549e+002,1.163216e+001
8.041835e+002,1.162486e+001
8.061119e+002,1.163017e+001
8.080404e+002,1.163105e+001
8.099689e+002,1.164431e+001
8.118975e+002,1.164877e+001
8.138259e+002,1.166269e+001
8.157545e+002,1.166496e+001
8.176830e+002,1.167304e+001
8.196115e+002,1.166738e+001
8.215399e+002,1.167238e+001
8.234684e+002,1.167796e+001
8.253970e+002,1.170253e+001
8.273254e+002,1.172128e+001
8.292539e+002,1.175049e+001
8.311824e+002,1.177024e+001
8.331110e+002,1.179408e+001
8.350394e+002,1.180727e+001
8.369679e+002,1.183017e+001
8.388964e+002,1.184593e+001
8.408250e+002,1.187151e+001
8.427534e+002,1.189006e+001
8.446819e+002,1.191758e+001
8.466104e+002,1.194166e+001
8.485389e+002,1.197490e+001
8.504674e+002,1.199933e+001
8.523959e+002,1.203241e+001
8.543244e+002,1.205504e+001
8.562529e+002,1.208700e+001
8.581814e+002,1.211288e+001
8.601099e+002,1.214580e+001
8.620384e+002,1.216955e+001
8.639669e+002,1.220327e+001
8.658954e+002,1.223004e+001
8.678239e+002,1.226212e+001
8.697524e+002,1.229059e+001
8.716809e+002,1.232690e+001
8.736094e+002,1.235797e+001
8.755378e+002,1.240047e+001
8.774664e+002,1.243323e+001
8.793949e+002,1.247412e+001
8.813234e+002,1.251181e+001
8.832518e+002,1.255267e+001
8.851804e+002,1.258785e+001
8.871089e+002,1.263119e+001
8.890374e+002,1.266517e+001
8.909658e+002,1.270838e+001
8.928943e+002,1.274745e+001
8.948229e+002,1.279225e+001
8.967513e+002,1.283392e+001
8.986798e+002,1.288381e+001
9.006083e+002,1.292837e+001
9.025369e+002,1.298357e+001
9.044653e+002,1.303301e+001
9.063938e+002,1.308787e+001
9.083223e+002,1.313883e+001
9.102509e+002,1.319482e+001
9.121793e+002,1.324453e+001
9.141078e+002,1.330201e+001
9.160364e+002,1.335230e+001
9.179648e+002,1.341343e+001
9.198933e+002,1.347700e+001
9.218218e+002,1.354531e+001
9.237504e+002,1.360681e+001
9.256788e+002,1.367504e+001
9.276073e+002,1.373429e+001
9.295358e+002,1.380133e+001
9.314644e+002,1.386374e+001
9.333928e+002,1.392736e+001
9.353213e+002,1.398632e+001
9.372498e+002,1.404853e+001
9.391783e+002,1.410039e+001
9.411068e+002,1.415981e+001
9.430353e+002,1.421314e+001
9.449637e+002,1.426690e+001
9.468923e+002,1.431545e+001
9.488208e+002,1.437282e+001
9.507493e+002,1.442204e+001
9.526777e+002,1.447912e+001
9.546063e+002,1.453128e+001
9.565348e+002,1.458483e+001
9.584633e+002,1.463495e+001
9.603917e+002,1.469285e+001
9.623203e+002,1.474761e+001
9.642488e+002,1.481699e+001
9.661772e+002,1.488370e+001
9.681057e+002,1.495456e+001
9.700343e+002,1.502387e+001
9.719628e+002,1.509441e+001
9.738912e+002,1.516051e+001
9.758197e+002,1.524059e+001
9.777483e+002,1.531141e+001
9.796768e+002,1.537821e+001
9.816052e+002,1.543740e+001
9.835337e+002,1.549830e+001
9.854623e+002,1.555413e+001
9.873907e+002,1.561770e+001
9.893192e+002,1.567525e+001
9.912477e+002,1.573564e+001
9.931763e+002,1.579425e+001
9.951047e+002,1.585726e+001
9.970332e+002,1.591467e+001
9.989617e+002,1.597210e+001
1.000890e+003,1.601711e+001
1.002819e+003,1.606078e+001
1.004747e+003,1.609323e+001
1.006676e+003,1.612057e+001
1.008604e+003,1.613661e+001
1.010533e+003,1.615343e+001
1.012461e+003,1.616258e+001
1.014390e+003,1.617781e+001
1.016318e+003,1.619066e+001
1.018247e+003,1.621082e+001
1.020175e+003,1.623207e+001
1.022104e+003,1.626097e+001
1.024032e+003,1.628613e+001
1.025961e+003,1.632303e+001
1.027889e+003,1.635616e+001
1.029818e+003,1.639362e+001
1.031746e+003,1.643104e+001
1.033675e+003,1.647220e+001
1.035603e+003,1.650943e+001
1.037532e+003,1.655214e+001
1.039460e+003,1.657994e+001
1.041389e+003,1.660214e+001
1.043317e+003,1.661346e+001
1.045246e+003,1.662412e+001
1.047174e+003,1.663113e+001
1.049103e+003,1.664812e+001
1.051031e+003,1.666154e+001
1.052960e+003,1.668100e+001
1.054888e+003,1.670100e+001
1.056817e+003,1.672421e+001
1.058745e+003,1.674598e+001
1.060674e+003,1.677648e+001
1.062602e+003,1.680330e+001
1.064531e+003,1.683535e+001
1.066459e+003,1.685921e+001
1.068388e+003,1.688356e+001
1.070316e+003,1.690056e+001
1.072245e+003,1.691076e+001
1.074173e+003,1.690964e+001
1.076102e+003,1.693728e+001
1.078030e+003,1.698038e+001
1.079959e+003,1.702664e+001
1.081887e+003,1.709152e+001
1.083816e+003,1.716608e+001
1.085744e+003,1.721415e+001
1.087673e+003,1.725312e+001
1.089601e+003,1.727869e+001
1.091530e+003,1.730183e+001
1.093458e+003,1.731935e+001
1.095387e+003,1.734376e+001
1.097315e+003,1.736979e+001
1.099244e+003,1.740689e+001
1.101172e+003,1.743986e+001
1.103101e+003,1.748094e+001
1.105029e+003,1.752622e+001
1.106958e+003,1.757930e+001
1.108886e+003,1.763621e+001
1.110815e+003,1.770704e+001
1.112743e+003,1.778012e+001
1.114672e+003,1.786652e+001
1.116600e+003,1.795492e+001
1.118529e+003,1.804202e+001
1.120457e+003,1.812331e+001
1.122386e+003,1.820962e+001
1.124314e+003,1.829193e+001
1.126243e+003,1.837855e+001
1.128171e+003,1.845544e+001
1.130100e+003,1.852368e+001
1.132028e+003,1.858013e+001
1.133957e+003,1.863041e+001
1.135885e+003,1.866310e+001
1.137814e+003,1.868533e+001
1.139742e+003,1.868167e+001
1.141671e+003,1.867636e+001
1.143599e+003,1.871105e+001
1.145528e+003,1.876873e+001
1.147456e+003,1.880770e+001
1.149385e+003,1.884699e+001
1.151313e+003,1.890411e+001
1.153242e+003,1.899413e+001
1.155170e+003,1.908075e+001
1.157099e+003,1.915817e+001
1.159027e+003,1.922922e+001
1.160956e+003,1.930720e+001
1.162884e+003,1.938238e+001
1.164813e+003,1.947111e+001
1.166741e+003,1.956801e+001
1.168670e+003,1.966108e+001
1.170598e+003,1.973739e+001
1.172526e+003,1.980407e+001
1.174455e+003,1.984526e+001
1.176384e+003,1.985535e+001
1.178312e+003,1.979468e+001
1.180240e+003,1.973260e+001
1.182169e+003,1.985095e+001
1.184098e+003,2.002659e+001
1.186026e+003,2.009551e+001
1.187954e+003,2.013320e+001
1.189883e+003,2.015653e+001
1.191812e+003,2.018180e+001
1.193740e+003,2.020572e+001
1.195668e+003,2.023947e+001
1.197597e+003,2.026968e+001
1.199526e+003,2.031514e+001
1.201454e+003,2.035740e+001
1.203382e+003,2.040627e+001
1.205311e+003,2.045211e+001
1.207240e+003,2.050234e+001
1.209168e+003,2.054338e+001
1.211096e+003,2.058654e+001
1.213025e+003,2.061853e+001
1.214953e+003,2.065369e+001
1.216882e+003,2.068255e+001
1.218810e+003,2.071468e+001
1.220739e+003,2.074222e+001
1.222667e+003,2.077913e+001
1.224596e+003,2.080730e+001
1.226524e+003,2.084354e+001
1.228453e+003,2.087474e+001
1.230381e+003,2.090963e+001
1.232310e+003,2.094194e+001
1.234238e+003,2.097946e+001
1.236167e+003,2.100603e+001
1.238095e+003,2.103886e+001
1.240024e+003,2.106607e+001
1.241952e+003,2.109307e+001
1.243881e+003,2.111261e+001
1.245809e+003,2.113665e+001
1.247738e+003,2.115502e+001
1.249666e+003,2.118129e+001
1.251595e+003,2.119645e+001
1.253523e+003,2.120135e+001
1.255452e+003,2.118893e+001
1.257380e+003,2.116649e+001
1.259309e+003,2.112317e+001
1.261237e+003,2.109936e+001
1.263166e+003,2.109972e+001
1.265094e+003,2.114348e+001
1.267023e+003,2.123159e+001
1.268951e+003,2.134974e+001
1.270880e+003,2.144617e+001
1.272808e+003,2.152890e+001
1.274737e+003,2.158420e+001
1.276665e+003,2.163293e+001
1.278594e+003,2.167375e+001
1.280522e+003,2.170678e+001
1.282451e+003,2.172810e+001
1.284379e+003,2.175912e+001
1.286308e+003,2.176834e+001
1.288236e+003,2.177603e+001
1.290165e+003,2.179108e+001
1.292093e+003,2.180247e+001
1.294022e+003,2.180382e+001
1.295950e+003,2.181334e+001
1.297879e+003,2.181464e+001
1.299807e+003,2.182112e+001
1.301736e+003,2.181480e+001
1.303664e+003,2.180586e+001
1.305593e+003,2.180911e+001
1.307521e+003,2.185548e+001
1.309450e+003,2.187997e+001
1.311378e+003,2.188951e+001
1.313307e+003,2.189735e+001
1.315235e+003,2.191573e+001
1.317164e+003,2.192022e+001
1.319092e+003,2.193188e+001
1.321021e+003,2.194658e+001
1.322949e+003,2.196555e+001
1.324878e+003,2.196796e+001
1.326806e+003,2.196597e+001
1.328735e+003,2.197105e+001
1.330663e+003,2.195763e+001
1.332592e+003,2.194707e+001
1.334520e+003,2.200670e+001
1.336449e+003,2.201039e+001
1.338377e+003,2.198731e+001
1.340306e+003,2.198281e+001
1.342234e+003,2.201430e+001
1.344163e+003,2.201728e+001
1.346091e+003,2.201186e+001
1.348020e+003,2.199774e+001
1.349948e+003,2.199618e+001
1.351877e+003,2.198501e+001
1.353805e+003,2.198115e+001
1.355734e+003,2.197624e+001
1.357662e+003,2.198616e+001
1.359591e+003,2.195047e+001
1.361519e+003,2.189220e+001
1.363448e+003,2.189393e+001
1.365376e+003,2.196511e+001
1.367305e+003,2.196084e+001
1.369233e+003,2.195768e+001
1.371162e+003,2.194562e+001
1.373090e+003,2.188770e+001
1.375019e+003,2.186405e+001
1.376947e+003,2.190335e+001
1.378876e+003,2.187903e+001
1.380804e+003,2.182963e+001
1.382733e+003,2.169771e+001
1.384661e+003,2.164222e+001
1.386590e+003,2.163218e+001
1.388518e+003,2.175179e+001
1.390447e+003,2.186755e+001
1.392375e+003,2.183202e+001
1.394304e+003,2.171176e+001
1.396232e+003,2.175402e+001
1.398161e+003,2.174433e+001
1.400089e+003,2.176819e+001
1.402018e+003,2.183713e+001
1.403946e+003,2.179575e+001
1.405875e+003,2.179785e+001
1.407803e+003,2.184572e+001
1.409732e+003,2.184333e+001
1.411660e+003,2.184958e+001
1.413589e+003,2.185632e+001
1.415517e+003,2.183457e+001
1.417446e+003,2.166084e+001
1.419374e+003,2.152288e+001
1.421303e+003,2.175526e+001
1.423231e+003,2.184424e+001
1.425160e+003,2.185979e+001
1.427088e+003,2.188912e+001
1.429017e+003,2.182933e+001
1.430945e+003,2.183770e+001
1.432874e+003,2.186604e+001
1.434802e+003,2.171153e+001
1.436731e+003,2.150403e+001
1.438659e+003,2.173495e+001
1.440588e+003,2.182968e+001
1.442516e+003,2.181281e+001
1.444445e+003,2.176813e+001
1.446373e+003,2.169850e+001
1.448302e+003,2.162249e+001
1.450230e+003,2.167728e+001
1.452159e+003,2.163388e+001
1.454087e+003,2.150410e+001
1.456016e+003,2.102447e+001
1.457944e+003,2.106896e+001
1.459873e+003,2.146566e+001
1.461801e+003,2.157444e+001
1.463730e+003,2.143287e+001
1.465658e+003,2.141796e+001
1.467587e+003,2.155319e+001
1.469515e+003,2.150959e+001
1.471444e+003,2.123276e+001
1.473372e+003,2.116283e+001
1.475301e+003,2.134510e+001
1.477229e+003,2.143747e+001
1.479158e+003,2.151971e+001
1.481086e+003,2.149109e+001
1.483015e+003,2.150004e+001
1.484943e+003,2.144836e+001
1.486872e+003,2.133687e+001
1.488800e+003,2.123014e+001
1.490729e+003,2.123242e+001
1.492657e+003,2.136666e+001
1.494586e+003,2.122419e+001
1.496514e+003,2.102136e+001
1.498443e+003,2.113450e+001
1.500371e+003,2.124958e+001
1.502300e+003,2.129278e+001
1.504228e+003,2.093657e+001
1.506157e+003,2.045129e+001
1.508085e+003,2.069787e+001
1.510014e+003,2.105470e+001
1.511942e+003,2.107125e+001
1.513871e+003,2.108275e+001
1.515799e+003,2.095394e+001
1.517728e+003,2.089345e+001
1.519656e+003,2.070587e+001
1.521585e+003,2.050416e+001
1.523513e+003,2.075015e+001
1.525442e+003,2.076834e+001
1.527370e+003,2.081091e+001
1.529299e+003,2.085209e+001
1.531227e+003,2.078747e+001
1.533156e+003,2.057939e+001
1.535084e+003,2.066983e+001
1.537013e+003,2.051953e+001
1.538941e+003,1.995283e+001
1.540870e+003,1.993532e+001
1.542798e+003,2.024282e+001
1.544727e+003,2.037759e+001
1.546655e+003,2.049771e+001
1.548584e+003,2.048185e+001
1.550512e+003,2.042182e+001
1.552441e+003,2.032504e+001
1.554369e+003,2.014786e+001
1.556298e+003,1.996194e+001
1.558226e+003,1.939532e+001
1.560155e+003,1.949599e+001
1.562083e+003,2.007899e+001
1.564012e+003,2.016782e+001
1.565940e+003,2.013200e+001
1.567869e+003,1.999674e+001
1.569797e+003,1.984896e+001
1.571726e+003,1.996931e+001
1.573654e+003,1.987114e+001
1.575583e+003,1.944602e+001
1.577511e+003,1.957446e+001
1.579440e+003,1.982335e+001
1.581368e+003,1.977303e+001
1.583297e+003,1.973065e+001
1.585225e+003,1.966581e+001
1.587154e+003,1.961886e+001
1.589082e+003,1.954656e+001
1.591010e+003,1.949420e+001
1.592939e+003,1.941857e+001
1.594868e+003,1.935379e+001
1.596796e+003,1.929089e+001
1.598724e+003,1.923854e+001
1.600653e+003,1.915664e+001
1.602582e+003,1.908657e+001
1.604510e+003,1.900789e+001
1.606438e+003,1.892865e+001
1.608367e+003,1.882387e+001
1.610296e+003,1.875167e+001
1.612224e+003,1.867794e+001
1.614152e+003,1.849332e+001
1.616081e+003,1.806815e+001
1.618010e+003,1.808998e+001
1.619938e+003,1.823930e+001
1.621866e+003,1.810069e+001
1.623795e+003,1.802156e+001
1.625724e+003,1.806134e+001
1.627652e+003,1.800028e+001
1.629580e+003,1.797414e+001
1.631509e+003,1.794199e+001
1.633438e+003,1.768506e+001
1.635366e+003,1.734745e+001
1.637294e+003,1.748488e+001
1.639223e+003,1.762095e+001
1.641151e+003,1.757032e+001
1.643080e+003,1.747177e+001
1.645008e+003,1.716027e+001
1.646937e+003,1.701921e+001
1.648865e+003,1.715916e+001
1.650794e+003,1.685321e+001
1.652722e+003,1.623272e+001
1.654651e+003,1.657863e+001
1.656579e+003,1.696867e+001
1.658508e+003,1.695419e+001
1.660436e+003,1.683723e+001
1.662365e+003,1.667214e+001
1.664293e+003,1.666842e+001
1.666222e+003,1.664348e+001
1.668150e+003,1.640845e+001
1.670079e+003,1.629052e+001
1.672007e+003,1.633102e+001
1.673936e+003,1.618085e+001
1.675864e+003,1.606404e+001
1.677793e+003,1.616779e+001
1.679721e+003,1.607500e+001
1.681650e+003,1.590485e+001
1.683578e+003,1.542779e+001
1.685507e+003,1.543674e+001
1.687435e+003,1.571412e+001
1.689364e+003,1.567928e+001
1.691292e+003,1.562020e+001
1.693221e+003,1.546306e+001
1.695149e+003,1.502923e+001
1.697078e+003,1.501682e+001
1.699006e+003,1.486899e+001
1.700935e+003,1.472914e+001
1.702863e+003,1.500272e+001
1.704792e+003,1.489844e+001
1.706720e+003,1.486176e+001
1.708649e+003,1.481531e+001
1.710577e+003,1.476500e+001
1.712506e+003,1.461976e+001
1.714434e+003,1.442899e+001
1.716363e+003,1.412130e+001
1.718291e+003,1.405534e+001
1.720220e+003,1.421834e+001
1.722148e+003,1.419741e+001
1.724077e+003,1.409410e+001
1.726005e+003,1.401781e+001
1.727934e+003,1.390358e+001
1.729862e+003,1.378290e+001
1.731791e+003,1.355487e+001
1.733719e+003,1.323925e+001
1.735648e+003,1.334285e+001
1.737576e+003,1.342368e+001
1.739505e+003,1.326376e+001
1.741433e+003,1.324413e+001
1.743362e+003,1.319144e+001
1.745290e+003,1.312699e+001
1.747219e+003,1.301126e+001
1.749147e+003,1.287653e+001
1.751076e+003,1.273029e+001
1.753004e+003,1.275117e+001
1.754933e+003,1.269395e+001
1.756861e+003,1.256905e+001
1.758790e+003,1.249816e+001
1.760718e+003,1.235158e+001
1.762647e+003,1.224610e+001
1.764575e+003,1.221445e+001
1.766504e+003,1.206182e+001
1.768432e+003,1.191251e+001
1.770361e+003,1.175301e+001
1.772289e+003,1.153845e+001
1.774218e+003,1.150249e+001
1.776146e+003,1.142319e+001
1.778075e+003,1.127715e+001
1.780003e+003,1.115322e+001
1.781932e+003,1.106392e+001
1.783860e+003,1.096184e+001
1.785789e+003,1.086486e+001
1.787717e+003,1.079389e+001
1.789646e+003,1.065550e+001
1.791574e+003,1.047433e+001
1.793503e+003,1.038666e+001
1.795431e+003,1.035402e+001
1.797360e+003,1.023395e+001
1.799288e+003,1.009698e+001
1.801217e+003,9.956802e+000
1.803145e+003,9.850329e+000
1.805074e+003,9.708569e+000
1.807002e+003,9.552024e+000
1.808931e+003,9.355181e+000
1.810859e+003,9.152675e+000
1.812788e+003,8.922532e+000
1.814716e+003,8.628960e+000
1.816645e+003,8.204901e+000
1.818573e+003,7.857317e+000
1.820502e+003,7.665173e+000
1.822430e+003,7.546801e+000
1.824359e+003,7.412212e+000
1.826287e+003,7.303756e+000
1.828216e+003,7.172066e+000
1.830144e+003,7.035710e+000
1.832073e+003,6.935774e+000
1.834001e+003,6.814368e+000
1.835930e+003,6.670568e+000
1.837858e+003,6.535478e+000
1.839787e+003,6.402214e+000
1.841715e+003,6.257988e+000
1.843644e+003,6.081899e+000
1.845572e+003,5.985614e+000
1.847501e+003,5.897635e+000
1.849429e+003,5.788844e+000
1.851358e+003,5.679446e+000
1.853286e+003,5.572201e+000
1.855215e+003,5.466533e+000
1.857143e+003,5.366031e+000
1.859072e+003,5.265665e+000
1.861000e+003,5.171656e+000
1.862929e+003,5.077962e+000
1.864857e+003,4.985632e+000
1.866786e+003,4.878670e+000
1.868714e+003,4.775055e+000
1.870643e+003,4.698403e+000
1.872571e+003,4.625833e+000
1.874500e+003,4.535626e+000
1.876428e+003,4.448614e+000
1.878357e+003,4.357373e+000
1.880285e+003,4.271316e+000
1.882214e+003,4.180686e+000
1.884142e+003,4.094381e+000
1.886071e+003,4.006750e+000
1.887999e+003,3.917232e+000
1.889928e+003,3.827127e+000
1.891856e+003,3.753268e+000
1.893785e+003,3.667806e+000
1.895713e+003,3.588092e+000
1.897642e+003,3.507338e+000
1.899570e+003,3.431901e+000
1.901499e+003,3.350632e+000
1.903427e+003,3.274778e+000
1.905356e+003,3.195971e+000
1.907284e+003,3.120030e+000
1.909213e+003,3.040045e+000
1.911141e+003,2.970569e+000
1.913070e+003,2.896921e+000
1.914998e+003,2.825169e+000
1.916927e+003,2.743070e+000
1.918855e+003,2.678716e+000
1.920784e+003,2.616889e+000
1.922712e+003,2.531335e+000
1.924641e+003,2.431890e+000
1.926569e+003,2.335860e+000
1.928498e+003,2.239018e+000
1.930426e+003,2.149637e+000
1.932355e+003,2.059694e+000
1.934283e+003,1.975014e+000
1.936212e+003,1.890292e+000
1.938140e+003,1.811626e+000
1.940069e+003,1.731534e+000
1.941997e+003,1.655455e+000
1.943926e+003,1.581941e+000
1.945854e+003,1.514975e+000
1.947783e+003,1.445361e+000
1.949711e+003,1.380479e+000
1.951640e+003,1.316031e+000
1.953568e+003,1.256316e+000
1.955497e+003,1.185701e+000
1.957425e+003,1.094264e+000
1.959354e+003,1.000835e+000
1.961282e+003,9.454592e-001
1.963211e+003,9.005214e-001
1.965139e+003,8.606347e-001
1.967068e+003,8.178837e-001
1.968996e+003,7.816473e-001
1.970925e+003,7.432814e-001
1.972853e+003,7.100058e-001
1.974782e+003,6.751769e-001
1.976710e+003,6.528040e-001
1.978639e+003,6.737985e-001
1.980567e+003,7.521225e-001
1.982496e+003,8.122135e-001
1.984424e+003,8.523600e-001
1.986353e+003,8.761991e-001
1.988281e+003,8.960008e-001
1.990210e+003,9.056108e-001
1.992138e+003,9.128494e-001
1.994067e+003,9.126989e-001
1.995995e+003,9.110905e-001
1.997924e+003,8.968251e-001
1.999852e+003,8.746286e-001
2.001781e+003,8.371444e-001
2.003709e+003,7.893890e-001
2.005638e+003,7.261863e-001
2.007566e+003,6.872351e-001
2.009495e+003,6.783102e-001
2.011423e+003,6.763955e-001
2.013352e+003,6.675740e-001
2.015280e+003,6.608326e-001
2.017208e+003,6.499949e-001
2.019137e+003,6.420164e-001
2.021066e+003,6.307015e-001
2.022994e+003,6.241932e-001
2.024922e+003,6.159710e-001
2.026851e+003,6.109816e-001
2.028780e+003,6.051597e-001
2.030708e+003,6.067892e-001
2.032636e+003,6.079996e-001
2.034565e+003,6.258571e-001
2.036494e+003,6.629420e-001
2.038422e+003,7.084858e-001
2.040350e+003,7.466652e-001
2.042279e+003,7.861028e-001
2.044208e+003,8.206964e-001
2.046136e+003,8.587303e-001
2.048064e+003,9.031070e-001
2.049993e+003,1.002777e+000
2.051921e+003,1.131725e+000
2.053850e+003,1.194459e+000
2.055778e+003,1.240532e+000
2.057707e+003,1.289765e+000
2.059635e+003,1.321905e+000
2.061564e+003,1.354839e+000
2.063492e+003,1.384029e+000
2.065421e+003,1.416795e+000
2.067349e+003,1.450002e+000
2.069278e+003,1.489895e+000
2.071206e+003,1.529749e+000
2.073135e+003,1.574766e+000
2.075063e+003,1.620112e+000
2.076992e+003,1.670924e+000
2.078920e+003,1.723184e+000
2.080849e+003,1.777877e+000
2.082777e+003,1.824306e+000
2.084706e+003,1.865350e+000
2.086634e+003,1.893530e+000
2.088563e+003,1.914286e+000
2.090491e+003,1.916062e+000
2.092420e+003,1.897115e+000
2.094348e+003,1.849480e+000
2.096277e+003,1.825525e+000
2.098205e+003,1.836401e+000
2.100134e+003,1.859482e+000
2.102062e+003,1.878034e+000
2.103991e+003,1.896494e+000
2.105919e+003,1.911665e+000
2.107848e+003,1.929228e+000
2.109776e+003,1.945286e+000
2.111705e+003,1.965631e+000
2.113633e+003,1.986819e+000
2.115562e+003,2.001837e+000
2.117490e+003,1.992322e+000
2.119419e+003,1.964862e+000
2.121347e+003,1.922141e+000
2.123276e+003,1.866239e+000
2.125204e+003,1.794688e+000
2.127133e+003,1.710618e+000
2.129061e+003,1.608250e+000
2.130990e+003,1.489937e+000
2.132918e+003,1.350372e+000
2.134847e+003,1.225897e+000
2.136775e+003,1.139381e+000
2.138704e+003,1.073611e+000
2.140632e+003,1.009499e+000
2.142561e+003,9.463149e-001
2.144489e+003,8.816855e-001
2.146418e+003,8.221686e-001
2.148346e+003,7.670699e-001
2.150275e+003,7.183077e-001
2.152203e+003,6.621311e-001
2.154132e+003,5.970488e-001
2.156060e+003,5.164856e-001
2.157989e+003,4.384460e-001
2.159917e+003,4.216324e-001
2.161846e+003,4.733947e-001
2.163774e+003,5.246076e-001
2.165703e+003,5.724333e-001
2.167631e+003,6.176123e-001
2.169560e+003,6.573749e-001
2.171488e+003,6.786800e-001
2.173417e+003,6.869037e-001
2.175345e+003,6.850565e-001
2.177274e+003,6.970847e-001
2.179202e+003,7.075129e-001
2.181131e+003,7.099099e-001
2.183059e+003,7.221037e-001
2.184988e+003,7.527211e-001
2.186916e+003,7.837566e-001
2.188845e+003,8.158453e-001
2.190773e+003,8.443715e-001
2.192702e+003,8.726262e-001
2.194630e+003,8.970404e-001
2.196559e+003,9.233817e-001
2.198487e+003,9.455279e-001
2.200416e+003,9.685525e-001
2.202344e+003,9.889022e-001
2.204273e+003,1.010612e+000
2.206201e+003,1.030846e+000
2.208130e+003,1.053693e+000
2.210058e+003,1.073942e+000
2.211987e+003,1.096503e+000
2.213915e+003,1.117187e+000
2.215844e+003,1.141559e+000
2.217772e+003,1.164986e+000
2.219701e+003,1.191840e+000
2.221629e+003,1.218183e+000
2.223558e+003,1.248202e+000
2.225486e+003,1.276019e+000
2.227415e+003,1.307309e+000
2.229343e+003,1.338195e+000
2.231272e+003,1.373000e+000
2.233200e+003,1.407411e+000
2.235129e+003,1.445904e+000
2.237057e+003,1.482905e+000
2.238986e+003,1.522126e+000
2.240914e+003,1.559516e+000
2.242843e+003,1.600523e+000
2.244771e+003,1.638782e+000
2.246700e+003,1.677854e+000
2.248628e+003,1.713196e+000
2.250557e+003,1.749313e+000
2.252485e+003,1.777829e+000
2.254414e+003,1.807041e+000
2.256342e+003,1.851288e+000
2.258271e+003,1.911536e+000
2.260199e+003,1.965084e+000
2.262128e+003,2.013155e+000
2.264056e+003,2.055944e+000
2.265985e+003,2.106162e+000
2.267913e+003,2.169551e+000
2.269842e+003,2.245807e+000
2.271770e+003,2.325658e+000
2.273699e+003,2.414613e+000
2.275627e+003,2.511098e+000
2.277556e+003,2.624128e+000
2.279484e+003,2.749941e+000
2.281413e+003,2.896031e+000
2.283341e+003,3.049414e+000
2.285270e+003,3.197464e+000
2.287198e+003,3.333873e+000
2.289127e+003,3.462593e+000
2.291055e+003,3.577574e+000
2.292984e+003,3.672737e+000
2.294912e+003,3.745627e+000
2.296841e+003,3.803092e+000
2.298769e+003,3.840666e+000
2.300698e+003,3.861017e+000
2.302626e+003,3.868495e+000
2.304555e+003,3.837945e+000
2.306483e+003,3.752451e+000
2.308412e+003,3.649328e+000
2.310340e+003,3.540877e+000
2.312269e+003,3.456993e+000
2.314197e+003,3.420555e+000
2.316125e+003,3.355530e+000
2.318054e+003,3.181290e+000
2.319983e+003,2.989339e+000
2.321911e+003,2.894868e+000
2.323840e+003,2.964854e+000
2.325768e+003,3.054869e+000
2.327697e+003,2.916447e+000
2.329625e+003,2.698352e+000
2.331553e+003,2.587555e+000
2.333482e+003,2.574201e+000
2.335411e+003,2.500867e+000
2.337339e+003,2.408721e+000
2.339268e+003,2.343208e+000
2.341196e+003,2.295633e+000
2.343125e+003,2.347526e+000
2.345053e+003,2.610769e+000
2.346981e+003,3.431236e+000
2.348910e+003,3.930770e+000
2.350839e+003,3.172667e+000
2.352767e+003,2.340352e+000
2.354696e+003,1.835414e+000
2.356624e+003,1.539925e+000
2.358552e+003,1.380295e+000
2.360481e+003,1.335164e+000
2.362409e+003,1.355812e+000
2.364338e+003,1.440567e+000
2.366267e+003,1.594620e+000
2.368195e+003,1.821745e+000
2.370124e+003,2.125451e+000
2.372052e+003,2.510244e+000
2.373980e+003,2.966601e+000
2.375909e+003,3.484349e+000
2.377838e+003,4.043757e+000
2.379766e+003,4.614007e+000
2.381695e+003,5.123006e+000
2.383623e+003,5.490496e+000
2.385552e+003,5.681068e+000
2.387480e+003,5.726493e+000
2.389408e+003,5.687396e+000
2.391337e+003,5.611739e+000
2.393266e+003,5.523563e+000
2.395194e+003,5.433070e+000
2.397123e+003,5.345405e+000
2.399051e+003,5.258463e+000
2.400979e+003,5.174374e+000
2.402908e+003,5.090682e+000
2.404836e+003,5.003947e+000
2.406765e+003,4.925555e+000
2.408694e+003,4.873407e+000
2.410622e+003,4.833810e+000
2.412551e+003,4.792497e+000
2.414479e+003,4.748124e+000
2.416407e+003,4.702991e+000
2.418336e+003,4.657987e+000
2.420264e+003,4.616467e+000
2.422193e+003,4.575597e+000
2.424122e+003,4.537992e+000
2.426050e+003,4.502695e+000
2.427979e+003,4.470564e+000
2.429907e+003,4.440808e+000
2.431835e+003,4.414451e+000
2.433764e+003,4.391007e+000
2.435692e+003,4.371304e+000
2.437621e+003,4.354052e+000
2.439550e+003,4.340722e+000
2.441478e+003,4.329322e+000
2.443406e+003,4.323279e+000
2.445335e+003,4.320770e+000
2.447263e+003,4.322514e+000
2.449192e+003,4.327636e+000
2.451121e+003,4.337255e+000
2.453049e+003,4.349977e+000
2.454978e+003,4.365922e+000
2.456906e+003,4.379726e+000
2.458834e+003,4.387589e+000
2.460763e+003,4.386633e+000
2.462691e+003,4.381772e+000
2.464620e+003,4.372912e+000
2.466549e+003,4.362201e+000
2.468477e+003,4.348960e+000
2.470406e+003,4.335752e+000
2.472334e+003,4.320826e+000
2.474262e+003,4.306082e+000
2.476191e+003,4.290032e+000
2.478119e+003,4.275990e+000
2.480048e+003,4.262736e+000
2.481977e+003,4.249722e+000
2.483905e+003,4.238052e+000
2.485833e+003,4.228570e+000
2.487762e+003,4.218916e+000
2.489690e+003,4.210998e+000
2.491619e+003,4.204628e+000
2.493547e+003,4.201199e+000
2.495476e+003,4.197191e+000
2.497405e+003,4.193244e+000
2.499333e+003,4.187048e+000
2.501261e+003,4.181945e+000
2.503190e+003,4.175486e+000
2.505118e+003,4.169484e+000
2.507047e+003,4.164261e+000
2.508975e+003,4.159970e+000
2.510904e+003,4.154948e+000
2.512833e+003,4.151774e+000
2.514761e+003,4.148269e+000
2.516689e+003,4.146297e+000
2.518618e+003,4.143957e+000
2.520546e+003,4.143584e+000
2.522475e+003,4.143197e+000
2.524403e+003,4.143870e+000
2.526332e+003,4.143998e+000
2.528260e+003,4.146312e+000
2.530189e+003,4.149140e+000
2.532117e+003,4.153807e+000
2.534046e+003,4.158161e+000
2.535974e+003,4.164238e+000
2.537903e+003,4.170940e+000
2.539831e+003,4.179568e+000
2.541760e+003,4.188323e+000
2.543688e+003,4.199771e+000
2.545617e+003,4.212390e+000
2.547545e+003,4.225992e+000
2.549474e+003,4.240753e+000
2.551402e+003,4.258075e+000
2.553331e+003,4.276122e+000
2.555259e+003,4.297165e+000
2.557188e+003,4.318346e+000
2.559116e+003,4.341346e+000
2.561045e+003,4.366393e+000
2.562973e+003,4.394289e+000
2.564902e+003,4.423622e+000
2.566830e+003,4.455345e+000
2.568759e+003,4.488431e+000
2.570687e+003,4.524566e+000
2.572616e+003,4.561394e+000
2.574544e+003,4.601660e+000
2.576473e+003,4.644232e+000
2.578401e+003,4.690610e+000
2.580330e+003,4.738115e+000
2.582258e+003,4.788526e+000
2.584187e+003,4.841630e+000
2.586115e+003,4.897236e+000
2.588044e+003,4.956234e+000
2.589972e+003,5.019584e+000
2.591901e+003,5.084994e+000
2.593829e+003,5.154315e+000
2.595758e+003,5.226778e+000
2.597686e+003,5.303476e+000
2.599615e+003,5.383838e+000
2.601543e+003,5.469396e+000
2.603472e+003,5.558512e+000
2.605400e+003,5.652015e+000
2.607329e+003,5.749554e+000
2.609257e+003,5.852808e+000
2.611186e+003,5.960513e+000
2.613114e+003,6.073946e+000
2.615043e+003,6.192615e+000
2.616971e+003,6.317281e+000
2.618900e+003,6.447990e+000
2.620828e+003,6.584254e+000
2.622757e+003,6.725479e+000
2.624685e+003,6.874268e+000
2.626614e+003,7.028503e+000
2.628542e+003,7.190258e+000
2.630471e+003,7.357833e+000
2.632399e+003,7.532872e+000
2.634328e+003,7.714290e+000
2.636256e+003,7.902787e+000
2.638185e+003,8.096554e+000
2.640113e+003,8.296342e+000
2.642042e+003,8.501366e+000
2.643970e+003,8.712408e+000
2.645899e+003,8.925961e+000
2.647827e+003,9.142365e+000
2.649756e+003,9.360252e+000
2.651684e+003,9.577798e+000
2.653613e+003,9.790648e+000
2.655541e+003,9.996885e+000
2.657470e+003,1.018945e+001
2.659398e+003,1.036327e+001
2.661327e+003,1.050764e+001
2.663255e+003,1.060989e+001
2.665184e+003,1.066177e+001
2.667112e+003,1.067634e+001
2.669041e+003,1.067382e+001
2.670969e+003,1.066518e+001
2.672898e+003,1.065372e+001
2.674826e+003,1.064134e+001
2.676755e+003,1.062613e+001
2.678683e+003,1.061051e+001
2.680612e+003,1.059251e+001
2.682540e+003,1.057425e+001
2.684469e+003,1.055631e+001
2.686397e+003,1.053816e+001
2.688326e+003,1.051978e+001
2.690254e+003,1.050155e+001
2.692183e+003,1.048230e+001
2.694111e+003,1.046323e+001
2.696040e+003,1.044482e+001
2.697968e+003,1.042648e+001
2.699897e+003,1.040728e+001
2.701825e+003,1.038894e+001
2.703754e+003,1.037036e+001
2.705682e+003,1.035207e+001
2.707611e+003,1.033263e+001
2.709539e+003,1.031340e+001
2.711468e+003,1.029426e+001
2.713396e+003,1.027620e+001
2.715325e+003,1.025786e+001
2.717253e+003,1.023936e+001
2.719182e+003,1.022043e+001
2.721110e+003,1.020351e+001
2.723039e+003,1.018489e+001
2.724967e+003,1.016657e+001
2.726896e+003,1.014695e+001
2.728824e+003,1.012849e+001
2.730753e+003,1.011081e+001
2.732681e+003,1.009311e+001
2.734610e+003,1.007500e+001
2.736538e+003,1.005647e+001
2.738467e+003,1.003836e+001
2.740395e+003,1.001946e+001
2.742324e+003,1.000029e+001
2.744252e+003,9.981966e+000
2.746181e+003,9.964016e+000
2.748109e+003,9.946104e+000
2.750038e+003,9.927329e+000
2.751966e+003,9.908600e+000
2.753895e+003,9.888615e+000
2.755823e+003,9.869383e+000
2.757752e+003,9.849839e+000
2.759680e+003,9.831372e+000
2.761609e+003,9.811673e+000
2.763537e+003,9.792772e+000
2.765466e+003,9.774571e+000
2.767394e+003,9.756015e+000
2.769323e+003,9.736650e+000
2.771251e+003,9.717085e+000
2.773180e+003,9.697906e+000
2.775108e+003,9.678832e+000
2.777037e+003,9.657522e+000
2.778965e+003,9.637927e+000
2.780894e+003,9.618401e+000
2.782822e+003,9.599217e+000
2.784750e+003,9.579657e+000
2.786679e+003,9.561228e+000
2.788608e+003,9.542898e+000
2.790536e+003,9.522242e+000
2.792465e+003,9.501143e+000
2.794393e+003,9.482446e+000
2.796322e+003,9.464074e+000
2.798250e+003,9.445161e+000
2.800178e+003,9.423808e+000
2.802107e+003,9.403470e+000
2.804036e+003,9.383265e+000
2.805964e+003,9.363493e+000
2.807893e+003,9.343466e+000
2.809821e+003,9.324250e+000
2.811750e+003,9.303905e+000
2.813678e+003,9.283247e+000
2.815606e+003,9.262064e+000
2.817535e+003,9.241447e+000
2.819464e+003,9.220774e+000
2.821392e+003,9.200400e+000
2.823321e+003,9.179453e+000
2.825249e+003,9.157912e+000
2.827177e+003,9.135871e+000
2.829106e+003,9.114648e+000
2.831034e+003,9.092115e+000
2.832963e+003,9.069817e+000
2.834892e+003,9.046817e+000
2.836820e+003,9.024917e+000
2.838749e+003,9.000978e+000
2.840677e+003,8.970744e+000
2.842605e+003,8.940422e+000
2.844534e+003,8.909479e+000
2.846462e+003,8.875978e+000
2.848391e+003,8.842833e+000
2.850320e+003,8.814204e+000
2.852248e+003,8.793081e+000
2.854177e+003,8.773512e+000
2.856105e+003,8.754973e+000
2.858033e+003,8.736830e+000
2.859962e+003,8.718835e+000
2.861890e+003,8.699092e+000
2.863819e+003,8.679115e+000
2.865748e+003,8.658444e+000
2.867676e+003,8.637341e+000
2.869604e+003,8.614898e+000
2.871533e+003,8.595149e+000
2.873461e+003,8.575146e+000
2.875390e+003,8.549734e+000
2.877319e+003,8.527135e+000
2.879247e+003,8.506939e+000
2.881176e+003,8.486063e+000
2.883104e+003,8.463207e+000
2.885032e+003,8.440818e+000
2.886961e+003,8.418707e+000
2.888889e+003,8.396122e+000
2.890818e+003,8.372518e+000
2.892747e+003,8.348994e+000
2.894675e+003,8.325209e+000
2.896604e+003,8.300406e+000
2.898532e+003,8.274808e+000
2.900460e+003,8.249640e+000
2.902389e+003,8.224633e+000
2.904317e+003,8.197654e+000
2.906246e+003,8.170042e+000
2.908175e+003,8.144423e+000
2.910103e+003,8.116676e+000
2.912031e+003,8.089931e+000
2.913960e+003,8.058325e+000
2.915888e+003,8.019815e+000
2.917817e+003,7.990437e+000
2.919745e+003,7.967064e+000
2.921674e+003,7.943633e+000
2.923603e+003,7.920787e+000
2.925531e+003,7.897969e+000
2.927459e+003,7.879673e+000
2.929388e+003,7.868900e+000
2.931316e+003,7.853308e+000
2.933245e+003,7.838025e+000
2.935173e+003,7.822338e+000
2.937102e+003,7.803074e+000
2.939031e+003,7.791344e+000
2.940959e+003,7.782470e+000
2.942887e+003,7.769559e+000
2.944816e+003,7.753538e+000
2.946744e+003,7.729437e+000
2.948673e+003,7.706153e+000
2.950601e+003,7.688151e+000
2.952530e+003,7.665596e+000
2.954458e+003,7.639385e+000
2.956387e+003,7.610262e+000
2.958315e+003,7.581363e+000
2.960244e+003,7.563089e+000
2.962172e+003,7.543517e+000
2.964101e+003,7.523890e+000
2.966029e+003,7.505953e+000
2.967958e+003,7.492278e+000
2.969886e+003,7.486845e+000
2.971815e+003,7.482508e+000
2.973743e+003,7.473840e+000
2.975672e+003,7.461566e+000
2.977600e+003,7.444699e+000
2.979529e+003,7.432972e+000
2.981457e+003,7.422723e+000
2.983386e+003,7.407130e+000
2.985314e+003,7.390039e+000
2.987243e+003,7.371270e+000
2.989171e+003,7.353271e+000
2.991100e+003,7.342569e+000
2.993028e+003,7.325287e+000
2.994957e+003,7.303253e+000
2.996885e+003,7.284240e+000
2.998814e+003,7.264149e+000
3.000742e+003,7.244413e+000
3.002671e+003,7.225430e+000
3.004599e+003,7.204084e+000
3.006528e+003,7.184248e+000
3.008456e+003,7.166014e+000
3.010385e+003,7.149790e+000
3.012313e+003,7.126566e+000
3.014242e+003,7.094359e+000
3.016170e+003,7.054415e+000
3.018099e+003,7.041981e+000
3.020027e+003,7.046029e+000
3.021956e+003,7.032634e+000
3.023884e+003,7.014900e+000
3.025813e+003,6.994931e+000
3.027741e+003,6.974846e+000
3.029670e+003,6.956573e+000
3.031598e+003,6.938851e+000
3.033527e+003,6.922914e+000
3.035455e+003,6.904367e+000
3.037384e+003,6.884254e+000
3.039312e+003,6.867867e+000
3.041241e+003,6.855536e+000
3.043169e+003,6.838581e+000
3.045098e+003,6.817749e+000
3.047026e+003,6.795963e+000
3.048955e+003,6.778300e+000
3.050883e+003,6.764464e+000
3.052812e+003,6.746940e+000
3.054740e+003,6.728778e+000
3.056669e+003,6.705000e+000
3.058597e+003,6.689109e+000
3.060526e+003,6.677632e+000
3.062454e+003,6.660741e+000
3.064383e+003,6.642106e+000
3.066311e+003,6.620759e+000
3.068240e+003,6.606332e+000
3.070168e+003,6.593739e+000
3.072097e+003,6.576886e+000
3.074025e+003,6.558957e+000
3.075954e+003,6.540382e+000
3.077882e+003,6.530250e+000
3.079811e+003,6.516199e+000
3.081739e+003,6.497785e+000
3.083668e+003,6.476897e+000
3.085596e+003,6.450657e+000
3.087525e+003,6.438358e+000
3.089453e+003,6.427493e+000
3.091382e+003,6.408303e+000
3.093310e+003,6.384945e+000
3.095239e+003,6.363119e+000
3.097167e+003,6.352883e+000
3.099096e+003,6.339264e+000
3.101024e+003,6.321766e+000
3.102953e+003,6.300391e+000
3.104881e+003,6.282849e+000
3.106810e+003,6.272901e+000
3.108738e+003,6.259327e+000
3.110667e+003,6.238953e+000
3.112595e+003,6.218273e+000
3.114524e+003,6.207998e+000
3.116452e+003,6.199140e+000
3.118381e+003,6.182311e+000
3.120309e+003,6.161863e+000
3.122238e+003,6.131476e+000
3.124166e+003,6.115603e+000
3.126095e+003,6.107389e+000
3.128023e+003,6.096881e+000
3.129952e+003,6.081191e+000
3.131880e+003,6.064622e+000
3.133809e+003,6.050657e+000
3.135737e+003,6.036987e+000
3.137666e+003,6.023143e+000
3.139594e+003,6.007215e+000
3.141523e+003,5.989645e+000
3.143451e+003,5.974721e+000
3.145380e+003,5.960148e+000
3.147308e+003,5.945569e+000
3.149237e+003,5.932149e+000
3.151165e+003,5.923374e+000
3.153094e+003,5.908042e+000
3.155022e+003,5.888999e+000
3.156951e+003,5.874548e+000
3.158879e+003,5.860849e+000
3.160808e+003,5.847290e+000
3.162736e+003,5.834488e+000
3.164665e+003,5.820821e+000
3.166593e+003,5.807710e+000
3.168522e+003,5.795202e+000
3.170450e+003,5.781518e+000
3.172379e+003,5.767709e+000
3.174307e+003,5.755210e+000
3.176236e+003,5.742214e+000
3.178164e+003,5.728888e+000
3.180093e+003,5.717180e+000
3.182021e+003,5.704633e+000
3.183950e+003,5.691953e+000
3.185878e+003,5.680604e+000
3.187807e+003,5.669556e+000
3.189735e+003,5.658357e+000
3.191664e+003,5.646686e+000
3.193592e+003,5.635770e+000
3.195521e+003,5.624963e+000
3.197449e+003,5.613955e+000
3.199378e+003,5.603788e+000
3.201306e+003,5.594396e+000
3.203235e+003,5.584337e+000
3.205163e+003,5.575225e+000
3.207092e+003,5.566755e+000
3.209020e+003,5.558546e+000
3.210948e+003,5.550714e+000
3.212877e+003,5.542737e+000
3.214806e+003,5.535840e+000
3.216734e+003,5.530414e+000
3.218663e+003,5.523561e+000
3.220591e+003,5.517202e+000
3.222520e+003,5.511687e+000
3.224448e+003,5.505922e+000
3.226376e+003,5.499838e+000
3.228305e+003,5.494017e+000
3.230234e+003,5.489224e+000
3.232162e+003,5.489109e+000
3.234091e+003,5.484588e+000
3.236019e+003,5.476201e+000
3.237948e+003,5.471294e+000
3.239876e+003,5.467247e+000
3.241804e+003,5.464141e+000
3.243733e+003,5.460389e+000
3.245662e+003,5.458485e+000
3.247590e+003,5.456336e+000
3.249519e+003,5.452431e+000
3.251447e+003,5.449601e+000
3.253375e+003,5.447455e+000
3.255304e+003,5.447417e+000
3.257232e+003,5.445948e+000
3.259161e+003,5.445370e+000
3.261090e+003,5.445236e+000
3.263018e+003,5.445405e+000
3.264947e+003,5.445722e+000
3.266875e+003,5.447466e+000
3.268803e+003,5.450729e+000
3.270732e+003,5.454380e+000
3.272660e+003,5.452622e+000
3.274589e+003,5.452520e+000
3.276518e+003,5.452926e+000
3.278446e+003,5.453475e+000
3.280375e+003,5.454352e+000
3.282303e+003,5.455290e+000
3.284231e+003,5.455987e+000
3.286160e+003,5.457405e+000
3.288088e+003,5.457509e+000
3.290017e+003,5.459407e+000
3.291946e+003,5.460505e+000
3.293874e+003,5.459285e+000
3.295802e+003,5.458264e+000
3.297731e+003,5.457319e+000
3.299659e+003,5.457031e+000
3.301588e+003,5.456414e+000
3.303516e+003,5.460559e+000
3.305445e+003,5.464475e+000
3.307374e+003,5.459857e+000
3.309302e+003,5.455174e+000
3.311230e+003,5.452294e+000
3.313159e+003,5.450798e+000
3.315087e+003,5.449579e+000
3.317016e+003,5.449077e+000
3.318944e+003,5.447378e+000
3.320873e+003,5.445419e+000
3.322802e+003,5.442573e+000
3.324730e+003,5.441551e+000
3.326658e+003,5.440066e+000
3.328587e+003,5.438798e+000
3.330515e+003,5.437865e+000
3.332444e+003,5.435987e+000
3.334372e+003,5.432990e+000
3.336301e+003,5.431019e+000
3.338229e+003,5.429990e+000
3.340158e+003,5.426564e+000
3.342086e+003,5.423475e+000
3.344015e+003,5.420678e+000
3.345943e+003,5.417289e+000
3.347872e+003,5.414997e+000
3.349800e+003,5.413225e+000
3.351729e+003,5.408791e+000
3.353657e+003,5.403279e+000
3.355586e+003,5.399534e+000
3.357514e+003,5.396020e+000
3.359443e+003,5.393326e+000
3.361371e+003,5.389250e+000
3.363300e+003,5.385270e+000
3.365229e+003,5.381608e+000
3.367157e+003,5.379496e+000
3.369085e+003,5.376687e+000
3.371014e+003,5.368426e+000
3.372942e+003,5.359585e+000
3.374871e+003,5.354177e+000
3.376799e+003,5.347996e+000
3.378728e+003,5.341976e+000
3.380656e+003,5.334791e+000
3.382585e+003,5.327258e+000
3.384513e+003,5.319710e+000
3.386442e+003,5.313313e+000
3.388370e+003,5.306508e+000
3.390299e+003,5.301201e+000
3.392227e+003,5.291366e+000
3.394156e+003,5.279505e+000
3.396084e+003,5.269399e+000
3.398013e+003,5.262843e+000
3.399941e+003,5.256820e+000
3.401870e+003,5.244588e+000
3.403798e+003,5.231268e+000
3.405727e+003,5.219985e+000
3.407655e+003,5.209373e+000
3.409584e+003,5.198787e+000
3.411512e+003,5.186753e+000
3.413441e+003,5.174977e+000
3.415369e+003,5.162199e+000
3.417298e+003,5.149795e+000
3.419226e+003,5.135314e+000
3.421155e+003,5.121472e+000
3.423083e+003,5.108361e+000
3.425012e+003,5.094942e+000
3.426940e+003,5.080017e+000
3.428869e+003,5.066388e+000
3.430797e+003,5.050756e+000
3.432726e+003,5.036498e+000
3.434654e+003,5.023552e+000
3.436583e+003,5.008498e+000
3.438511e+003,4.993832e+000
3.440440e+003,4.981625e+000
3.442368e+003,4.970333e+000
3.444297e+003,4.960978e+000
3.446225e+003,4.949075e+000
3.448154e+003,4.941924e+000
3.450082e+003,4.935992e+000
3.452011e+003,4.927149e+000
3.453939e+003,4.918107e+000
3.455868e+003,4.909503e+000
3.457796e+003,4.900495e+000
3.459725e+003,4.891070e+000
3.461653e+003,4.879709e+000
3.463582e+003,4.870985e+000
3.465510e+003,4.863170e+000
3.467439e+003,4.855896e+000
3.469367e+003,4.846451e+000
3.471296e+003,4.836053e+000
3.473224e+003,4.826452e+000
3.475153e+003,4.819040e+000
3.477081e+003,4.812660e+000
3.479010e+003,4.805590e+000
3.480938e+003,4.795516e+000
3.482867e+003,4.789081e+000
3.484795e+003,4.785120e+000
3.486724e+003,4.778664e+000
3.488652e+003,4.772734e+000
3.490581e+003,4.769044e+000
3.492509e+003,4.764554e+000
3.494438e+003,4.759124e+000
3.496366e+003,4.753808e+000
3.498295e+003,4.750116e+000
3.500223e+003,4.744274e+000
3.502152e+003,4.736930e+000
3.504080e+003,4.731691e+000
3.506009e+003,4.730336e+000
3.507937e+003,4.723604e+000
3.509866e+003,4.717107e+000
3.511794e+003,4.714732e+000
3.513723e+003,4.711194e+000
3.515651e+003,4.704451e+000
3.517580e+003,4.698166e+000
3.519508e+003,4.692118e+000
3.521437e+003,4.684391e+000
3.523365e+003,4.674332e+000
3.525294e+003,4.667045e+000
3.527222e+003,4.658201e+000
3.529151e+003,4.652477e+000
3.531079e+003,4.646469e+000
3.533008e+003,4.638637e+000
3.534936e+003,4.626149e+000
3.536865e+003,4.616364e+000
3.538793e+003,4.607104e+000
3.540722e+003,4.596688e+000
3.542650e+003,4.581796e+000
3.544579e+003,4.564035e+000
3.546507e+003,4.548628e+000
3.548436e+003,4.542428e+000
3.550364e+003,4.529521e+000
3.552293e+003,4.512733e+000
3.554221e+003,4.502116e+000
3.556150e+003,4.489510e+000
3.558078e+003,4.471700e+000
3.560007e+003,4.453113e+000
3.561935e+003,4.434345e+000
3.563864e+003,4.409957e+000
3.565792e+003,4.373089e+000
3.567721e+003,4.352318e+000
3.569649e+003,4.355559e+000
3.571578e+003,4.346920e+000
3.573506e+003,4.326147e+000
3.575435e+003,4.305055e+000
3.577363e+003,4.283065e+000
3.579292e+003,4.259469e+000
3.581220e+003,4.234427e+000
3.583149e+003,4.204422e+000
3.585077e+003,4.158611e+000
3.587006e+003,4.107882e+000
3.588934e+003,4.087460e+000
3.590863e+003,4.080686e+000
3.592791e+003,4.051307e+000
3.594720e+003,4.024273e+000
3.596648e+003,4.008647e+000
3.598577e+003,3.996605e+000
3.600505e+003,3.984100e+000
3.602434e+003,3.986500e+000
3.604362e+003,3.989867e+000
3.606291e+003,3.987329e+000
3.608219e+003,3.983347e+000
3.610148e+003,4.013894e+000
3.612076e+003,4.032583e+000
3.614005e+003,4.016204e+000
3.615933e+003,3.971296e+000
3.617862e+003,3.905788e+000
3.619790e+003,3.863329e+000
3.621719e+003,3.856870e+000
3.623647e+003,3.841884e+000
3.625576e+003,3.817886e+000
3.627504e+003,3.761224e+000
3.629433e+003,3.755902e+000
3.631361e+003,3.825486e+000
3.633290e+003,3.855724e+000
3.635218e+003,3.879961e+000
3.637146e+003,3.900546e+000
3.639075e+003,3.915945e+000
3.641004e+003,3.925694e+000
3.642932e+003,3.931991e+000
3.644861e+003,3.923878e+000
3.646789e+003,3.885082e+000
3.648718e+003,3.851531e+000
3.650646e+003,3.873259e+000
3.652574e+003,3.920831e+000
3.654503e+003,3.910082e+000
3.656432e+003,3.894299e+000
3.658360e+003,3.919902e+000
3.660289e+003,3.927116e+000
3.662217e+003,3.923270e+000
3.664146e+003,3.920248e+000
3.666074e+003,3.909587e+000
3.668002e+003,3.870213e+000
3.669931e+003,3.823338e+000
3.671860e+003,3.846378e+000
3.673788e+003,3.816464e+000
3.675717e+003,3.771995e+000
3.677645e+003,3.833628e+000
3.679573e+003,3.859115e+000
3.681502e+003,3.866282e+000
3.683430e+003,3.856248e+000
3.685359e+003,3.834446e+000
3.687288e+003,3.762235e+000
3.689216e+003,3.742314e+000
3.691145e+003,3.767267e+000
3.693073e+003,3.777020e+000
3.695001e+003,3.772101e+000
3.696930e+003,3.759904e+000
3.698858e+003,3.749849e+000
3.700787e+003,3.731025e+000
3.702716e+003,3.740580e+000
3.704644e+003,3.765880e+000
3.706573e+003,3.784146e+000
3.708501e+003,3.797673e+000
3.710429e+003,3.818332e+000
3.712358e+003,3.874871e+000
3.714286e+003,3.960455e+000
3.716215e+003,3.956856e+000
3.718144e+003,3.907577e+000
3.720072e+003,3.858469e+000
3.722000e+003,3.821949e+000
3.723929e+003,3.798826e+000
3.725857e+003,3.785483e+000
3.727786e+003,3.797215e+000
3.729714e+003,3.813668e+000
3.731643e+003,3.810078e+000
3.733572e+003,3.849760e+000
3.735500e+003,3.880806e+000
3.737428e+003,3.966440e+000
3.739357e+003,4.055711e+000
3.741285e+003,4.103176e+000
3.743214e+003,4.050862e+000
3.745142e+003,4.091999e+000
3.747071e+003,4.198920e+000
3.749000e+003,4.178587e+000
3.750928e+003,4.192073e+000
3.752856e+003,4.255042e+000
3.754785e+003,4.346423e+000
3.756713e+003,4.362371e+000
3.758642e+003,4.378313e+000
3.760570e+003,4.399038e+000
3.762499e+003,4.438674e+000
3.764427e+003,4.438179e+000
3.766356e+003,4.458469e+000
3.768284e+003,4.463280e+000
3.770213e+003,4.478316e+000
3.772141e+003,4.516553e+000
3.774070e+003,4.542080e+000
3.775998e+003,4.552544e+000
3.777927e+003,4.555305e+000
3.779855e+003,4.563832e+000
3.781784e+003,4.596352e+000
3.783712e+003,4.605478e+000
3.785641e+003,4.622594e+000
3.787569e+003,4.638088e+000
3.789498e+003,4.654535e+000
3.791426e+003,4.664320e+000
3.793355e+003,4.675000e+000
3.795283e+003,4.664379e+000
3.797212e+003,4.676673e+000
3.799140e+003,4.659558e+000
3.801069e+003,4.612662e+000
3.802997e+003,4.677266e+000
3.804926e+003,4.702662e+000
3.806854e+003,4.677717e+000
3.808783e+003,4.736616e+000
3.810711e+003,4.765388e+000
3.812640e+003,4.768898e+000
3.814568e+003,4.708435e+000
3.816497e+003,4.702837e+000
3.818425e+003,4.758231e+000
3.820354e+003,4.727062e+000
3.822282e+003,4.756760e+000
3.824211e+003,4.810370e+000
3.826139e+003,4.812207e+000
3.828068e+003,4.826381e+000
3.829996e+003,4.821285e+000
3.831925e+003,4.816087e+000
3.833853e+003,4.818498e+000
3.835782e+003,4.784956e+000
3.837710e+003,4.750479e+000
3.839639e+003,4.807944e+000
3.841567e+003,4.841858e+000
3.843496e+003,4.855575e+000
3.845424e+003,4.873270e+000
3.847353e+003,4.887074e+000
3.849281e+003,4.863780e+000
3.851210e+003,4.776134e+000
3.853138e+003,4.677167e+000
3.855067e+003,4.764055e+000
3.856995e+003,4.875457e+000
3.858924e+003,4.893034e+000
3.860852e+003,4.879995e+000
3.862781e+003,4.865836e+000
3.864709e+003,4.853536e+000
3.866638e+003,4.874652e+000
3.868566e+003,4.836771e+000
3.870495e+003,4.832237e+000
3.872423e+003,4.877030e+000
3.874352e+003,4.877894e+000
3.876280e+003,4.901401e+000
3.878209e+003,4.889504e+000
3.880137e+003,4.870221e+000
3.882066e+003,4.883885e+000
3.883994e+003,4.864143e+000
3.885923e+003,4.846967e+000
3.887851e+003,4.891233e+000
3.889780e+003,4.871611e+000
3.891708e+003,4.863604e+000
3.893637e+003,4.890924e+000
3.895565e+003,4.899028e+000
3.897494e+003,4.875252e+000
3.899422e+003,4.849075e+000
3.901351e+003,4.840484e+000
3.903279e+003,4.835010e+000
3.905208e+003,4.856121e+000
3.907136e+003,4.883783e+000
3.909065e+003,4.888347e+000
3.910993e+003,4.886608e+000
3.912922e+003,4.883201e+000
3.914850e+003,4.871640e+000
3.916779e+003,4.854755e+000
3.918707e+003,4.856429e+000
3.920636e+003,4.860649e+000
3.922564e+003,4.861150e+000
3.924493e+003,4.852335e+000
3.926421e+003,4.856119e+000
3.928350e+003,4.852885e+000
3.930278e+003,4.842478e+000
3.932207e+003,4.833730e+000
3.934135e+003,4.840087e+000
3.936064e+003,4.841241e+000
3.937992e+003,4.837118e+000
3.939921e+003,4.829572e+000
3.941849e+003,4.817577e+000
3.943778e+003,4.814913e+000
3.945706e+003,4.814415e+000
3.947635e+003,4.804478e+000
3.949563e+003,4.800628e+000
3.951492e+003,4.799043e+000
3.953420e+003,4.796466e+000
3.955349e+003,4.790306e+000
3.957277e+003,4.785013e+000
3.959206e+003,4.778309e+000
3.961134e+003,4.771308e+000
3.963063e+003,4.765851e+000
3.964991e+003,4.761654e+000
3.966920e+003,4.754158e+000
3.968848e+003,4.747391e+000
3.970777e+003,4.740095e+000
3.972705e+003,4.733150e+000
3.974634e+003,4.725555e+000
3.976562e+003,4.720121e+000
3.978491e+003,4.713386e+000
3.980419e+003,4.706625e+000
3.982348e+003,4.699149e+000
3.984276e+003,4.692539e+000
3.986205e+003,4.684623e+000
3.988133e+003,4.677105e+000
3.990062e+003,4.668609e+000
3.991990e+003,4.661998e+000
3.993919e+003,4.654165e+000
3.995847e+003,4.647179e+000
3.997776e+003,4.639503e+000
3.999704e+003,4.631485e+000
4.001633e+003,0.000000e+000
