3.991989e+002,9.083984e-001
4.011274e+002,9.838849e-001
4.030559e+002,1.060410e+000
4.049844e+002,1.131896e+000
4.069129e+002,1.204381e+000
4.088414e+002,1.280308e+000
4.107699e+002,1.365180e+000
4.126984e+002,1.453733e+000
4.146269e+002,1.541641e+000
4.165554e+002,1.621206e+000
4.184839e+002,1.697372e+000
4.204124e+002,1.797501e+000
4.223409e+002,1.897778e+000
4.242694e+002,1.987429e+000
4.261979e+002,2.085988e+000
4.281264e+002,2.175381e+000
4.300549e+002,2.262118e+000
4.319834e+002,2.351748e+000
4.339119e+002,2.438251e+000
4.358404e+002,2.517492e+000
4.377689e+002,2.603357e+000
4.396974e+002,2.681815e+000
4.416259e+002,2.762049e+000
4.435544e+002,2.833990e+000
4.454829e+002,2.900440e+000
4.474114e+002,2.969346e+000
4.493399e+002,3.042187e+000
4.512684e+002,3.098799e+000
4.531969e+002,3.159500e+000
4.551254e+002,3.216711e+000
4.570539e+002,3.266980e+000
4.589824e+002,3.340794e+000
4.609109e+002,3.413090e+000
4.628394e+002,3.465061e+000
4.647679e+002,3.532022e+000
4.666964e+002,3.582462e+000
4.686249e+002,3.644828e+000
4.705533e+002,3.709805e+000
4.724819e+002,3.766827e+000
4.744103e+002,3.829469e+000
4.763389e+002,3.903804e+000
4.782673e+002,3.972462e+000
4.801959e+002,4.058146e+000
4.821243e+002,4.138879e+000
4.840529e+002,4.213946e+000
4.859813e+002,4.287637e+000
4.879099e+002,4.364820e+000
4.898383e+002,4.427487e+000
4.917668e+002,4.489884e+000
4.936953e+002,4.535245e+000
4.956238e+002,4.579388e+000
4.975523e+002,4.623451e+000
4.994808e+002,4.673888e+000
5.014093e+002,4.713260e+000
5.033378e+002,4.774649e+000
5.052663e+002,4.830812e+000
5.071948e+002,4.886992e+000
5.091233e+002,4.945520e+000
5.110518e+002,5.003307e+000
5.129803e+002,5.048603e+000
5.149088e+002,5.102471e+000
5.168373e+002,5.142002e+000
5.187658e+002,5.196978e+000
5.206943e+002,5.254010e+000
5.226228e+002,5.317324e+000
5.245513e+002,5.367152e+000
5.264798e+002,5.437263e+000
5.284083e+002,5.503998e+000
5.303368e+002,5.571791e+000
5.322653e+002,5.635575e+000
5.341938e+002,5.697548e+000
5.361223e+002,5.747076e+000
5.380508e+002,5.807823e+000
5.399792e+002,5.851889e+000
5.419078e+002,5.905883e+000
5.438363e+002,5.949069e+000
5.457648e+002,5.995715e+000
5.476932e+002,6.038231e+000
5.496218e+002,6.088572e+000
5.515503e+002,6.126898e+000
5.534788e+002,6.180391e+000
5.554072e+002,6.220739e+000
5.573358e+002,6.272272e+000
5.592643e+002,6.318971e+000
5.611927e+002,6.381078e+000
5.631212e+002,6.430578e+000
5.650497e+002,6.496227e+000
5.669783e+002,6.542637e+000
5.689067e+002,6.597925e+000
5.708352e+002,6.639693e+000
5.727637e+002,6.688404e+000
5.746923e+002,6.717704e+000
5.766207e+002,6.764367e+000
5.785492e+002,6.793809e+000
5.804777e+002,6.835068e+000
5.824063e+002,6.863258e+000
5.843347e+002,6.906374e+000
5.862632e+002,6.929770e+000
5.881917e+002,6.979152e+000
5.901202e+002,7.032207e+000
5.920487e+002,7.108765e+000
5.939772e+002,7.169440e+000
5.959057e+002,7.243015e+000
5.978342e+002,7.303118e+000
5.997627e+002,7.398156e+000
6.016912e+002,7.460462e+000
6.036197e+002,7.548590e+000
6.055482e+002,7.607087e+000
6.074767e+002,7.688442e+000
6.094052e+002,7.749664e+000
6.113337e+002,7.853973e+000
6.132622e+002,7.934330e+000
6.151907e+002,7.983312e+000
6.171192e+002,7.852989e+000
6.190477e+002,8.035179e+000
6.209762e+002,8.248239e+000
6.229047e+002,8.339004e+000
6.248332e+002,8.390623e+000
6.267617e+002,8.470237e+000
6.286902e+002,8.515244e+000
6.306187e+002,8.585513e+000
6.325472e+002,8.615319e+000
6.344756e+002,8.662182e+000
6.364042e+002,8.648865e+000
6.383326e+002,8.667262e+000
6.402612e+002,8.613467e+000
6.421896e+002,8.591998e+000
6.441182e+002,8.501034e+000
6.460466e+002,8.420474e+000
6.479752e+002,8.191708e+000
6.499036e+002,8.205966e+000
6.518322e+002,8.251996e+000
6.537606e+002,8.304371e+000
6.556891e+002,8.292075e+000
6.576177e+002,8.420204e+000
6.595461e+002,8.489803e+000
6.614746e+002,8.709942e+000
6.634031e+002,8.915190e+000
6.653317e+002,8.426622e+000
6.672601e+002,5.143594e+000
6.691886e+002,5.231430e+000
6.711171e+002,8.118757e+000
6.730457e+002,8.585436e+000
6.749741e+002,8.536156e+000
6.769026e+002,8.408984e+000
6.788311e+002,8.468707e+000
6.807596e+002,8.452028e+000
6.826881e+002,8.605887e+000
6.846166e+002,8.694403e+000
6.865451e+002,8.905126e+000
6.884736e+002,9.031316e+000
6.904021e+002,9.277929e+000
6.923306e+002,9.467231e+000
6.942591e+002,9.717282e+000
6.961876e+002,9.891832e+000
6.981161e+002,1.012061e+001
7.000446e+002,1.027371e+001
7.019731e+002,1.046180e+001
7.039016e+002,1.057151e+001
7.058301e+002,1.072310e+001
7.077585e+002,1.080127e+001
7.096871e+002,1.091853e+001
7.116156e+002,1.096990e+001
7.135441e+002,1.106477e+001
7.154725e+002,1.109950e+001
7.174011e+002,1.111339e+001
7.193296e+002,1.085012e+001
7.212581e+002,1.093314e+001
7.231865e+002,1.122808e+001
7.251151e+002,1.128913e+001
7.270436e+002,1.129490e+001
7.289720e+002,1.131457e+001
7.309005e+002,1.132257e+001
7.328290e+002,1.134488e+001
7.347576e+002,1.135555e+001
7.366860e+002,1.137817e+001
7.386145e+002,1.138440e+001
7.405430e+002,1.139693e+001
7.424716e+002,1.141005e+001
7.444000e+002,1.145057e+001
7.463285e+002,1.146807e+001
7.482570e+002,1.149947e+001
7.501855e+002,1.151265e+001
7.521140e+002,1.154693e+001
7.540425e+002,1.156568e+001
7.559710e+002,1.159899e+001
7.578995e+002,1.162257e+001
7.598280e+002,1.166391e+001
7.617565e+002,1.169458e+001
7.636850e+002,1.173957e+001
7.656135e+002,1.176498e+001
7.675420e+002,1.180460e+001
7.694705e+002,1.183367e+001
7.713990e+002,1.187867e+001
7.733275e+002,1.190646e+001
7.752560e+002,1.194261e+001
7.771844e+002,1.196400e+001
7.791130e+002,1.199926e+001
7.810415e+002,1.201645e+001
7.829700e+002,1.203892e+001
7.848984e+002,1.204084e+001
7.868270e+002,1.204756e+001
7.887555e+002,1.203411e+001
7.906840e+002,1.202605e+001
7.926124e+002,1.200237e+001
7.945410e+002,1.199016e+001
7.964695e+002,1.196746e+001
7.983979e+002,1.196028e+001
8.003264e+002,1.194600e+001
8.022549e+002,1.194841e+001
8.041835e+002,1.194095e+001
8.061119e+002,1.195009e+001
8.080404e+002,1.195244e+001
8.099689e+002,1.196838e+001
8.118975e+002,1.197506e+001
8.138259e+002,1.199102e+001
8.157545e+002,1.199059e+001
8.176830e+002,1.199903e+001
8.196115e+002,1.199698e+001
8.215399e+002,1.200498e+001
8.234684e+002,1.201024e+001
8.253970e+002,1.203864e+001
8.273254e+002,1.206076e+001
8.292539e+002,1.209413e+001
8.311824e+002,1.211624e+001
8.331110e+002,1.214199e+001
8.350394e+002,1.215699e+001
8.369679e+002,1.218365e+001
8.388964e+002,1.220024e+001
8.408250e+002,1.222840e+001
8.427534e+002,1.224811e+001
8.446819e+002,1.227789e+001
8.466104e+002,1.230298e+001
8.485389e+002,1.233714e+001
8.504674e+002,1.236066e+001
8.523959e+002,1.239512e+001
8.543244e+002,1.241994e+001
8.562529e+002,1.245405e+001
8.581814e+002,1.247922e+001
8.601099e+002,1.251178e+001
8.620384e+002,1.253629e+001
8.639669e+002,1.257030e+001
8.658954e+002,1.259541e+001
8.678239e+002,1.263063e+001
8.697524e+002,1.265976e+001
8.716809e+002,1.269507e+001
8.736094e+002,1.272434e+001
8.755378e+002,1.276671e+001
8.774664e+002,1.279996e+001
8.793949e+002,1.284425e+001
8.813234e+002,1.288248e+001
8.832518e+002,1.292567e+001
8.851804e+002,1.296235e+001
8.871089e+002,1.300691e+001
8.890374e+002,1.304075e+001
8.909658e+002,1.308672e+001
8.928943e+002,1.312686e+001
8.948229e+002,1.317224e+001
8.967513e+002,1.321555e+001
8.986798e+002,1.326998e+001
9.006083e+002,1.331716e+001
9.025369e+002,1.337615e+001
9.044653e+002,1.342700e+001
9.063938e+002,1.348484e+001
9.083223e+002,1.353659e+001
9.102509e+002,1.359455e+001
9.121793e+002,1.364590e+001
9.141078e+002,1.370520e+001
9.160364e+002,1.375753e+001
9.179648e+002,1.382164e+001
9.198933e+002,1.388528e+001
9.218218e+002,1.395382e+001
9.237504e+002,1.401401e+001
9.256788e+002,1.408438e+001
9.276073e+002,1.414633e+001
9.295358e+002,1.421264e+001
9.314644e+002,1.427365e+001
9.333928e+002,1.433906e+001
9.353213e+002,1.439587e+001
9.372498e+002,1.446060e+001
9.391783e+002,1.451466e+001
9.411068e+002,1.457246e+001
9.430353e+002,1.462449e+001
9.449637e+002,1.467939e+001
9.468923e+002,1.472763e+001
9.488208e+002,1.478410e+001
9.507493e+002,1.483437e+001
9.526777e+002,1.489302e+001
9.546063e+002,1.494594e+001
9.565348e+002,1.500393e+001
9.584633e+002,1.505527e+001
9.603917e+002,1.511454e+001
9.623203e+002,1.516941e+001
9.642488e+002,1.523901e+001
9.661772e+002,1.530872e+001
9.681057e+002,1.538220e+001
9.700343e+002,1.545212e+001
9.719628e+002,1.552752e+001
9.738912e+002,1.559645e+001
9.758197e+002,1.567852e+001
9.777483e+002,1.575300e+001
9.796768e+002,1.582411e+001
9.816052e+002,1.588478e+001
9.835337e+002,1.594754e+001
9.854623e+002,1.600488e+001
9.873907e+002,1.607218e+001
9.893192e+002,1.612929e+001
9.912477e+002,1.619006e+001
9.931763e+002,1.625121e+001
9.951047e+002,1.631684e+001
9.970332e+002,1.637061e+001
9.989617e+002,1.642675e+001
1.000890e+003,1.647177e+001
1.002819e+003,1.651612e+001
1.004747e+003,1.654744e+001
1.006676e+003,1.657160e+001
1.008604e+003,1.658346e+001
1.010533e+003,1.659882e+001
1.012461e+003,1.660581e+001
1.014390e+003,1.661716e+001
1.016318e+003,1.662635e+001
1.018247e+003,1.664412e+001
1.020175e+003,1.666457e+001
1.022104e+003,1.669399e+001
1.024032e+003,1.671970e+001
1.025961e+003,1.675591e+001
1.027889e+003,1.678887e+001
1.029818e+003,1.682774e+001
1.031746e+003,1.686639e+001
1.033675e+003,1.691216e+001
1.035603e+003,1.695193e+001
1.037532e+003,1.699796e+001
1.039460e+003,1.702985e+001
1.041389e+003,1.705518e+001
1.043317e+003,1.707058e+001
1.045246e+003,1.708257e+001
1.047174e+003,1.709135e+001
1.049103e+003,1.711098e+001
1.051031e+003,1.712454e+001
1.052960e+003,1.714658e+001
1.054888e+003,1.716898e+001
1.056817e+003,1.719366e+001
1.058745e+003,1.721733e+001
1.060674e+003,1.725263e+001
1.062602e+003,1.728145e+001
1.064531e+003,1.731544e+001
1.066459e+003,1.734161e+001
1.068388e+003,1.736549e+001
1.070316e+003,1.738129e+001
1.072245e+003,1.739079e+001
1.074173e+003,1.738820e+001
1.076102e+003,1.741371e+001
1.078030e+003,1.745670e+001
1.079959e+003,1.750386e+001
1.081887e+003,1.756947e+001
1.083816e+003,1.764743e+001
1.085744e+003,1.769490e+001
1.087673e+003,1.773202e+001
1.089601e+003,1.775679e+001
1.091530e+003,1.777905e+001
1.093458e+003,1.779794e+001
1.095387e+003,1.782154e+001
1.097315e+003,1.784488e+001
1.099244e+003,1.788234e+001
1.101172e+003,1.791660e+001
1.103101e+003,1.795821e+001
1.105029e+003,1.800437e+001
1.106958e+003,1.805988e+001
1.108886e+003,1.811822e+001
1.110815e+003,1.819261e+001
1.112743e+003,1.826924e+001
1.114672e+003,1.836065e+001
1.116600e+003,1.845242e+001
1.118529e+003,1.854277e+001
1.120457e+003,1.862822e+001
1.122386e+003,1.871867e+001
1.124314e+003,1.880392e+001
1.126243e+003,1.889447e+001
1.128171e+003,1.897442e+001
1.130100e+003,1.904533e+001
1.132028e+003,1.910375e+001
1.133957e+003,1.915685e+001
1.135885e+003,1.919290e+001
1.137814e+003,1.921698e+001
1.139742e+003,1.921161e+001
1.141671e+003,1.920431e+001
1.143599e+003,1.923985e+001
1.145528e+003,1.930062e+001
1.147456e+003,1.934045e+001
1.149385e+003,1.937874e+001
1.151313e+003,1.943678e+001
1.153242e+003,1.953082e+001
1.155170e+003,1.962096e+001
1.157099e+003,1.969936e+001
1.159027e+003,1.976781e+001
1.160956e+003,1.984811e+001
1.162884e+003,1.992731e+001
1.164813e+003,2.001622e+001
1.166741e+003,2.011534e+001
1.168670e+003,2.021248e+001
1.170598e+003,2.029076e+001
1.172526e+003,2.035840e+001
1.174455e+003,2.039967e+001
1.176384e+003,2.040873e+001
1.178312e+003,2.034634e+001
1.180240e+003,2.028032e+001
1.182169e+003,2.039859e+001
1.184098e+003,2.058176e+001
1.186026e+003,2.065441e+001
1.187954e+003,2.069449e+001
1.189883e+003,2.072112e+001
1.191812e+003,2.075065e+001
1.193740e+003,2.077642e+001
1.195668e+003,2.081304e+001
1.197597e+003,2.084662e+001
1.199526e+003,2.089460e+001
1.201454e+003,2.094017e+001
1.203382e+003,2.099136e+001
1.205311e+003,2.104033e+001
1.207240e+003,2.109352e+001
1.209168e+003,2.113525e+001
1.211096e+003,2.117712e+001
1.213025e+003,2.120985e+001
1.214953e+003,2.124638e+001
1.216882e+003,2.127721e+001
1.218810e+003,2.131073e+001
1.220739e+003,2.133786e+001
1.222667e+003,2.137471e+001
1.224596e+003,2.140311e+001
1.226524e+003,2.143628e+001
1.228453e+003,2.146637e+001
1.230381e+003,2.150180e+001
1.232310e+003,2.153154e+001
1.234238e+003,2.156986e+001
1.236167e+003,2.159593e+001
1.238095e+003,2.162677e+001
1.240024e+003,2.165453e+001
1.241952e+003,2.168090e+001
1.243881e+003,2.169968e+001
1.245809e+003,2.172209e+001
1.247738e+003,2.173901e+001
1.249666e+003,2.176581e+001
1.251595e+003,2.177928e+001
1.253523e+003,2.177977e+001
1.255452e+003,2.176375e+001
1.257380e+003,2.173586e+001
1.259309e+003,2.168609e+001
1.261237e+003,2.165753e+001
1.263166e+003,2.165581e+001
1.265094e+003,2.170417e+001
1.267023e+003,2.180045e+001
1.268951e+003,2.192896e+001
1.270880e+003,2.203423e+001
1.272808e+003,2.212104e+001
1.274737e+003,2.217894e+001
1.276665e+003,2.222918e+001
1.278594e+003,2.227299e+001
1.280522e+003,2.230874e+001
1.282451e+003,2.233042e+001
1.284379e+003,2.236127e+001
1.286308e+003,2.237257e+001
1.288236e+003,2.237977e+001
1.290165e+003,2.239266e+001
1.292093e+003,2.240384e+001
1.294022e+003,2.240625e+001
1.295950e+003,2.241462e+001
1.297879e+003,2.241471e+001
1.299807e+003,2.241981e+001
1.301736e+003,2.241231e+001
1.303664e+003,2.240055e+001
1.305593e+003,2.240216e+001
1.307521e+003,2.245034e+001
1.309450e+003,2.247569e+001
1.311378e+003,2.248574e+001
1.313307e+003,2.249423e+001
1.315235e+003,2.251194e+001
1.317164e+003,2.251655e+001
1.319092e+003,2.252798e+001
1.321021e+003,2.253915e+001
1.322949e+003,2.255708e+001
1.324878e+003,2.256223e+001
1.326806e+003,2.255899e+001
1.328735e+003,2.256453e+001
1.330663e+003,2.255122e+001
1.332592e+003,2.253986e+001
1.334520e+003,2.260211e+001
1.336449e+003,2.261276e+001
1.338377e+003,2.259618e+001
1.340306e+003,2.259170e+001
1.342234e+003,2.261461e+001
1.344163e+003,2.261685e+001
1.346091e+003,2.261234e+001
1.348020e+003,2.259945e+001
1.349948e+003,2.259786e+001
1.351877e+003,2.258662e+001
1.353805e+003,2.258399e+001
1.355734e+003,2.258051e+001
1.357662e+003,2.258936e+001
1.359591e+003,2.255880e+001
1.361519e+003,2.250954e+001
1.363448e+003,2.250816e+001
1.365376e+003,2.256849e+001
1.367305e+003,2.256463e+001
1.369233e+003,2.256132e+001
1.371162e+003,2.254913e+001
1.373090e+003,2.249964e+001
1.375019e+003,2.247506e+001
1.376947e+003,2.250409e+001
1.378876e+003,2.247878e+001
1.380804e+003,2.242365e+001
1.382733e+003,2.228663e+001
1.384661e+003,2.222911e+001
1.386590e+003,2.223941e+001
1.388518e+003,2.235518e+001
1.390447e+003,2.245899e+001
1.392375e+003,2.243197e+001
1.394304e+003,2.232796e+001
1.396232e+003,2.236023e+001
1.398161e+003,2.235016e+001
1.400089e+003,2.236855e+001
1.402018e+003,2.242634e+001
1.403946e+003,2.239150e+001
1.405875e+003,2.239247e+001
1.407803e+003,2.243447e+001
1.409732e+003,2.243461e+001
1.411660e+003,2.244108e+001
1.413589e+003,2.244778e+001
1.415517e+003,2.243225e+001
1.417446e+003,2.228890e+001
1.419374e+003,2.217490e+001
1.421303e+003,2.237093e+001
1.423231e+003,2.244737e+001
1.425160e+003,2.246144e+001
1.427088e+003,2.248826e+001
1.429017e+003,2.243835e+001
1.430945e+003,2.244531e+001
1.432874e+003,2.246972e+001
1.434802e+003,2.233984e+001
1.436731e+003,2.216061e+001
1.438659e+003,2.234919e+001
1.440588e+003,2.242628e+001
1.442516e+003,2.240843e+001
1.444445e+003,2.236745e+001
1.446373e+003,2.230673e+001
1.448302e+003,2.223614e+001
1.450230e+003,2.227501e+001
1.452159e+003,2.223241e+001
1.454087e+003,2.211858e+001
1.456016e+003,2.171345e+001
1.457944e+003,2.174681e+001
1.459873e+003,2.207879e+001
1.461801e+003,2.216972e+001
1.463730e+003,2.205054e+001
1.465658e+003,2.203662e+001
1.467587e+003,2.214800e+001
1.469515e+003,2.211155e+001
1.471444e+003,2.187743e+001
1.473372e+003,2.181441e+001
1.475301e+003,2.196530e+001
1.477229e+003,2.204054e+001
1.479158e+003,2.210785e+001
1.481086e+003,2.208175e+001
1.483015e+003,2.208517e+001
1.484943e+003,2.203943e+001
1.486872e+003,2.194253e+001
1.488800e+003,2.185023e+001
1.490729e+003,2.185010e+001
1.492657e+003,2.196082e+001
1.494586e+003,2.183978e+001
1.496514e+003,2.166785e+001
1.498443e+003,2.175859e+001
1.500371e+003,2.185141e+001
1.502300e+003,2.188527e+001
1.504228e+003,2.158410e+001
1.506157e+003,2.117000e+001
1.508085e+003,2.137354e+001
1.510014e+003,2.167315e+001
1.511942e+003,2.168382e+001
1.513871e+003,2.169027e+001
1.515799e+003,2.157808e+001
1.517728e+003,2.152052e+001
1.519656e+003,2.135633e+001
1.521585e+003,2.117873e+001
1.523513e+003,2.137792e+001
1.525442e+003,2.138644e+001
1.527370e+003,2.141502e+001
1.529299e+003,2.144094e+001
1.531227e+003,2.137876e+001
1.533156e+003,2.119697e+001
1.535084e+003,2.126506e+001
1.537013e+003,2.113201e+001
1.538941e+003,2.064602e+001
1.540870e+003,2.062342e+001
1.542798e+003,2.087766e+001
1.544727e+003,2.098495e+001
1.546655e+003,2.107881e+001
1.548584e+003,2.105909e+001
1.550512e+003,2.100176e+001
1.552441e+003,2.091356e+001
1.554369e+003,2.075889e+001
1.556298e+003,2.059499e+001
1.558226e+003,2.010932e+001
1.560155e+003,2.018354e+001
1.562083e+003,2.066829e+001
1.564012e+003,2.073682e+001
1.565940e+003,2.069836e+001
1.567869e+003,2.057878e+001
1.569797e+003,2.044629e+001
1.571726e+003,2.053547e+001
1.573654e+003,2.044455e+001
1.575583e+003,2.007486e+001
1.577511e+003,2.017158e+001
1.579440e+003,2.037303e+001
1.581368e+003,2.032163e+001
1.583297e+003,2.027528e+001
1.585225e+003,2.020981e+001
1.587154e+003,2.015939e+001
1.589082e+003,2.008710e+001
1.591010e+003,2.003154e+001
1.592939e+003,1.995580e+001
1.594868e+003,1.988871e+001
1.596796e+003,1.982238e+001
1.598724e+003,1.976475e+001
1.600653e+003,1.968186e+001
1.602582e+003,1.960888e+001
1.604510e+003,1.952980e+001
1.606438e+003,1.944798e+001
1.608367e+003,1.934333e+001
1.610296e+003,1.926771e+001
1.612224e+003,1.918962e+001
1.614152e+003,1.901589e+001
1.616081e+003,1.863606e+001
1.618010e+003,1.862987e+001
1.619938e+003,1.873837e+001
1.621866e+003,1.861472e+001
1.623795e+003,1.854361e+001
1.625724e+003,1.856896e+001
1.627652e+003,1.850836e+001
1.629580e+003,1.847351e+001
1.631509e+003,1.843563e+001
1.633438e+003,1.820912e+001
1.635366e+003,1.791191e+001
1.637294e+003,1.801252e+001
1.639223e+003,1.811511e+001
1.641151e+003,1.805951e+001
1.643080e+003,1.796432e+001
1.645008e+003,1.768991e+001
1.646937e+003,1.755800e+001
1.648865e+003,1.766290e+001
1.650794e+003,1.739339e+001
1.652722e+003,1.685303e+001
1.654651e+003,1.713058e+001
1.656579e+003,1.744864e+001
1.658508e+003,1.742578e+001
1.660436e+003,1.731555e+001
1.662365e+003,1.716351e+001
1.664293e+003,1.714303e+001
1.666222e+003,1.710784e+001
1.668150e+003,1.689822e+001
1.670079e+003,1.678447e+001
1.672007e+003,1.680285e+001
1.673936e+003,1.666264e+001
1.675864e+003,1.654766e+001
1.677793e+003,1.661863e+001
1.679721e+003,1.652553e+001
1.681650e+003,1.636785e+001
1.683578e+003,1.595056e+001
1.685507e+003,1.593720e+001
1.687435e+003,1.615786e+001
1.689364e+003,1.611605e+001
1.691292e+003,1.605039e+001
1.693221e+003,1.590432e+001
1.695149e+003,1.552043e+001
1.697078e+003,1.549276e+001
1.699006e+003,1.535729e+001
1.700935e+003,1.522163e+001
1.702863e+003,1.543529e+001
1.704792e+003,1.533248e+001
1.706720e+003,1.528583e+001
1.708649e+003,1.523067e+001
1.710577e+003,1.517028e+001
1.712506e+003,1.503190e+001
1.714434e+003,1.485641e+001
1.716363e+003,1.457906e+001
1.718291e+003,1.450594e+001
1.720220e+003,1.462602e+001
1.722148e+003,1.459167e+001
1.724077e+003,1.448857e+001
1.726005e+003,1.440740e+001
1.727934e+003,1.429354e+001
1.729862e+003,1.417543e+001
1.731791e+003,1.396771e+001
1.733719e+003,1.368481e+001
1.735648e+003,1.375652e+001
1.737576e+003,1.381082e+001
1.739505e+003,1.366232e+001
1.741433e+003,1.362984e+001
1.743362e+003,1.357049e+001
1.745290e+003,1.349999e+001
1.747219e+003,1.338776e+001
1.749147e+003,1.325834e+001
1.751076e+003,1.311526e+001
1.753004e+003,1.311331e+001
1.754933e+003,1.304836e+001
1.756861e+003,1.292366e+001
1.758790e+003,1.284583e+001
1.760718e+003,1.270454e+001
1.762647e+003,1.259464e+001
1.764575e+003,1.254701e+001
1.766504e+003,1.239903e+001
1.768432e+003,1.225122e+001
1.770361e+003,1.209565e+001
1.772289e+003,1.189150e+001
1.774218e+003,1.183385e+001
1.776146e+003,1.173873e+001
1.778075e+003,1.158832e+001
1.780003e+003,1.146247e+001
1.781932e+003,1.136899e+001
1.783860e+003,1.126614e+001
1.785789e+003,1.116750e+001
1.787717e+003,1.109041e+001
1.789646e+003,1.095706e+001
1.791574e+003,1.078636e+001
1.793503e+003,1.069116e+001
1.795431e+003,1.064255e+001
1.797360e+003,1.051903e+001
1.799288e+003,1.038183e+001
1.801217e+003,1.024038e+001
1.803145e+003,1.012407e+001
1.805074e+003,9.976133e+000
1.807002e+003,9.814492e+000
1.808931e+003,9.616601e+000
1.810859e+003,9.409140e+000
1.812788e+003,9.171033e+000
1.814716e+003,8.867187e+000
1.816645e+003,8.433119e+000
1.818573e+003,8.073976e+000
1.820502e+003,7.877709e+000
1.822430e+003,7.755631e+000
1.824359e+003,7.622377e+000
1.826287e+003,7.508509e+000
1.828216e+003,7.374177e+000
1.830144e+003,7.235098e+000
1.832073e+003,7.126873e+000
1.834001e+003,6.999737e+000
1.835930e+003,6.853229e+000
1.837858e+003,6.715216e+000
1.839787e+003,6.578672e+000
1.841715e+003,6.432167e+000
1.843644e+003,6.261404e+000
1.845572e+003,6.157077e+000
1.847501e+003,6.061067e+000
1.849429e+003,5.947262e+000
1.851358e+003,5.833375e+000
1.853286e+003,5.724055e+000
1.855215e+003,5.616297e+000
1.857143e+003,5.512329e+000
1.859072e+003,5.409171e+000
1.861000e+003,5.313568e+000
1.862929e+003,5.217626e+000
1.864857e+003,5.122010e+000
1.866786e+003,5.016034e+000
1.868714e+003,4.912763e+000
1.870643e+003,4.831292e+000
1.872571e+003,4.752890e+000
1.874500e+003,4.659906e+000
1.876428e+003,4.570594e+000
1.878357e+003,4.477081e+000
1.880285e+003,4.387329e+000
1.882214e+003,4.295355e+000
1.884142e+003,4.207520e+000
1.886071e+003,4.116588e+000
1.887999e+003,4.025506e+000
1.889928e+003,3.933933e+000
1.891856e+003,3.856529e+000
1.893785e+003,3.769743e+000
1.895713e+003,3.686247e+000
1.897642e+003,3.603132e+000
1.899570e+003,3.524109e+000
1.901499e+003,3.441637e+000
1.903427e+003,3.363537e+000
1.905356e+003,3.282459e+000
1.907284e+003,3.206224e+000
1.909213e+003,3.126455e+000
1.911141e+003,3.053065e+000
1.913070e+003,2.976222e+000
1.914998e+003,2.902746e+000
1.916927e+003,2.820598e+000
1.918855e+003,2.753629e+000
1.920784e+003,2.689884e+000
1.922712e+003,2.601799e+000
1.924641e+003,2.499438e+000
1.926569e+003,2.400635e+000
1.928498e+003,2.300915e+000
1.930426e+003,2.208318e+000
1.932355e+003,2.115599e+000
1.934283e+003,2.029480e+000
1.936212e+003,1.943327e+000
1.938140e+003,1.861914e+000
1.940069e+003,1.779432e+000
1.941997e+003,1.702150e+000
1.943926e+003,1.627632e+000
1.945854e+003,1.558159e+000
1.947783e+003,1.486564e+000
1.949711e+003,1.419324e+000
1.951640e+003,1.352352e+000
1.953568e+003,1.289580e+000
1.955497e+003,1.216754e+000
1.957425e+003,1.123534e+000
1.959354e+003,1.028370e+000
1.961282e+003,9.703107e-001
1.963211e+003,9.243902e-001
1.965139e+003,8.820999e-001
1.967068e+003,8.387726e-001
1.968996e+003,8.013101e-001
1.970925e+003,7.612844e-001
1.972853e+003,7.264985e-001
1.974782e+003,6.900997e-001
1.976710e+003,6.656007e-001
1.978639e+003,6.878768e-001
1.980567e+003,7.682842e-001
1.982496e+003,8.310081e-001
1.984424e+003,8.707458e-001
1.986353e+003,8.950375e-001
1.988281e+003,9.143907e-001
1.990210e+003,9.241797e-001
1.992138e+003,9.315450e-001
1.994067e+003,9.318199e-001
1.995995e+003,9.298715e-001
1.997924e+003,9.153597e-001
1.999852e+003,8.922460e-001
2.001781e+003,8.549123e-001
2.003709e+003,8.068527e-001
2.005638e+003,7.417797e-001
2.007566e+003,7.005811e-001
2.009495e+003,6.921522e-001
2.011423e+003,6.906287e-001
2.013352e+003,6.811671e-001
2.015280e+003,6.724384e-001
2.017208e+003,6.605031e-001
2.019137e+003,6.516908e-001
2.021066e+003,6.409929e-001
2.022994e+003,6.343912e-001
2.024922e+003,6.265632e-001
2.026851e+003,6.217118e-001
2.028780e+003,6.150398e-001
2.030708e+003,6.161231e-001
2.032636e+003,6.185952e-001
2.034565e+003,6.364555e-001
2.036494e+003,6.737391e-001
2.038422e+003,7.206470e-001
2.040350e+003,7.607092e-001
2.042279e+003,7.998988e-001
2.044208e+003,8.337406e-001
2.046136e+003,8.716820e-001
2.048064e+003,9.188276e-001
2.049993e+003,1.020961e+000
2.051921e+003,1.153941e+000
2.053850e+003,1.218639e+000
2.055778e+003,1.265456e+000
2.057707e+003,1.315525e+000
2.059635e+003,1.350256e+000
2.061564e+003,1.383530e+000
2.063492e+003,1.413629e+000
2.065421e+003,1.446996e+000
2.067349e+003,1.481702e+000
2.069278e+003,1.521516e+000
2.071206e+003,1.562220e+000
2.073135e+003,1.608883e+000
2.075063e+003,1.655366e+000
2.076992e+003,1.707391e+000
2.078920e+003,1.761585e+000
2.080849e+003,1.817669e+000
2.082777e+003,1.864827e+000
2.084706e+003,1.906121e+000
2.086634e+003,1.936095e+000
2.088563e+003,1.957870e+000
2.090491e+003,1.960387e+000
2.092420e+003,1.940109e+000
2.094348e+003,1.891542e+000
2.096277e+003,1.867962e+000
2.098205e+003,1.879565e+000
2.100134e+003,1.903061e+000
2.102062e+003,1.922864e+000
2.103991e+003,1.943052e+000
2.105919e+003,1.959188e+000
2.107848e+003,1.977046e+000
2.109776e+003,1.994306e+000
2.111705e+003,2.014848e+000
2.113633e+003,2.036680e+000
2.115562e+003,2.052846e+000
2.117490e+003,2.043916e+000
2.119419e+003,2.015844e+000
2.121347e+003,1.972596e+000
2.123276e+003,1.915704e+000
2.125204e+003,1.843532e+000
2.127133e+003,1.757677e+000
2.129061e+003,1.653306e+000
2.130990e+003,1.530940e+000
2.132918e+003,1.387280e+000
2.134847e+003,1.259132e+000
2.136775e+003,1.170670e+000
2.138704e+003,1.102850e+000
2.140632e+003,1.036512e+000
2.142561e+003,9.711217e-001
2.144489e+003,9.043956e-001
2.146418e+003,8.421330e-001
2.148346e+003,7.855226e-001
2.150275e+003,7.356720e-001
2.152203e+003,6.789069e-001
2.154132e+003,6.111467e-001
2.156060e+003,5.293493e-001
2.157989e+003,4.483635e-001
2.159917e+003,4.297195e-001
2.161846e+003,4.824576e-001
2.163774e+003,5.350484e-001
2.165703e+003,5.827627e-001
2.167631e+003,6.283923e-001
2.169560e+003,6.691637e-001
2.171488e+003,6.913545e-001
2.173417e+003,6.990523e-001
2.175345e+003,6.977417e-001
2.177274e+003,7.092784e-001
2.179202e+003,7.199506e-001
2.181131e+003,7.223152e-001
2.183059e+003,7.341544e-001
2.184988e+003,7.652280e-001
2.186916e+003,7.973620e-001
2.188845e+003,8.300742e-001
2.190773e+003,8.591031e-001
2.192702e+003,8.876486e-001
2.194630e+003,9.126841e-001
2.196559e+003,9.389608e-001
2.198487e+003,9.620754e-001
2.200416e+003,9.849950e-001
2.202344e+003,1.005905e+000
2.204273e+003,1.029377e+000
2.206201e+003,1.050098e+000
2.208130e+003,1.072227e+000
2.210058e+003,1.093244e+000
2.211987e+003,1.117032e+000
2.213915e+003,1.139172e+000
2.215844e+003,1.163882e+000
2.217772e+003,1.187757e+000
2.219701e+003,1.214696e+000
2.221629e+003,1.241545e+000
2.223558e+003,1.271453e+000
2.225486e+003,1.299934e+000
2.227415e+003,1.332378e+000
2.229343e+003,1.364556e+000
2.231272e+003,1.400588e+000
2.233200e+003,1.435951e+000
2.235129e+003,1.473995e+000
2.237057e+003,1.511356e+000
2.238986e+003,1.551043e+000
2.240914e+003,1.590296e+000
2.242843e+003,1.632071e+000
2.244771e+003,1.671953e+000
2.246700e+003,1.712135e+000
2.248628e+003,1.749032e+000
2.250557e+003,1.785217e+000
2.252485e+003,1.813809e+000
2.254414e+003,1.844031e+000
2.256342e+003,1.889976e+000
2.258271e+003,1.951177e+000
2.260199e+003,2.006915e+000
2.262128e+003,2.057774e+000
2.264056e+003,2.102805e+000
2.265985e+003,2.154284e+000
2.267913e+003,2.219408e+000
2.269842e+003,2.297717e+000
2.271770e+003,2.378932e+000
2.273699e+003,2.469765e+000
2.275627e+003,2.568877e+000
2.277556e+003,2.684530e+000
2.279484e+003,2.813318e+000
2.281413e+003,2.963153e+000
2.283341e+003,3.121302e+000
2.285270e+003,3.277027e+000
2.287198e+003,3.422898e+000
2.289127e+003,3.562426e+000
2.291055e+003,3.687972e+000
2.292984e+003,3.795250e+000
2.294912e+003,3.879968e+000
2.296841e+003,3.946788e+000
2.298769e+003,3.994158e+000
2.300698e+003,4.024367e+000
2.302626e+003,4.039975e+000
2.304555e+003,4.018738e+000
2.306483e+003,3.945594e+000
2.308412e+003,3.851628e+000
2.310340e+003,3.748958e+000
2.312269e+003,3.665746e+000
2.314197e+003,3.629074e+000
2.316125e+003,3.568334e+000
2.318054e+003,3.401977e+000
2.319983e+003,3.218152e+000
2.321911e+003,3.129085e+000
2.323840e+003,3.208699e+000
2.325768e+003,3.312259e+000
2.327697e+003,3.175740e+000
2.329625e+003,2.951467e+000
2.331553e+003,2.831498e+000
2.333482e+003,2.809510e+000
2.335411e+003,2.730193e+000
2.337339e+003,2.633397e+000
2.339268e+003,2.566911e+000
2.341196e+003,2.524236e+000
2.343125e+003,2.585820e+000
2.345053e+003,2.866493e+000
2.346981e+003,3.718254e+000
2.348910e+003,4.254243e+000
2.350839e+003,3.469901e+000
2.352767e+003,2.581314e+000
2.354696e+003,2.040864e+000
2.356624e+003,1.721702e+000
2.358552e+003,1.544758e+000
2.360481e+003,1.492815e+000
2.362409e+003,1.510585e+000
2.364338e+003,1.594222e+000
2.366267e+003,1.750314e+000
2.368195e+003,1.982534e+000
2.370124e+003,2.294252e+000
2.372052e+003,2.688485e+000
2.373980e+003,3.155216e+000
2.375909e+003,3.683115e+000
2.377838e+003,4.252873e+000
2.379766e+003,4.826763e+000
2.381695e+003,5.325557e+000
2.383623e+003,5.672252e+000
2.385552e+003,5.842259e+000
2.387480e+003,5.873732e+000
2.389408e+003,5.826469e+000
2.391337e+003,5.745989e+000
2.393266e+003,5.655738e+000
2.395194e+003,5.563311e+000
2.397123e+003,5.473267e+000
2.399051e+003,5.385200e+000
2.400979e+003,5.299444e+000
2.402908e+003,5.213179e+000
2.404836e+003,5.125382e+000
2.406765e+003,5.045555e+000
2.408694e+003,4.994359e+000
2.410622e+003,4.956117e+000
2.412551e+003,4.913984e+000
2.414479e+003,4.868016e+000
2.416407e+003,4.821443e+000
2.418336e+003,4.775739e+000
2.420264e+003,4.732853e+000
2.422193e+003,4.691121e+000
2.424122e+003,4.651293e+000
2.426050e+003,4.614088e+000
2.427979e+003,4.581459e+000
2.429907e+003,4.550142e+000
2.431835e+003,4.522961e+000
2.433764e+003,4.498842e+000
2.435692e+003,4.478456e+000
2.437621e+003,4.462111e+000
2.439550e+003,4.448466e+000
2.441478e+003,4.437032e+000
2.443406e+003,4.430347e+000
2.445335e+003,4.427662e+000
2.447263e+003,4.429729e+000
2.449192e+003,4.433789e+000
2.451121e+003,4.443582e+000
2.453049e+003,4.457011e+000
2.454978e+003,4.473185e+000
2.456906e+003,4.486899e+000
2.458834e+003,4.494854e+000
2.460763e+003,4.494111e+000
2.462691e+003,4.488930e+000
2.464620e+003,4.479795e+000
2.466549e+003,4.468013e+000
2.468477e+003,4.454267e+000
2.470406e+003,4.440266e+000
2.472334e+003,4.425265e+000
2.474262e+003,4.411285e+000
2.476191e+003,4.395776e+000
2.478119e+003,4.381142e+000
2.480048e+003,4.367094e+000
2.481977e+003,4.354191e+000
2.483905e+003,4.341481e+000
2.485833e+003,4.330647e+000
2.487762e+003,4.320967e+000
2.489690e+003,4.314502e+000
2.491619e+003,4.308143e+000
2.493547e+003,4.304690e+000
2.495476e+003,4.300021e+000
2.497405e+003,4.295513e+000
2.499333e+003,4.289709e+000
2.501261e+003,4.283463e+000
2.503190e+003,4.276841e+000
2.505118e+003,4.271585e+000
2.507047e+003,4.265993e+000
2.508975e+003,4.260610e+000
2.510904e+003,4.255136e+000
2.512833e+003,4.251585e+000
2.514761e+003,4.248177e+000
2.516689e+003,4.245004e+000
2.518618e+003,4.242395e+000
2.520546e+003,4.241530e+000
2.522475e+003,4.240324e+000
2.524403e+003,4.240456e+000
2.526332e+003,4.241169e+000
2.528260e+003,4.243631e+000
2.530189e+003,4.245953e+000
2.532117e+003,4.249849e+000
2.534046e+003,4.254478e+000
2.535974e+003,4.260614e+000
2.537903e+003,4.267037e+000
2.539831e+003,4.275489e+000
2.541760e+003,4.285399e+000
2.543688e+003,4.296358e+000
2.545617e+003,4.308440e+000
2.547545e+003,4.322764e+000
2.549474e+003,4.338100e+000
2.551402e+003,4.355896e+000
2.553331e+003,4.374905e+000
2.555259e+003,4.395338e+000
2.557188e+003,4.416852e+000
2.559116e+003,4.440731e+000
2.561045e+003,4.466212e+000
2.562973e+003,4.494655e+000
2.564902e+003,4.524559e+000
2.566830e+003,4.556537e+000
2.568759e+003,4.590353e+000
2.570687e+003,4.626795e+000
2.572616e+003,4.664752e+000
2.574544e+003,4.706841e+000
2.576473e+003,4.750782e+000
2.578401e+003,4.797349e+000
2.580330e+003,4.845851e+000
2.582258e+003,4.897896e+000
2.584187e+003,4.951417e+000
2.586115e+003,5.008751e+000
2.588044e+003,5.069339e+000
2.589972e+003,5.134336e+000
2.591901e+003,5.201667e+000
2.593829e+003,5.272183e+000
2.595758e+003,5.346091e+000
2.597686e+003,5.424100e+000
2.599615e+003,5.506188e+000
2.601543e+003,5.593388e+000
2.603472e+003,5.684721e+000
2.605400e+003,5.781085e+000
2.607329e+003,5.880773e+000
2.609257e+003,5.986626e+000
2.611186e+003,6.097446e+000
2.613114e+003,6.212468e+000
2.615043e+003,6.333133e+000
2.616971e+003,6.460907e+000
2.618900e+003,6.593806e+000
2.620828e+003,6.733072e+000
2.622757e+003,6.878952e+000
2.624685e+003,7.032436e+000
2.626614e+003,7.191485e+000
2.628542e+003,7.357220e+000
2.630471e+003,7.529775e+000
2.632399e+003,7.709298e+000
2.634328e+003,7.895846e+000
2.636256e+003,8.090240e+000
2.638185e+003,8.290174e+000
2.640113e+003,8.496102e+000
2.642042e+003,8.707616e+000
2.643970e+003,8.924595e+000
2.645899e+003,9.145197e+000
2.647827e+003,9.369622e+000
2.649756e+003,9.594369e+000
2.651684e+003,9.818161e+000
2.653613e+003,1.003814e+001
2.655541e+003,1.025041e+001
2.657470e+003,1.045007e+001
2.659398e+003,1.063081e+001
2.661327e+003,1.078103e+001
2.663255e+003,1.088823e+001
2.665184e+003,1.094238e+001
2.667112e+003,1.095784e+001
2.669041e+003,1.095670e+001
2.670969e+003,1.095014e+001
2.672898e+003,1.093994e+001
2.674826e+003,1.092740e+001
2.676755e+003,1.091143e+001
2.678683e+003,1.089507e+001
2.680612e+003,1.087886e+001
2.682540e+003,1.086158e+001
2.684469e+003,1.084373e+001
2.686397e+003,1.082595e+001
2.688326e+003,1.080758e+001
2.690254e+003,1.078887e+001
2.692183e+003,1.077013e+001
2.694111e+003,1.075137e+001
2.696040e+003,1.073261e+001
2.697968e+003,1.071449e+001
2.699897e+003,1.069552e+001
2.701825e+003,1.067739e+001
2.703754e+003,1.065761e+001
2.705682e+003,1.063875e+001
2.707611e+003,1.061938e+001
2.709539e+003,1.060080e+001
2.711468e+003,1.058166e+001
2.713396e+003,1.056281e+001
2.715325e+003,1.054404e+001
2.717253e+003,1.052567e+001
2.719182e+003,1.050633e+001
2.721110e+003,1.048772e+001
2.723039e+003,1.046770e+001
2.724967e+003,1.044915e+001
2.726896e+003,1.043020e+001
2.728824e+003,1.041125e+001
2.730753e+003,1.039267e+001
2.732681e+003,1.037413e+001
2.734610e+003,1.035502e+001
2.736538e+003,1.033640e+001
2.738467e+003,1.031780e+001
2.740395e+003,1.029810e+001
2.742324e+003,1.027834e+001
2.744252e+003,1.025991e+001
2.746181e+003,1.024157e+001
2.748109e+003,1.022236e+001
2.750038e+003,1.020288e+001
2.751966e+003,1.018396e+001
2.753895e+003,1.016411e+001
2.755823e+003,1.014435e+001
2.757752e+003,1.012483e+001
2.759680e+003,1.010604e+001
2.761609e+003,1.008649e+001
2.763537e+003,1.006752e+001
2.765466e+003,1.004850e+001
2.767394e+003,1.002925e+001
2.769323e+003,1.000923e+001
2.771251e+003,9.989202e+000
2.773180e+003,9.969505e+000
2.775108e+003,9.950269e+000
2.777037e+003,9.928642e+000
2.778965e+003,9.908423e+000
2.780894e+003,9.888073e+000
2.782822e+003,9.868131e+000
2.784750e+003,9.848280e+000
2.786679e+003,9.829000e+000
2.788608e+003,9.809483e+000
2.790536e+003,9.788676e+000
2.792465e+003,9.767886e+000
2.794393e+003,9.747935e+000
2.796322e+003,9.728177e+000
2.798250e+003,9.708794e+000
2.800178e+003,9.687023e+000
2.802107e+003,9.665709e+000
2.804036e+003,9.645115e+000
2.805964e+003,9.625154e+000
2.807893e+003,9.604957e+000
2.809821e+003,9.584432e+000
2.811750e+003,9.562511e+000
2.813678e+003,9.541070e+000
2.815606e+003,9.520571e+000
2.817535e+003,9.499361e+000
2.819464e+003,9.478106e+000
2.821392e+003,9.457612e+000
2.823321e+003,9.435769e+000
2.825249e+003,9.413798e+000
2.827177e+003,9.391272e+000
2.829106e+003,9.368950e+000
2.831034e+003,9.346811e+000
2.832963e+003,9.324789e+000
2.834892e+003,9.301363e+000
2.836820e+003,9.278348e+000
2.838749e+003,9.254727e+000
2.840677e+003,9.224998e+000
2.842605e+003,9.195297e+000
2.844534e+003,9.165315e+000
2.846462e+003,9.133598e+000
2.848391e+003,9.102676e+000
2.850320e+003,9.075420e+000
2.852248e+003,9.052384e+000
2.854177e+003,9.030457e+000
2.856105e+003,9.009465e+000
2.858033e+003,8.990132e+000
2.859962e+003,8.971038e+000
2.861890e+003,8.949885e+000
2.863819e+003,8.928837e+000
2.865748e+003,8.906687e+000
2.867676e+003,8.883097e+000
2.869604e+003,8.859280e+000
2.871533e+003,8.838585e+000
2.873461e+003,8.817859e+000
2.875390e+003,8.792991e+000
2.877319e+003,8.770016e+000
2.879247e+003,8.747929e+000
2.881176e+003,8.726344e+000
2.883104e+003,8.703238e+000
2.885032e+003,8.679851e+000
2.886961e+003,8.657860e+000
2.888889e+003,8.635131e+000
2.890818e+003,8.611132e+000
2.892747e+003,8.586061e+000
2.894675e+003,8.560719e+000
2.896604e+003,8.535600e+000
2.898532e+003,8.509636e+000
2.900460e+003,8.484512e+000
2.902389e+003,8.459435e+000
2.904317e+003,8.433134e+000
2.906246e+003,8.405087e+000
2.908175e+003,8.379531e+000
2.910103e+003,8.352171e+000
2.912031e+003,8.326888e+000
2.913960e+003,8.297486e+000
2.915888e+003,8.261005e+000
2.917817e+003,8.233448e+000
2.919745e+003,8.209940e+000
2.921674e+003,8.184805e+000
2.923603e+003,8.159896e+000
2.925531e+003,8.134853e+000
2.927459e+003,8.114451e+000
2.929388e+003,8.101757e+000
2.931316e+003,8.084683e+000
2.933245e+003,8.068035e+000
2.935173e+003,8.049858e+000
2.937102e+003,8.028297e+000
2.939031e+003,8.015756e+000
2.940959e+003,8.006256e+000
2.942887e+003,7.991808e+000
2.944816e+003,7.973460e+000
2.946744e+003,7.948196e+000
2.948673e+003,7.923526e+000
2.950601e+003,7.904252e+000
2.952530e+003,7.880778e+000
2.954458e+003,7.853682e+000
2.956387e+003,7.823299e+000
2.958315e+003,7.793165e+000
2.960244e+003,7.774462e+000
2.962172e+003,7.753049e+000
2.964101e+003,7.730992e+000
2.966029e+003,7.712090e+000
2.967958e+003,7.698049e+000
2.969886e+003,7.692757e+000
2.971815e+003,7.688699e+000
2.973743e+003,7.679962e+000
2.975672e+003,7.668375e+000
2.977600e+003,7.650602e+000
2.979529e+003,7.638345e+000
2.981457e+003,7.628195e+000
2.983386e+003,7.612212e+000
2.985314e+003,7.594678e+000
2.987243e+003,7.574712e+000
2.989171e+003,7.556277e+000
2.991100e+003,7.544403e+000
2.993028e+003,7.525817e+000
2.994957e+003,7.503835e+000
2.996885e+003,7.485080e+000
2.998814e+003,7.464192e+000
3.000742e+003,7.444085e+000
3.002671e+003,7.424874e+000
3.004599e+003,7.403872e+000
3.006528e+003,7.383729e+000
3.008456e+003,7.364207e+000
3.010385e+003,7.346597e+000
3.012313e+003,7.322580e+000
3.014242e+003,7.288316e+000
3.016170e+003,7.246363e+000
3.018099e+003,7.233162e+000
3.020027e+003,7.238908e+000
3.021956e+003,7.225884e+000
3.023884e+003,7.207945e+000
3.025813e+003,7.187044e+000
3.027741e+003,7.165871e+000
3.029670e+003,7.146955e+000
3.031598e+003,7.129687e+000
3.033527e+003,7.112646e+000
3.035455e+003,7.093020e+000
3.037384e+003,7.072359e+000
3.039312e+003,7.056470e+000
3.041241e+003,7.043386e+000
3.043169e+003,7.024926e+000
3.045098e+003,7.003915e+000
3.047026e+003,6.981090e+000
3.048955e+003,6.964013e+000
3.050883e+003,6.951052e+000
3.052812e+003,6.932235e+000
3.054740e+003,6.912766e+000
3.056669e+003,6.888681e+000
3.058597e+003,6.872411e+000
3.060526e+003,6.860409e+000
3.062454e+003,6.843386e+000
3.064383e+003,6.824575e+000
3.066311e+003,6.802045e+000
3.068240e+003,6.787041e+000
3.070168e+003,6.774909e+000
3.072097e+003,6.757529e+000
3.074025e+003,6.738492e+000
3.075954e+003,6.719013e+000
3.077882e+003,6.709023e+000
3.079811e+003,6.693940e+000
3.081739e+003,6.674777e+000
3.083668e+003,6.652837e+000
3.085596e+003,6.625157e+000
3.087525e+003,6.613189e+000
3.089453e+003,6.602016e+000
3.091382e+003,6.583942e+000
3.093310e+003,6.560072e+000
3.095239e+003,6.537784e+000
3.097167e+003,6.527746e+000
3.099096e+003,6.513006e+000
3.101024e+003,6.493439e+000
3.102953e+003,6.470909e+000
3.104881e+003,6.453631e+000
3.106810e+003,6.444378e+000
3.108738e+003,6.430678e+000
3.110667e+003,6.410012e+000
3.112595e+003,6.388226e+000
3.114524e+003,6.377358e+000
3.116452e+003,6.367755e+000
3.118381e+003,6.350571e+000
3.120309e+003,6.330030e+000
3.122238e+003,6.299281e+000
3.124166e+003,6.283082e+000
3.126095e+003,6.275067e+000
3.128023e+003,6.263960e+000
3.129952e+003,6.247534e+000
3.131880e+003,6.230276e+000
3.133809e+003,6.216701e+000
3.135737e+003,6.202813e+000
3.137666e+003,6.187478e+000
3.139594e+003,6.171417e+000
3.141523e+003,6.154602e+000
3.143451e+003,6.139062e+000
3.145380e+003,6.123446e+000
3.147308e+003,6.108132e+000
3.149237e+003,6.093051e+000
3.151165e+003,6.084415e+000
3.153094e+003,6.070163e+000
3.155022e+003,6.051184e+000
3.156951e+003,6.035128e+000
3.158879e+003,6.021488e+000
3.160808e+003,6.007686e+000
3.162736e+003,5.994415e+000
3.164665e+003,5.980531e+000
3.166593e+003,5.966623e+000
3.168522e+003,5.952962e+000
3.170450e+003,5.938958e+000
3.172379e+003,5.925596e+000
3.174307e+003,5.912627e+000
3.176236e+003,5.899001e+000
3.178164e+003,5.885697e+000
3.180093e+003,5.873861e+000
3.182021e+003,5.861609e+000
3.183950e+003,5.848520e+000
3.185878e+003,5.836194e+000
3.187807e+003,5.825260e+000
3.189735e+003,5.814138e+000
3.191664e+003,5.802593e+000
3.193592e+003,5.791464e+000
3.195521e+003,5.779858e+000
3.197449e+003,5.768508e+000
3.199378e+003,5.757999e+000
3.201306e+003,5.748313e+000
3.203235e+003,5.738207e+000
3.205163e+003,5.728651e+000
3.207092e+003,5.719830e+000
3.209020e+003,5.711150e+000
3.210948e+003,5.703102e+000
3.212877e+003,5.695817e+000
3.214806e+003,5.688901e+000
3.216734e+003,5.682480e+000
3.218663e+003,5.675112e+000
3.220591e+003,5.669147e+000
3.222520e+003,5.662967e+000
3.224448e+003,5.657413e+000
3.226376e+003,5.650941e+000
3.228305e+003,5.645263e+000
3.230234e+003,5.640583e+000
3.232162e+003,5.639601e+000
3.234091e+003,5.634612e+000
3.236019e+003,5.626360e+000
3.237948e+003,5.621428e+000
3.239876e+003,5.617459e+000
3.241804e+003,5.613557e+000
3.243733e+003,5.609476e+000
3.245662e+003,5.607635e+000
3.247590e+003,5.606018e+000
3.249519e+003,5.602415e+000
3.251447e+003,5.599524e+000
3.253375e+003,5.597629e+000
3.255304e+003,5.596811e+000
3.257232e+003,5.595253e+000
3.259161e+003,5.595091e+000
3.261090e+003,5.594932e+000
3.263018e+003,5.595616e+000
3.264947e+003,5.595700e+000
3.266875e+003,5.597167e+000
3.268803e+003,5.601000e+000
3.270732e+003,5.604696e+000
3.272660e+003,5.602209e+000
3.274589e+003,5.601623e+000
3.276518e+003,5.602316e+000
3.278446e+003,5.603836e+000
3.280375e+003,5.604920e+000
3.282303e+003,5.605998e+000
3.284231e+003,5.606548e+000
3.286160e+003,5.607263e+000
3.288088e+003,5.607025e+000
3.290017e+003,5.609261e+000
3.291946e+003,5.610884e+000
3.293874e+003,5.610163e+000
3.295802e+003,5.609950e+000
3.297731e+003,5.608547e+000
3.299659e+003,5.607227e+000
3.301588e+003,5.607579e+000
3.303516e+003,5.611397e+000
3.305445e+003,5.614844e+000
3.307374e+003,5.610137e+000
3.309302e+003,5.604981e+000
3.311230e+003,5.602524e+000
3.313159e+003,5.601676e+000
3.315087e+003,5.600197e+000
3.317016e+003,5.598947e+000
3.318944e+003,5.597491e+000
3.320873e+003,5.595767e+000
3.322802e+003,5.593668e+000
3.324730e+003,5.593318e+000
3.326658e+003,5.591760e+000
3.328587e+003,5.590187e+000
3.330515e+003,5.588825e+000
3.332444e+003,5.586473e+000
3.334372e+003,5.583329e+000
3.336301e+003,5.581632e+000
3.338229e+003,5.580873e+000
3.340158e+003,5.577502e+000
3.342086e+003,5.574503e+000
3.344015e+003,5.571217e+000
3.345943e+003,5.567633e+000
3.347872e+003,5.566004e+000
3.349800e+003,5.564901e+000
3.351729e+003,5.560032e+000
3.353657e+003,5.553813e+000
3.355586e+003,5.550470e+000
3.357514e+003,5.547758e+000
3.359443e+003,5.544959e+000
3.361371e+003,5.541002e+000
3.363300e+003,5.536289e+000
3.365229e+003,5.532448e+000
3.367157e+003,5.529925e+000
3.369085e+003,5.526894e+000
3.371014e+003,5.518929e+000
3.372942e+003,5.510441e+000
3.374871e+003,5.505077e+000
3.376799e+003,5.498466e+000
3.378728e+003,5.492391e+000
3.380656e+003,5.486243e+000
3.382585e+003,5.478556e+000
3.384513e+003,5.469620e+000
3.386442e+003,5.462604e+000
3.388370e+003,5.455802e+000
3.390299e+003,5.451455e+000
3.392227e+003,5.441864e+000
3.394156e+003,5.429482e+000
3.396084e+003,5.419026e+000
3.398013e+003,5.411840e+000
3.399941e+003,5.405606e+000
3.401870e+003,5.392704e+000
3.403798e+003,5.378904e+000
3.405727e+003,5.368174e+000
3.407655e+003,5.357826e+000
3.409584e+003,5.347081e+000
3.411512e+003,5.335268e+000
3.413441e+003,5.323423e+000
3.415369e+003,5.310129e+000
3.417298e+003,5.296525e+000
3.419226e+003,5.282049e+000
3.421155e+003,5.267958e+000
3.423083e+003,5.254869e+000
3.425012e+003,5.241306e+000
3.426940e+003,5.226228e+000
3.428869e+003,5.211894e+000
3.430797e+003,5.195175e+000
3.432726e+003,5.180563e+000
3.434654e+003,5.167480e+000
3.436583e+003,5.151824e+000
3.438511e+003,5.137090e+000
3.440440e+003,5.124334e+000
3.442368e+003,5.112133e+000
3.444297e+003,5.102805e+000
3.446225e+003,5.091841e+000
3.448154e+003,5.084465e+000
3.450082e+003,5.077668e+000
3.452011e+003,5.069179e+000
3.453939e+003,5.060166e+000
3.455868e+003,5.050746e+000
3.457796e+003,5.040771e+000
3.459725e+003,5.031069e+000
3.461653e+003,5.020535e+000
3.463582e+003,5.011981e+000
3.465510e+003,5.003750e+000
3.467439e+003,4.995889e+000
3.469367e+003,4.986219e+000
3.471296e+003,4.974954e+000
3.473224e+003,4.964698e+000
3.475153e+003,4.956275e+000
3.477081e+003,4.949585e+000
3.479010e+003,4.943050e+000
3.480938e+003,4.933465e+000
3.482867e+003,4.926637e+000
3.484795e+003,4.922374e+000
3.486724e+003,4.916606e+000
3.488652e+003,4.910387e+000
3.490581e+003,4.906439e+000
3.492509e+003,4.901243e+000
3.494438e+003,4.895997e+000
3.496366e+003,4.890784e+000
3.498295e+003,4.887277e+000
3.500223e+003,4.881414e+000
3.502152e+003,4.874236e+000
3.504080e+003,4.868744e+000
3.506009e+003,4.866446e+000
3.507937e+003,4.859429e+000
3.509866e+003,4.853796e+000
3.511794e+003,4.850420e+000
3.513723e+003,4.846094e+000
3.515651e+003,4.839633e+000
3.517580e+003,4.832695e+000
3.519508e+003,4.825820e+000
3.521437e+003,4.818470e+000
3.523365e+003,4.809866e+000
3.525294e+003,4.802749e+000
3.527222e+003,4.792901e+000
3.529151e+003,4.786062e+000
3.531079e+003,4.779554e+000
3.533008e+003,4.771926e+000
3.534936e+003,4.759999e+000
3.536865e+003,4.749670e+000
3.538793e+003,4.739380e+000
3.540722e+003,4.728458e+000
3.542650e+003,4.713334e+000
3.544579e+003,4.696860e+000
3.546507e+003,4.681920e+000
3.548436e+003,4.674006e+000
3.550364e+003,4.660948e+000
3.552293e+003,4.644814e+000
3.554221e+003,4.632839e+000
3.556150e+003,4.619846e+000
3.558078e+003,4.602065e+000
3.560007e+003,4.583635e+000
3.561935e+003,4.564839e+000
3.563864e+003,4.541293e+000
3.565792e+003,4.507118e+000
3.567721e+003,4.486197e+000
3.569649e+003,4.485277e+000
3.571578e+003,4.474631e+000
3.573506e+003,4.454294e+000
3.575435e+003,4.433186e+000
3.577363e+003,4.410568e+000
3.579292e+003,4.386752e+000
3.581220e+003,4.361560e+000
3.583149e+003,4.332921e+000
3.585077e+003,4.289800e+000
3.587006e+003,4.242689e+000
3.588934e+003,4.221482e+000
3.590863e+003,4.212143e+000
3.592791e+003,4.183491e+000
3.594720e+003,4.156607e+000
3.596648e+003,4.140231e+000
3.598577e+003,4.128160e+000
3.600505e+003,4.115377e+000
3.602434e+003,4.115268e+000
3.604362e+003,4.117231e+000
3.606291e+003,4.114920e+000
3.608219e+003,4.111588e+000
3.610148e+003,4.138362e+000
3.612076e+003,4.154130e+000
3.614005e+003,4.137121e+000
3.615933e+003,4.094299e+000
3.617862e+003,4.033658e+000
3.619790e+003,3.992345e+000
3.621719e+003,3.982862e+000
3.623647e+003,3.967656e+000
3.625576e+003,3.946103e+000
3.627504e+003,3.896827e+000
3.629433e+003,3.891961e+000
3.631361e+003,3.951242e+000
3.633290e+003,3.977375e+000
3.635218e+003,3.998686e+000
3.637146e+003,4.016739e+000
3.639075e+003,4.030313e+000
3.641004e+003,4.039081e+000
3.642932e+003,4.044521e+000
3.644861e+003,4.037415e+000
3.646789e+003,4.004498e+000
3.648718e+003,3.975209e+000
3.650646e+003,3.992809e+000
3.652574e+003,4.032472e+000
3.654503e+003,4.022323e+000
3.656432e+003,4.008039e+000
3.658360e+003,4.029250e+000
3.660289e+003,4.035009e+000
3.662217e+003,4.031152e+000
3.664146e+003,4.028405e+000
3.666074e+003,4.018570e+000
3.668002e+003,3.984766e+000
3.669931e+003,3.944842e+000
3.671860e+003,3.963151e+000
3.673788e+003,3.936392e+000
3.675717e+003,3.897085e+000
3.677645e+003,3.948277e+000
3.679573e+003,3.971245e+000
3.681502e+003,3.977608e+000
3.683430e+003,3.969640e+000
3.685359e+003,3.950506e+000
3.687288e+003,3.887459e+000
3.689216e+003,3.869172e+000
3.691145e+003,3.889417e+000
3.693073e+003,3.896456e+000
3.695001e+003,3.891508e+000
3.696930e+003,3.881166e+000
3.698858e+003,3.872408e+000
3.700787e+003,3.856277e+000
3.702716e+003,3.864420e+000
3.704644e+003,3.888293e+000
3.706573e+003,3.908171e+000
3.708501e+003,3.922970e+000
3.710429e+003,3.944782e+000
3.712358e+003,3.998438e+000
3.714286e+003,4.075880e+000
3.716215e+003,4.072531e+000
3.718144e+003,4.028547e+000
3.720072e+003,3.984965e+000
3.722000e+003,3.950974e+000
3.723929e+003,3.930174e+000
3.725857e+003,3.919262e+000
3.727786e+003,3.930001e+000
3.729714e+003,3.946514e+000
3.731643e+003,3.947725e+000
3.733572e+003,3.987126e+000
3.735500e+003,4.020378e+000
3.737428e+003,4.099821e+000
3.739357e+003,4.181771e+000
3.741285e+003,4.229087e+000
3.743214e+003,4.191293e+000
3.745142e+003,4.231049e+000
3.747071e+003,4.326317e+000
3.749000e+003,4.313862e+000
3.750928e+003,4.328813e+000
3.752856e+003,4.385463e+000
3.754785e+003,4.466543e+000
3.756713e+003,4.483938e+000
3.758642e+003,4.500664e+000
3.760570e+003,4.521421e+000
3.762499e+003,4.558213e+000
3.764427e+003,4.561615e+000
3.766356e+003,4.581984e+000
3.768284e+003,4.589188e+000
3.770213e+003,4.605206e+000
3.772141e+003,4.641488e+000
3.774070e+003,4.666603e+000
3.775998e+003,4.678175e+000
3.777927e+003,4.682418e+000
3.779855e+003,4.692122e+000
3.781784e+003,4.721662e+000
3.783712e+003,4.732586e+000
3.785641e+003,4.750011e+000
3.787569e+003,4.765539e+000
3.789498e+003,4.782640e+000
3.791426e+003,4.792984e+000
3.793355e+003,4.804166e+000
3.795283e+003,4.797783e+000
3.797212e+003,4.809204e+000
3.799140e+003,4.797386e+000
3.801069e+003,4.759776e+000
3.802997e+003,4.815593e+000
3.804926e+003,4.839489e+000
3.806854e+003,4.819847e+000
3.808783e+003,4.871450e+000
3.810711e+003,4.898651e+000
3.812640e+003,4.903062e+000
3.814568e+003,4.853269e+000
3.816497e+003,4.850677e+000
3.818425e+003,4.898844e+000
3.820354e+003,4.874027e+000
3.822282e+003,4.900137e+000
3.824211e+003,4.946657e+000
3.826139e+003,4.950283e+000
3.828068e+003,4.963530e+000
3.829996e+003,4.960682e+000
3.831925e+003,4.957202e+000
3.833853e+003,4.960125e+000
3.835782e+003,4.932871e+000
3.837710e+003,4.904593e+000
3.839639e+003,4.954303e+000
3.841567e+003,4.984319e+000
3.843496e+003,4.996597e+000
3.845424e+003,5.012096e+000
3.847353e+003,5.024774e+000
3.849281e+003,5.006151e+000
3.851210e+003,4.932702e+000
3.853138e+003,4.850086e+000
3.855067e+003,4.922697e+000
3.856995e+003,5.017269e+000
3.858924e+003,5.032792e+000
3.860852e+003,5.022245e+000
3.862781e+003,5.010614e+000
3.864709e+003,5.000088e+000
3.866638e+003,5.018127e+000
3.868566e+003,4.987336e+000
3.870495e+003,4.983046e+000
3.872423e+003,5.020843e+000
3.874352e+003,5.022335e+000
3.876280e+003,5.041172e+000
3.878209e+003,5.030705e+000
3.880137e+003,5.014478e+000
3.882066e+003,5.026128e+000
3.883994e+003,5.010285e+000
3.885923e+003,4.995585e+000
3.887851e+003,5.032199e+000
3.889780e+003,5.016173e+000
3.891708e+003,5.009768e+000
3.893637e+003,5.032405e+000
3.895565e+003,5.038369e+000
3.897494e+003,5.018398e+000
3.899422e+003,4.996609e+000
3.901351e+003,4.989183e+000
3.903279e+003,4.984286e+000
3.905208e+003,5.001141e+000
3.907136e+003,5.024269e+000
3.909065e+003,5.028010e+000
3.910993e+003,5.025391e+000
3.912922e+003,5.022020e+000
3.914850e+003,5.012160e+000
3.916779e+003,4.997555e+000
3.918707e+003,4.999185e+000
3.920636e+003,5.001525e+000
3.922564e+003,5.000908e+000
3.924493e+003,4.993116e+000
3.926421e+003,4.996129e+000
3.928350e+003,4.992484e+000
3.930278e+003,4.983326e+000
3.932207e+003,4.975502e+000
3.934135e+003,4.980139e+000
3.936064e+003,4.980062e+000
3.937992e+003,4.975485e+000
3.939921e+003,4.968596e+000
3.941849e+003,4.957849e+000
3.943778e+003,4.954135e+000
3.945706e+003,4.952542e+000
3.947635e+003,4.943790e+000
3.949563e+003,4.939445e+000
3.951492e+003,4.937346e+000
3.953420e+003,4.934216e+000
3.955349e+003,4.928249e+000
3.957277e+003,4.922316e+000
3.959206e+003,4.914595e+000
3.961134e+003,4.908117e+000
3.963063e+003,4.902514e+000
3.964991e+003,4.897821e+000
3.966920e+003,4.890546e+000
3.968848e+003,4.883697e+000
3.970777e+003,4.876678e+000
3.972705e+003,4.869796e+000
3.974634e+003,4.862366e+000
3.976562e+003,4.856318e+000
3.978491e+003,4.849511e+000
3.980419e+003,4.842336e+000
3.982348e+003,4.834381e+000
3.984276e+003,4.827872e+000
3.986205e+003,4.820347e+000
3.988133e+003,4.811959e+000
3.990062e+003,4.803176e+000
3.991990e+003,4.796247e+000
3.993919e+003,4.787819e+000
3.995847e+003,4.779807e+000
3.997776e+003,4.772199e+000
3.999704e+003,4.764345e+000
4.001633e+003,0.000000e+000
