3.991989e+002,9.097070e-001
4.011274e+002,9.813309e-001
4.030559e+002,1.055771e+000
4.049844e+002,1.124146e+000
4.069129e+002,1.199857e+000
4.088414e+002,1.276212e+000
4.107699e+002,1.356091e+000
4.126984e+002,1.437349e+000
4.146269e+002,1.527094e+000
4.165554e+002,1.605738e+000
4.184839e+002,1.678645e+000
4.204124e+002,1.771485e+000
4.223409e+002,1.872117e+000
4.242694e+002,1.962178e+000
4.261979e+002,2.058970e+000
4.281264e+002,2.143371e+000
4.300549e+002,2.232760e+000
4.319834e+002,2.317065e+000
4.339119e+002,2.399802e+000
4.358404e+002,2.479116e+000
4.377689e+002,2.564329e+000
4.396974e+002,2.637975e+000
4.416259e+002,2.712874e+000
4.435544e+002,2.780153e+000
4.454829e+002,2.853143e+000
4.474114e+002,2.921685e+000
4.493399e+002,2.984970e+000
4.512684e+002,3.038981e+000
4.531969e+002,3.101755e+000
4.551254e+002,3.159827e+000
4.570539e+002,3.218280e+000
4.589824e+002,3.287202e+000
4.609109e+002,3.353904e+000
4.628394e+002,3.403032e+000
4.647679e+002,3.466423e+000
4.666964e+002,3.516987e+000
4.686249e+002,3.575969e+000
4.705533e+002,3.635886e+000
4.724819e+002,3.694432e+000
4.744103e+002,3.756364e+000
4.763389e+002,3.827718e+000
4.782673e+002,3.888435e+000
4.801959e+002,3.971928e+000
4.821243e+002,4.050088e+000
4.840529e+002,4.123688e+000
4.859813e+002,4.197362e+000
4.879099e+002,4.271333e+000
4.898383e+002,4.324373e+000
4.917668e+002,4.386972e+000
4.936953e+002,4.433738e+000
4.956238e+002,4.478396e+000
4.975523e+002,4.520741e+000
4.994808e+002,4.570241e+000
5.014093e+002,4.605836e+000
5.033378e+002,4.665100e+000
5.052663e+002,4.716214e+000
5.071948e+002,4.771201e+000
5.091233e+002,4.830845e+000
5.110518e+002,4.887011e+000
5.129803e+002,4.932535e+000
5.149088e+002,4.986664e+000
5.168373e+002,5.022646e+000
5.187658e+002,5.077727e+000
5.206943e+002,5.135738e+000
5.226228e+002,5.197047e+000
5.245513e+002,5.251782e+000
5.264798e+002,5.319785e+000
5.284083e+002,5.378592e+000
5.303368e+002,5.449709e+000
5.322653e+002,5.509537e+000
5.341938e+002,5.568246e+000
5.361223e+002,5.620229e+000
5.380508e+002,5.679454e+000
5.399792e+002,5.718948e+000
5.419078e+002,5.775554e+000
5.438363e+002,5.816759e+000
5.457648e+002,5.858094e+000
5.476932e+002,5.896403e+000
5.496218e+002,5.948575e+000
5.515503e+002,5.985236e+000
5.534788e+002,6.033605e+000
5.554072e+002,6.070065e+000
5.573358e+002,6.119516e+000
5.592643e+002,6.166103e+000
5.611927e+002,6.228637e+000
5.631212e+002,6.275529e+000
5.650497e+002,6.339566e+000
5.669783e+002,6.381699e+000
5.689067e+002,6.435620e+000
5.708352e+002,6.476317e+000
5.727637e+002,6.525111e+000
5.746923e+002,6.555418e+000
5.766207e+002,6.603283e+000
5.785492e+002,6.626594e+000
5.804777e+002,6.667130e+000
5.824063e+002,6.696229e+000
5.843347e+002,6.738455e+000
5.862632e+002,6.759704e+000
5.881917e+002,6.807064e+000
5.901202e+002,6.855809e+000
5.920487e+002,6.934601e+000
5.939772e+002,6.992075e+000
5.959057e+002,7.065339e+000
5.978342e+002,7.124930e+000
5.997627e+002,7.218809e+000
6.016912e+002,7.277734e+000
6.036197e+002,7.364138e+000
6.055482e+002,7.420209e+000
6.074767e+002,7.504561e+000
6.094052e+002,7.563462e+000
6.113337e+002,7.664049e+000
6.132622e+002,7.741315e+000
6.151907e+002,7.783591e+000
6.171192e+002,7.639644e+000
6.190477e+002,7.825166e+000
6.209762e+002,8.044228e+000
6.229047e+002,8.129774e+000
6.248332e+002,8.178791e+000
6.267617e+002,8.255818e+000
6.286902e+002,8.297655e+000
6.306187e+002,8.362425e+000
6.325472e+002,8.387642e+000
6.344756e+002,8.428957e+000
6.364042e+002,8.409685e+000
6.383326e+002,8.423352e+000
6.402612e+002,8.363753e+000
6.421896e+002,8.332844e+000
6.441182e+002,8.236977e+000
6.460466e+002,8.151139e+000
6.479752e+002,7.913951e+000
6.499036e+002,7.925490e+000
6.518322e+002,7.971287e+000
6.537606e+002,8.022712e+000
6.556891e+002,8.010615e+000
6.576177e+002,8.139472e+000
6.595461e+002,8.216100e+000
6.614746e+002,8.437118e+000
6.634031e+002,8.648800e+000
6.653317e+002,8.175029e+000
6.672601e+002,4.915199e+000
6.691886e+002,4.955204e+000
6.711171e+002,7.820171e+000
6.730457e+002,8.293928e+000
6.749741e+002,8.236465e+000
6.769026e+002,8.102908e+000
6.788311e+002,8.158508e+000
6.807596e+002,8.145012e+000
6.826881e+002,8.298314e+000
6.846166e+002,8.387468e+000
6.865451e+002,8.597356e+000
6.884736e+002,8.721420e+000
6.904021e+002,8.966787e+000
6.923306e+002,9.163688e+000
6.942591e+002,9.417871e+000
6.961876e+002,9.596195e+000
6.981161e+002,9.828787e+000
7.000446e+002,9.986133e+000
7.019731e+002,1.017605e+001
7.039016e+002,1.028969e+001
7.058301e+002,1.044384e+001
7.077585e+002,1.052207e+001
7.096871e+002,1.064184e+001
7.116156e+002,1.069512e+001
7.135441e+002,1.078955e+001
7.154725e+002,1.082419e+001
7.174011e+002,1.083524e+001
7.193296e+002,1.055637e+001
7.212581e+002,1.064131e+001
7.231865e+002,1.095782e+001
7.251151e+002,1.102234e+001
7.270436e+002,1.102632e+001
7.289720e+002,1.104449e+001
7.309005e+002,1.105632e+001
7.328290e+002,1.107823e+001
7.347576e+002,1.108789e+001
7.366860e+002,1.110988e+001
7.386145e+002,1.111675e+001
7.405430e+002,1.112783e+001
7.424716e+002,1.114587e+001
7.444000e+002,1.118542e+001
7.463285e+002,1.120119e+001
7.482570e+002,1.123218e+001
7.501855e+002,1.124781e+001
7.521140e+002,1.127837e+001
7.540425e+002,1.129670e+001
7.559710e+002,1.133089e+001
7.578995e+002,1.135184e+001
7.598280e+002,1.139178e+001
7.617565e+002,1.142105e+001
7.636850e+002,1.146193e+001
7.656135e+002,1.148827e+001
7.675420e+002,1.152850e+001
7.694705e+002,1.155534e+001
7.713990e+002,1.159454e+001
7.733275e+002,1.162018e+001
7.752560e+002,1.165424e+001
7.771844e+002,1.167519e+001
7.791130e+002,1.171091e+001
7.810415e+002,1.172914e+001
7.829700e+002,1.175341e+001
7.848984e+002,1.176135e+001
7.868270e+002,1.177013e+001
7.887555e+002,1.175716e+001
7.906840e+002,1.175076e+001
7.926124e+002,1.173049e+001
7.945410e+002,1.172405e+001
7.964695e+002,1.170372e+001
7.983979e+002,1.169449e+001
8.003264e+002,1.168026e+001
8.022549e+002,1.168232e+001
8.041835e+002,1.167533e+001
8.061119e+002,1.168210e+001
8.080404e+002,1.168179e+001
8.099689e+002,1.169570e+001
8.118975e+002,1.170041e+001
8.138259e+002,1.171369e+001
8.157545e+002,1.171256e+001
8.176830e+002,1.171984e+001
8.196115e+002,1.171635e+001
8.215399e+002,1.172262e+001
8.234684e+002,1.172798e+001
8.253970e+002,1.175066e+001
8.273254e+002,1.176954e+001
8.292539e+002,1.180099e+001
8.311824e+002,1.182100e+001
8.331110e+002,1.184383e+001
8.350394e+002,1.185645e+001
8.369679e+002,1.187972e+001
8.388964e+002,1.189407e+001
8.408250e+002,1.191890e+001
8.427534e+002,1.193656e+001
8.446819e+002,1.196465e+001
8.466104e+002,1.198958e+001
8.485389e+002,1.202261e+001
8.504674e+002,1.204482e+001
8.523959e+002,1.207596e+001
8.543244e+002,1.210016e+001
8.562529e+002,1.213455e+001
8.581814e+002,1.216230e+001
8.601099e+002,1.219432e+001
8.620384e+002,1.221656e+001
8.639669e+002,1.225113e+001
8.658954e+002,1.227813e+001
8.678239e+002,1.231240e+001
8.697524e+002,1.233965e+001
8.716809e+002,1.237584e+001
8.736094e+002,1.240615e+001
8.755378e+002,1.244700e+001
8.774664e+002,1.248201e+001
8.793949e+002,1.252350e+001
8.813234e+002,1.255847e+001
8.832518e+002,1.259935e+001
8.851804e+002,1.263524e+001
8.871089e+002,1.267879e+001
8.890374e+002,1.271372e+001
8.909658e+002,1.275744e+001
8.928943e+002,1.279601e+001
8.948229e+002,1.284114e+001
8.967513e+002,1.288294e+001
8.986798e+002,1.293348e+001
9.006083e+002,1.297783e+001
9.025369e+002,1.303208e+001
9.044653e+002,1.308157e+001
9.063938e+002,1.313707e+001
9.083223e+002,1.318825e+001
9.102509e+002,1.324580e+001
9.121793e+002,1.329408e+001
9.141078e+002,1.335144e+001
9.160364e+002,1.340248e+001
9.179648e+002,1.346492e+001
9.198933e+002,1.352768e+001
9.218218e+002,1.359632e+001
9.237504e+002,1.365737e+001
9.256788e+002,1.372504e+001
9.276073e+002,1.378530e+001
9.295358e+002,1.385252e+001
9.314644e+002,1.391467e+001
9.333928e+002,1.397798e+001
9.353213e+002,1.403397e+001
9.372498e+002,1.409846e+001
9.391783e+002,1.415376e+001
9.411068e+002,1.421262e+001
9.430353e+002,1.426421e+001
9.449637e+002,1.431912e+001
9.468923e+002,1.436852e+001
9.488208e+002,1.442437e+001
9.507493e+002,1.447430e+001
9.526777e+002,1.453184e+001
9.546063e+002,1.458396e+001
9.565348e+002,1.463952e+001
9.584633e+002,1.469274e+001
9.603917e+002,1.474950e+001
9.623203e+002,1.480319e+001
9.642488e+002,1.487113e+001
9.661772e+002,1.493754e+001
9.681057e+002,1.500978e+001
9.700343e+002,1.507879e+001
9.719628e+002,1.514796e+001
9.738912e+002,1.521428e+001
9.758197e+002,1.529524e+001
9.777483e+002,1.536700e+001
9.796768e+002,1.543445e+001
9.816052e+002,1.549399e+001
9.835337e+002,1.555456e+001
9.854623e+002,1.561143e+001
9.873907e+002,1.567458e+001
9.893192e+002,1.573033e+001
9.912477e+002,1.579120e+001
9.931763e+002,1.585014e+001
9.951047e+002,1.591310e+001
9.970332e+002,1.597075e+001
9.989617e+002,1.602841e+001
1.000890e+003,1.607384e+001
1.002819e+003,1.611866e+001
1.004747e+003,1.615171e+001
1.006676e+003,1.617941e+001
1.008604e+003,1.619750e+001
1.010533e+003,1.621649e+001
1.012461e+003,1.622578e+001
1.014390e+003,1.624186e+001
1.016318e+003,1.625481e+001
1.018247e+003,1.627408e+001
1.020175e+003,1.629492e+001
1.022104e+003,1.632439e+001
1.024032e+003,1.635039e+001
1.025961e+003,1.638461e+001
1.027889e+003,1.641447e+001
1.029818e+003,1.645164e+001
1.031746e+003,1.648998e+001
1.033675e+003,1.653228e+001
1.035603e+003,1.656923e+001
1.037532e+003,1.661136e+001
1.039460e+003,1.663944e+001
1.041389e+003,1.666156e+001
1.043317e+003,1.667338e+001
1.045246e+003,1.668333e+001
1.047174e+003,1.668993e+001
1.049103e+003,1.670527e+001
1.051031e+003,1.671817e+001
1.052960e+003,1.673829e+001
1.054888e+003,1.675710e+001
1.056817e+003,1.677922e+001
1.058745e+003,1.680051e+001
1.060674e+003,1.683311e+001
1.062602e+003,1.686026e+001
1.064531e+003,1.688961e+001
1.066459e+003,1.691444e+001
1.068388e+003,1.693969e+001
1.070316e+003,1.695639e+001
1.072245e+003,1.696643e+001
1.074173e+003,1.696572e+001
1.076102e+003,1.699038e+001
1.078030e+003,1.703223e+001
1.079959e+003,1.707922e+001
1.081887e+003,1.714552e+001
1.083816e+003,1.722047e+001
1.085744e+003,1.726941e+001
1.087673e+003,1.730772e+001
1.089601e+003,1.733345e+001
1.091530e+003,1.735579e+001
1.093458e+003,1.737291e+001
1.095387e+003,1.739602e+001
1.097315e+003,1.742334e+001
1.099244e+003,1.745995e+001
1.101172e+003,1.749255e+001
1.103101e+003,1.753439e+001
1.105029e+003,1.758025e+001
1.106958e+003,1.763343e+001
1.108886e+003,1.769035e+001
1.110815e+003,1.775940e+001
1.112743e+003,1.783320e+001
1.114672e+003,1.792157e+001
1.116600e+003,1.801029e+001
1.118529e+003,1.809501e+001
1.120457e+003,1.817634e+001
1.122386e+003,1.826335e+001
1.124314e+003,1.834573e+001
1.126243e+003,1.843237e+001
1.128171e+003,1.850933e+001
1.130100e+003,1.857766e+001
1.132028e+003,1.863455e+001
1.133957e+003,1.868524e+001
1.135885e+003,1.871917e+001
1.137814e+003,1.874222e+001
1.139742e+003,1.873823e+001
1.141671e+003,1.873139e+001
1.143599e+003,1.876521e+001
1.145528e+003,1.882375e+001
1.147456e+003,1.886261e+001
1.149385e+003,1.890046e+001
1.151313e+003,1.895695e+001
1.153242e+003,1.904857e+001
1.155170e+003,1.913604e+001
1.157099e+003,1.921342e+001
1.159027e+003,1.928347e+001
1.160956e+003,1.936205e+001
1.162884e+003,1.943927e+001
1.164813e+003,1.952699e+001
1.166741e+003,1.962360e+001
1.168670e+003,1.971843e+001
1.170598e+003,1.979557e+001
1.172526e+003,1.986093e+001
1.174455e+003,1.990335e+001
1.176384e+003,1.991578e+001
1.178312e+003,1.985587e+001
1.180240e+003,1.978988e+001
1.182169e+003,1.990559e+001
1.184098e+003,2.008279e+001
1.186026e+003,2.015304e+001
1.187954e+003,2.019152e+001
1.189883e+003,2.021590e+001
1.191812e+003,2.024113e+001
1.193740e+003,2.026458e+001
1.195668e+003,2.029751e+001
1.197597e+003,2.032868e+001
1.199526e+003,2.037495e+001
1.201454e+003,2.041715e+001
1.203382e+003,2.046550e+001
1.205311e+003,2.051299e+001
1.207240e+003,2.056371e+001
1.209168e+003,2.060410e+001
1.211096e+003,2.064725e+001
1.213025e+003,2.067966e+001
1.214953e+003,2.071447e+001
1.216882e+003,2.074416e+001
1.218810e+003,2.077738e+001
1.220739e+003,2.080610e+001
1.222667e+003,2.084221e+001
1.224596e+003,2.087100e+001
1.226524e+003,2.090732e+001
1.228453e+003,2.094053e+001
1.230381e+003,2.097588e+001
1.232310e+003,2.100786e+001
1.234238e+003,2.104588e+001
1.236167e+003,2.107310e+001
1.238095e+003,2.110522e+001
1.240024e+003,2.113247e+001
1.241952e+003,2.115879e+001
1.243881e+003,2.117900e+001
1.245809e+003,2.120211e+001
1.247738e+003,2.122155e+001
1.249666e+003,2.124918e+001
1.251595e+003,2.126276e+001
1.253523e+003,2.126509e+001
1.255452e+003,2.125425e+001
1.257380e+003,2.123256e+001
1.259309e+003,2.118781e+001
1.261237e+003,2.116283e+001
1.263166e+003,2.116245e+001
1.265094e+003,2.120502e+001
1.267023e+003,2.129303e+001
1.268951e+003,2.141276e+001
1.270880e+003,2.150970e+001
1.272808e+003,2.158951e+001
1.274737e+003,2.164420e+001
1.276665e+003,2.169287e+001
1.278594e+003,2.173533e+001
1.280522e+003,2.176934e+001
1.282451e+003,2.179020e+001
1.284379e+003,2.181980e+001
1.286308e+003,2.183132e+001
1.288236e+003,2.183941e+001
1.290165e+003,2.185196e+001
1.292093e+003,2.186263e+001
1.294022e+003,2.186615e+001
1.295950e+003,2.187334e+001
1.297879e+003,2.187519e+001
1.299807e+003,2.188273e+001
1.301736e+003,2.187700e+001
1.303664e+003,2.186659e+001
1.305593e+003,2.186879e+001
1.307521e+003,2.191682e+001
1.309450e+003,2.194343e+001
1.311378e+003,2.195460e+001
1.313307e+003,2.196306e+001
1.315235e+003,2.197978e+001
1.317164e+003,2.198658e+001
1.319092e+003,2.199874e+001
1.321021e+003,2.200948e+001
1.322949e+003,2.202678e+001
1.324878e+003,2.203065e+001
1.326806e+003,2.202807e+001
1.328735e+003,2.203255e+001
1.330663e+003,2.201803e+001
1.332592e+003,2.200908e+001
1.334520e+003,2.206864e+001
1.336449e+003,2.207840e+001
1.338377e+003,2.206292e+001
1.340306e+003,2.205706e+001
1.342234e+003,2.207486e+001
1.344163e+003,2.207790e+001
1.346091e+003,2.207285e+001
1.348020e+003,2.205964e+001
1.349948e+003,2.205700e+001
1.351877e+003,2.204490e+001
1.353805e+003,2.204148e+001
1.355734e+003,2.203806e+001
1.357662e+003,2.204610e+001
1.359591e+003,2.201799e+001
1.361519e+003,2.197390e+001
1.363448e+003,2.197597e+001
1.365376e+003,2.203014e+001
1.367305e+003,2.202544e+001
1.369233e+003,2.202212e+001
1.371162e+003,2.201126e+001
1.373090e+003,2.196650e+001
1.375019e+003,2.194463e+001
1.376947e+003,2.197100e+001
1.378876e+003,2.194747e+001
1.380804e+003,2.189465e+001
1.382733e+003,2.176094e+001
1.384661e+003,2.170694e+001
1.386590e+003,2.172385e+001
1.388518e+003,2.183637e+001
1.390447e+003,2.193420e+001
1.392375e+003,2.190978e+001
1.394304e+003,2.181599e+001
1.396232e+003,2.184624e+001
1.398161e+003,2.183625e+001
1.400089e+003,2.185194e+001
1.402018e+003,2.190446e+001
1.403946e+003,2.187248e+001
1.405875e+003,2.187258e+001
1.407803e+003,2.191029e+001
1.409732e+003,2.191079e+001
1.411660e+003,2.191724e+001
1.413589e+003,2.192371e+001
1.415517e+003,2.190800e+001
1.417446e+003,2.177537e+001
1.419374e+003,2.167119e+001
1.421303e+003,2.184989e+001
1.423231e+003,2.191995e+001
1.425160e+003,2.193222e+001
1.427088e+003,2.195501e+001
1.429017e+003,2.190753e+001
1.430945e+003,2.191359e+001
1.432874e+003,2.193576e+001
1.434802e+003,2.181580e+001
1.436731e+003,2.165164e+001
1.438659e+003,2.182306e+001
1.440588e+003,2.189238e+001
1.442516e+003,2.187555e+001
1.444445e+003,2.183408e+001
1.446373e+003,2.177544e+001
1.448302e+003,2.171268e+001
1.450230e+003,2.174801e+001
1.452159e+003,2.170541e+001
1.454087e+003,2.159934e+001
1.456016e+003,2.122989e+001
1.457944e+003,2.126148e+001
1.459873e+003,2.156327e+001
1.461801e+003,2.164537e+001
1.463730e+003,2.153623e+001
1.465658e+003,2.152145e+001
1.467587e+003,2.162283e+001
1.469515e+003,2.158878e+001
1.471444e+003,2.137523e+001
1.473372e+003,2.131882e+001
1.475301e+003,2.145549e+001
1.477229e+003,2.152267e+001
1.479158e+003,2.158214e+001
1.481086e+003,2.155663e+001
1.483015e+003,2.155983e+001
1.484943e+003,2.151649e+001
1.486872e+003,2.142678e+001
1.488800e+003,2.134211e+001
1.490729e+003,2.134135e+001
1.492657e+003,2.143855e+001
1.494586e+003,2.132390e+001
1.496514e+003,2.116481e+001
1.498443e+003,2.124940e+001
1.500371e+003,2.133443e+001
1.502300e+003,2.136322e+001
1.504228e+003,2.108442e+001
1.506157e+003,2.070410e+001
1.508085e+003,2.089063e+001
1.510014e+003,2.116297e+001
1.511942e+003,2.117105e+001
1.513871e+003,2.117466e+001
1.515799e+003,2.107115e+001
1.517728e+003,2.101786e+001
1.519656e+003,2.086603e+001
1.521585e+003,2.070342e+001
1.523513e+003,2.088606e+001
1.525442e+003,2.089202e+001
1.527370e+003,2.091476e+001
1.529299e+003,2.093649e+001
1.531227e+003,2.087732e+001
1.533156e+003,2.071051e+001
1.535084e+003,2.077179e+001
1.537013e+003,2.064600e+001
1.538941e+003,2.019897e+001
1.540870e+003,2.017915e+001
1.542798e+003,2.040958e+001
1.544727e+003,2.050533e+001
1.546655e+003,2.058715e+001
1.548584e+003,2.056572e+001
1.550512e+003,2.051054e+001
1.552441e+003,2.042668e+001
1.554369e+003,2.028163e+001
1.556298e+003,2.012671e+001
1.558226e+003,1.967824e+001
1.560155e+003,1.974589e+001
1.562083e+003,2.018726e+001
1.564012e+003,2.024671e+001
1.565940e+003,2.020632e+001
1.567869e+003,2.009256e+001
1.569797e+003,1.996867e+001
1.571726e+003,2.004737e+001
1.573654e+003,1.995750e+001
1.575583e+003,1.961593e+001
1.577511e+003,1.970341e+001
1.579440e+003,1.988400e+001
1.581368e+003,1.983237e+001
1.583297e+003,1.978600e+001
1.585225e+003,1.972269e+001
1.587154e+003,1.967356e+001
1.589082e+003,1.960514e+001
1.591010e+003,1.955065e+001
1.592939e+003,1.947726e+001
1.594868e+003,1.941296e+001
1.596796e+003,1.934890e+001
1.598724e+003,1.929219e+001
1.600653e+003,1.921245e+001
1.602582e+003,1.914176e+001
1.604510e+003,1.906507e+001
1.606438e+003,1.898481e+001
1.608367e+003,1.888431e+001
1.610296e+003,1.880969e+001
1.612224e+003,1.873332e+001
1.614152e+003,1.856800e+001
1.616081e+003,1.821370e+001
1.618010e+003,1.820110e+001
1.619938e+003,1.829485e+001
1.621866e+003,1.817872e+001
1.623795e+003,1.811018e+001
1.625724e+003,1.813048e+001
1.627652e+003,1.807135e+001
1.629580e+003,1.803532e+001
1.631509e+003,1.799484e+001
1.633438e+003,1.778165e+001
1.635366e+003,1.750571e+001
1.637294e+003,1.759356e+001
1.639223e+003,1.768053e+001
1.641151e+003,1.762396e+001
1.643080e+003,1.753251e+001
1.645008e+003,1.727711e+001
1.646937e+003,1.715194e+001
1.648865e+003,1.724281e+001
1.650794e+003,1.698731e+001
1.652722e+003,1.649016e+001
1.654651e+003,1.674350e+001
1.656579e+003,1.702877e+001
1.658508e+003,1.700139e+001
1.660436e+003,1.689561e+001
1.662365e+003,1.675189e+001
1.664293e+003,1.673044e+001
1.666222e+003,1.669394e+001
1.668150e+003,1.649650e+001
1.670079e+003,1.638810e+001
1.672007e+003,1.640069e+001
1.673936e+003,1.626678e+001
1.675864e+003,1.615744e+001
1.677793e+003,1.621800e+001
1.679721e+003,1.612715e+001
1.681650e+003,1.597761e+001
1.683578e+003,1.558958e+001
1.685507e+003,1.557417e+001
1.687435e+003,1.577228e+001
1.689364e+003,1.572726e+001
1.691292e+003,1.566093e+001
1.693221e+003,1.552015e+001
1.695149e+003,1.516397e+001
1.697078e+003,1.513394e+001
1.699006e+003,1.500312e+001
1.700935e+003,1.487518e+001
1.702863e+003,1.506504e+001
1.704792e+003,1.496277e+001
1.706720e+003,1.491286e+001
1.708649e+003,1.485695e+001
1.710577e+003,1.479667e+001
1.712506e+003,1.466375e+001
1.714434e+003,1.449583e+001
1.716363e+003,1.423512e+001
1.718291e+003,1.416267e+001
1.720220e+003,1.426618e+001
1.722148e+003,1.422847e+001
1.724077e+003,1.412713e+001
1.726005e+003,1.404721e+001
1.727934e+003,1.393796e+001
1.729862e+003,1.382352e+001
1.731791e+003,1.362576e+001
1.733719e+003,1.336127e+001
1.735648e+003,1.342106e+001
1.737576e+003,1.346536e+001
1.739505e+003,1.332474e+001
1.741433e+003,1.329027e+001
1.743362e+003,1.323141e+001
1.745290e+003,1.316351e+001
1.747219e+003,1.305698e+001
1.749147e+003,1.293411e+001
1.751076e+003,1.279920e+001
1.753004e+003,1.279305e+001
1.754933e+003,1.272727e+001
1.756861e+003,1.260820e+001
1.758790e+003,1.253138e+001
1.760718e+003,1.239614e+001
1.762647e+003,1.229026e+001
1.764575e+003,1.223916e+001
1.766504e+003,1.209555e+001
1.768432e+003,1.195506e+001
1.770361e+003,1.180480e+001
1.772289e+003,1.160885e+001
1.774218e+003,1.154787e+001
1.776146e+003,1.145018e+001
1.778075e+003,1.130181e+001
1.780003e+003,1.117981e+001
1.781932e+003,1.108839e+001
1.783860e+003,1.098886e+001
1.785789e+003,1.089107e+001
1.787717e+003,1.081311e+001
1.789646e+003,1.068344e+001
1.791574e+003,1.052058e+001
1.793503e+003,1.042755e+001
1.795431e+003,1.037621e+001
1.797360e+003,1.025572e+001
1.799288e+003,1.012183e+001
1.801217e+003,9.983044e+000
1.803145e+003,9.867730e+000
1.805074e+003,9.723536e+000
1.807002e+003,9.565621e+000
1.808931e+003,9.372203e+000
1.810859e+003,9.170081e+000
1.812788e+003,8.936993e+000
1.814716e+003,8.640036e+000
1.816645e+003,8.218258e+000
1.818573e+003,7.868848e+000
1.820502e+003,7.676746e+000
1.822430e+003,7.557724e+000
1.824359e+003,7.430995e+000
1.826287e+003,7.319495e+000
1.828216e+003,7.188527e+000
1.830144e+003,7.053826e+000
1.832073e+003,6.946768e+000
1.834001e+003,6.822541e+000
1.835930e+003,6.680827e+000
1.837858e+003,6.545588e+000
1.839787e+003,6.411809e+000
1.841715e+003,6.270763e+000
1.843644e+003,6.106634e+000
1.845572e+003,6.003211e+000
1.847501e+003,5.908052e+000
1.849429e+003,5.797096e+000
1.851358e+003,5.685365e+000
1.853286e+003,5.577754e+000
1.855215e+003,5.473198e+000
1.857143e+003,5.372833e+000
1.859072e+003,5.273195e+000
1.861000e+003,5.178881e+000
1.862929e+003,5.084393e+000
1.864857e+003,4.991786e+000
1.866786e+003,4.889378e+000
1.868714e+003,4.789577e+000
1.870643e+003,4.710917e+000
1.872571e+003,4.634204e+000
1.874500e+003,4.543228e+000
1.876428e+003,4.455819e+000
1.878357e+003,4.364471e+000
1.880285e+003,4.277252e+000
1.882214e+003,4.187110e+000
1.884142e+003,4.100715e+000
1.886071e+003,4.012713e+000
1.887999e+003,3.924259e+000
1.889928e+003,3.835332e+000
1.891856e+003,3.759061e+000
1.893785e+003,3.675003e+000
1.895713e+003,3.594256e+000
1.897642e+003,3.514212e+000
1.899570e+003,3.436302e+000
1.901499e+003,3.354366e+000
1.903427e+003,3.278579e+000
1.905356e+003,3.200304e+000
1.907284e+003,3.125166e+000
1.909213e+003,3.047259e+000
1.911141e+003,2.975862e+000
1.913070e+003,2.901437e+000
1.914998e+003,2.829281e+000
1.916927e+003,2.749119e+000
1.918855e+003,2.684158e+000
1.920784e+003,2.621884e+000
1.922712e+003,2.536330e+000
1.924641e+003,2.436502e+000
1.926569e+003,2.339357e+000
1.928498e+003,2.242566e+000
1.930426e+003,2.151985e+000
1.932355e+003,2.061466e+000
1.934283e+003,1.977671e+000
1.936212e+003,1.894370e+000
1.938140e+003,1.815200e+000
1.940069e+003,1.735513e+000
1.941997e+003,1.660134e+000
1.943926e+003,1.587137e+000
1.945854e+003,1.519237e+000
1.947783e+003,1.449084e+000
1.949711e+003,1.383021e+000
1.951640e+003,1.319079e+000
1.953568e+003,1.257737e+000
1.955497e+003,1.187871e+000
1.957425e+003,1.097882e+000
1.959354e+003,1.004290e+000
1.961282e+003,9.477329e-001
1.963211e+003,9.021990e-001
1.965139e+003,8.625235e-001
1.967068e+003,8.212747e-001
1.968996e+003,7.847431e-001
1.970925e+003,7.467729e-001
1.972853e+003,7.133377e-001
1.974782e+003,6.780670e-001
1.976710e+003,6.539261e-001
1.978639e+003,6.756775e-001
1.980567e+003,7.554784e-001
1.982496e+003,8.174421e-001
1.984424e+003,8.567657e-001
1.986353e+003,8.802302e-001
1.988281e+003,8.990458e-001
1.990210e+003,9.088284e-001
1.992138e+003,9.164039e-001
1.994067e+003,9.173427e-001
1.995995e+003,9.162391e-001
1.997924e+003,9.023860e-001
1.999852e+003,8.794900e-001
2.001781e+003,8.426759e-001
2.003709e+003,7.960136e-001
2.005638e+003,7.328793e-001
2.007566e+003,6.932602e-001
2.009495e+003,6.854181e-001
2.011423e+003,6.840209e-001
2.013352e+003,6.751289e-001
2.015280e+003,6.670032e-001
2.017208e+003,6.553441e-001
2.019137e+003,6.469323e-001
2.021066e+003,6.364699e-001
2.022994e+003,6.298836e-001
2.024922e+003,6.225071e-001
2.026851e+003,6.177527e-001
2.028780e+003,6.121820e-001
2.030708e+003,6.141456e-001
2.032636e+003,6.165715e-001
2.034565e+003,6.332857e-001
2.036494e+003,6.696694e-001
2.038422e+003,7.157350e-001
2.040350e+003,7.553411e-001
2.042279e+003,7.947994e-001
2.044208e+003,8.295546e-001
2.046136e+003,8.679731e-001
2.048064e+003,9.121997e-001
2.049993e+003,1.011222e+000
2.051921e+003,1.141787e+000
2.053850e+003,1.205006e+000
2.055778e+003,1.250247e+000
2.057707e+003,1.299440e+000
2.059635e+003,1.333315e+000
2.061564e+003,1.365908e+000
2.063492e+003,1.395787e+000
2.065421e+003,1.429919e+000
2.067349e+003,1.463550e+000
2.069278e+003,1.501421e+000
2.071206e+003,1.541265e+000
2.073135e+003,1.586467e+000
2.075063e+003,1.631601e+000
2.076992e+003,1.682107e+000
2.078920e+003,1.735007e+000
2.080849e+003,1.789876e+000
2.082777e+003,1.836226e+000
2.084706e+003,1.877021e+000
2.086634e+003,1.905839e+000
2.088563e+003,1.926155e+000
2.090491e+003,1.928144e+000
2.092420e+003,1.908517e+000
2.094348e+003,1.860661e+000
2.096277e+003,1.836860e+000
2.098205e+003,1.847298e+000
2.100134e+003,1.869546e+000
2.102062e+003,1.887785e+000
2.103991e+003,1.906018e+000
2.105919e+003,1.921448e+000
2.107848e+003,1.938553e+000
2.109776e+003,1.954454e+000
2.111705e+003,1.974996e+000
2.113633e+003,1.996910e+000
2.115562e+003,2.011846e+000
2.117490e+003,2.002198e+000
2.119419e+003,1.973103e+000
2.121347e+003,1.930349e+000
2.123276e+003,1.875097e+000
2.125204e+003,1.803920e+000
2.127133e+003,1.718871e+000
2.129061e+003,1.616557e+000
2.130990e+003,1.497143e+000
2.132918e+003,1.357064e+000
2.134847e+003,1.231953e+000
2.136775e+003,1.145978e+000
2.138704e+003,1.080373e+000
2.140632e+003,1.015132e+000
2.142561e+003,9.509149e-001
2.144489e+003,8.859023e-001
2.146418e+003,8.254008e-001
2.148346e+003,7.714782e-001
2.150275e+003,7.238631e-001
2.152203e+003,6.684920e-001
2.154132e+003,6.015201e-001
2.156060e+003,5.214878e-001
2.157989e+003,4.434151e-001
2.159917e+003,4.262325e-001
2.161846e+003,4.781825e-001
2.163774e+003,5.300349e-001
2.165703e+003,5.774528e-001
2.167631e+003,6.235931e-001
2.169560e+003,6.636345e-001
2.171488e+003,6.853595e-001
2.173417e+003,6.939791e-001
2.175345e+003,6.921322e-001
2.177274e+003,7.036660e-001
2.179202e+003,7.147954e-001
2.181131e+003,7.174400e-001
2.183059e+003,7.296298e-001
2.184988e+003,7.609874e-001
2.186916e+003,7.917581e-001
2.188845e+003,8.229812e-001
2.190773e+003,8.516997e-001
2.192702e+003,8.802640e-001
2.194630e+003,9.049348e-001
2.196559e+003,9.299368e-001
2.198487e+003,9.527214e-001
2.200416e+003,9.765417e-001
2.202344e+003,9.975176e-001
2.204273e+003,1.019759e+000
2.206201e+003,1.039889e+000
2.208130e+003,1.061226e+000
2.210058e+003,1.081757e+000
2.211987e+003,1.105065e+000
2.213915e+003,1.126695e+000
2.215844e+003,1.151111e+000
2.217772e+003,1.174753e+000
2.219701e+003,1.201164e+000
2.221629e+003,1.226768e+000
2.223558e+003,1.256309e+000
2.225486e+003,1.285080e+000
2.227415e+003,1.317156e+000
2.229343e+003,1.348655e+000
2.231272e+003,1.382851e+000
2.233200e+003,1.417548e+000
2.235129e+003,1.455366e+000
2.237057e+003,1.492627e+000
2.238986e+003,1.531977e+000
2.240914e+003,1.570584e+000
2.242843e+003,1.611659e+000
2.244771e+003,1.650728e+000
2.246700e+003,1.690827e+000
2.248628e+003,1.727160e+000
2.250557e+003,1.762627e+000
2.252485e+003,1.791177e+000
2.254414e+003,1.820111e+000
2.256342e+003,1.864218e+000
2.258271e+003,1.923608e+000
2.260199e+003,1.977396e+000
2.262128e+003,2.026662e+000
2.264056e+003,2.070954e+000
2.265985e+003,2.120697e+000
2.267913e+003,2.183926e+000
2.269842e+003,2.259964e+000
2.271770e+003,2.339039e+000
2.273699e+003,2.428186e+000
2.275627e+003,2.525038e+000
2.277556e+003,2.636598e+000
2.279484e+003,2.763236e+000
2.281413e+003,2.910872e+000
2.283341e+003,3.064382e+000
2.285270e+003,3.211453e+000
2.287198e+003,3.349973e+000
2.289127e+003,3.480685e+000
2.291055e+003,3.596392e+000
2.292984e+003,3.692407e+000
2.294912e+003,3.768185e+000
2.296841e+003,3.827076e+000
2.298769e+003,3.864514e+000
2.300698e+003,3.884546e+000
2.302626e+003,3.891714e+000
2.304555e+003,3.861002e+000
2.306483e+003,3.775140e+000
2.308412e+003,3.671340e+000
2.310340e+003,3.561416e+000
2.312269e+003,3.473449e+000
2.314197e+003,3.430768e+000
2.316125e+003,3.360148e+000
2.318054e+003,3.185436e+000
2.319983e+003,2.995433e+000
2.321911e+003,2.896929e+000
2.323840e+003,2.957664e+000
2.325768e+003,3.040239e+000
2.327697e+003,2.901492e+000
2.329625e+003,2.685656e+000
2.331553e+003,2.572220e+000
2.333482e+003,2.553304e+000
2.335411e+003,2.477953e+000
2.337339e+003,2.384571e+000
2.339268e+003,2.320022e+000
2.341196e+003,2.275250e+000
2.343125e+003,2.334607e+000
2.345053e+003,2.607643e+000
2.346981e+003,3.435737e+000
2.348910e+003,3.948071e+000
2.350839e+003,3.183398e+000
2.352767e+003,2.335586e+000
2.354696e+003,1.826920e+000
2.356624e+003,1.529348e+000
2.358552e+003,1.367953e+000
2.360481e+003,1.321192e+000
2.362409e+003,1.339602e+000
2.364338e+003,1.423868e+000
2.366267e+003,1.576809e+000
2.368195e+003,1.803853e+000
2.370124e+003,2.111398e+000
2.372052e+003,2.500886e+000
2.373980e+003,2.962676e+000
2.375909e+003,3.488273e+000
2.377838e+003,4.058111e+000
2.379766e+003,4.637455e+000
2.381695e+003,5.151034e+000
2.383623e+003,5.516811e+000
2.385552e+003,5.702130e+000
2.387480e+003,5.743917e+000
2.389408e+003,5.703757e+000
2.391337e+003,5.627021e+000
2.393266e+003,5.538728e+000
2.395194e+003,5.448728e+000
2.397123e+003,5.360400e+000
2.399051e+003,5.273747e+000
2.400979e+003,5.188986e+000
2.402908e+003,5.104025e+000
2.404836e+003,5.016611e+000
2.406765e+003,4.937517e+000
2.408694e+003,4.884774e+000
2.410622e+003,4.845565e+000
2.412551e+003,4.803246e+000
2.414479e+003,4.757874e+000
2.416407e+003,4.711908e+000
2.418336e+003,4.666981e+000
2.420264e+003,4.623850e+000
2.422193e+003,4.582733e+000
2.424122e+003,4.544388e+000
2.426050e+003,4.508253e+000
2.427979e+003,4.475740e+000
2.429907e+003,4.445941e+000
2.431835e+003,4.419520e+000
2.433764e+003,4.395879e+000
2.435692e+003,4.376233e+000
2.437621e+003,4.359688e+000
2.439550e+003,4.346695e+000
2.441478e+003,4.336660e+000
2.443406e+003,4.330315e+000
2.445335e+003,4.326641e+000
2.447263e+003,4.327658e+000
2.449192e+003,4.332331e+000
2.451121e+003,4.342658e+000
2.453049e+003,4.355575e+000
2.454978e+003,4.370923e+000
2.456906e+003,4.384596e+000
2.458834e+003,4.391323e+000
2.460763e+003,4.389958e+000
2.462691e+003,4.385240e+000
2.464620e+003,4.376787e+000
2.466549e+003,4.365949e+000
2.468477e+003,4.353004e+000
2.470406e+003,4.339535e+000
2.472334e+003,4.323565e+000
2.474262e+003,4.308930e+000
2.476191e+003,4.293938e+000
2.478119e+003,4.280596e+000
2.480048e+003,4.266621e+000
2.481977e+003,4.253734e+000
2.483905e+003,4.241670e+000
2.485833e+003,4.232238e+000
2.487762e+003,4.223552e+000
2.489690e+003,4.215621e+000
2.491619e+003,4.208660e+000
2.493547e+003,4.204613e+000
2.495476e+003,4.200718e+000
2.497405e+003,4.196526e+000
2.499333e+003,4.190906e+000
2.501261e+003,4.185223e+000
2.503190e+003,4.178682e+000
2.505118e+003,4.173992e+000
2.507047e+003,4.168556e+000
2.508975e+003,4.164466e+000
2.510904e+003,4.159585e+000
2.512833e+003,4.156044e+000
2.514761e+003,4.152477e+000
2.516689e+003,4.149956e+000
2.518618e+003,4.147843e+000
2.520546e+003,4.147168e+000
2.522475e+003,4.145733e+000
2.524403e+003,4.146365e+000
2.526332e+003,4.147022e+000
2.528260e+003,4.148973e+000
2.530189e+003,4.152157e+000
2.532117e+003,4.156949e+000
2.534046e+003,4.161643e+000
2.535974e+003,4.167552e+000
2.537903e+003,4.174114e+000
2.539831e+003,4.182480e+000
2.541760e+003,4.192501e+000
2.543688e+003,4.204094e+000
2.545617e+003,4.215845e+000
2.547545e+003,4.230629e+000
2.549474e+003,4.246036e+000
2.551402e+003,4.262697e+000
2.553331e+003,4.280711e+000
2.555259e+003,4.301644e+000
2.557188e+003,4.322527e+000
2.559116e+003,4.345800e+000
2.561045e+003,4.371811e+000
2.562973e+003,4.399662e+000
2.564902e+003,4.428957e+000
2.566830e+003,4.460811e+000
2.568759e+003,4.494135e+000
2.570687e+003,4.530266e+000
2.572616e+003,4.567770e+000
2.574544e+003,4.608018e+000
2.576473e+003,4.650555e+000
2.578401e+003,4.696929e+000
2.580330e+003,4.744373e+000
2.582258e+003,4.795236e+000
2.584187e+003,4.848368e+000
2.586115e+003,4.905100e+000
2.588044e+003,4.964477e+000
2.589972e+003,5.027470e+000
2.591901e+003,5.092960e+000
2.593829e+003,5.162881e+000
2.595758e+003,5.236369e+000
2.597686e+003,5.313581e+000
2.599615e+003,5.393842e+000
2.601543e+003,5.479332e+000
2.603472e+003,5.568708e+000
2.605400e+003,5.663232e+000
2.607329e+003,5.762318e+000
2.609257e+003,5.866179e+000
2.611186e+003,5.974629e+000
2.613114e+003,6.088512e+000
2.615043e+003,6.207097e+000
2.616971e+003,6.331538e+000
2.618900e+003,6.461708e+000
2.620828e+003,6.598621e+000
2.622757e+003,6.740721e+000
2.624685e+003,6.889611e+000
2.626614e+003,7.044490e+000
2.628542e+003,7.206007e+000
2.630471e+003,7.374269e+000
2.632399e+003,7.550095e+000
2.634328e+003,7.731234e+000
2.636256e+003,7.918653e+000
2.638185e+003,8.112509e+000
2.640113e+003,8.312858e+000
2.642042e+003,8.517627e+000
2.643970e+003,8.727599e+000
2.645899e+003,8.941368e+000
2.647827e+003,9.159050e+000
2.649756e+003,9.376863e+000
2.651684e+003,9.592995e+000
2.653613e+003,9.804877e+000
2.655541e+003,1.001051e+001
2.657470e+003,1.020339e+001
2.659398e+003,1.037714e+001
2.661327e+003,1.052153e+001
2.663255e+003,1.062317e+001
2.665184e+003,1.067433e+001
2.667112e+003,1.068881e+001
2.669041e+003,1.068657e+001
2.670969e+003,1.067845e+001
2.672898e+003,1.066709e+001
2.674826e+003,1.065293e+001
2.676755e+003,1.063661e+001
2.678683e+003,1.062000e+001
2.680612e+003,1.060213e+001
2.682540e+003,1.058384e+001
2.684469e+003,1.056449e+001
2.686397e+003,1.054561e+001
2.688326e+003,1.052617e+001
2.690254e+003,1.050658e+001
2.692183e+003,1.048689e+001
2.694111e+003,1.046759e+001
2.696040e+003,1.044820e+001
2.697968e+003,1.042900e+001
2.699897e+003,1.041012e+001
2.701825e+003,1.039154e+001
2.703754e+003,1.037187e+001
2.705682e+003,1.035230e+001
2.707611e+003,1.033353e+001
2.709539e+003,1.031491e+001
2.711468e+003,1.029545e+001
2.713396e+003,1.027674e+001
2.715325e+003,1.025794e+001
2.717253e+003,1.023895e+001
2.719182e+003,1.021971e+001
2.721110e+003,1.020165e+001
2.723039e+003,1.018362e+001
2.724967e+003,1.016522e+001
2.726896e+003,1.014526e+001
2.728824e+003,1.012651e+001
2.730753e+003,1.010881e+001
2.732681e+003,1.009079e+001
2.734610e+003,1.007258e+001
2.736538e+003,1.005449e+001
2.738467e+003,1.003545e+001
2.740395e+003,1.001607e+001
2.742324e+003,9.997099e+000
2.744252e+003,9.979590e+000
2.746181e+003,9.961819e+000
2.748109e+003,9.942929e+000
2.750038e+003,9.923091e+000
2.751966e+003,9.903753e+000
2.753895e+003,9.884705e+000
2.755823e+003,9.865741e+000
2.757752e+003,9.847151e+000
2.759680e+003,9.828287e+000
2.761609e+003,9.808091e+000
2.763537e+003,9.788690e+000
2.765466e+003,9.769544e+000
2.767394e+003,9.751037e+000
2.769323e+003,9.731799e+000
2.771251e+003,9.712574e+000
2.773180e+003,9.693816e+000
2.775108e+003,9.674953e+000
2.777037e+003,9.653308e+000
2.778965e+003,9.633784e+000
2.780894e+003,9.614522e+000
2.782822e+003,9.594989e+000
2.784750e+003,9.575994e+000
2.786679e+003,9.557283e+000
2.788608e+003,9.538383e+000
2.790536e+003,9.518546e+000
2.792465e+003,9.498055e+000
2.794393e+003,9.478931e+000
2.796322e+003,9.459348e+000
2.798250e+003,9.439558e+000
2.800178e+003,9.418723e+000
2.802107e+003,9.398497e+000
2.804036e+003,9.378274e+000
2.805964e+003,9.358631e+000
2.807893e+003,9.338891e+000
2.809821e+003,9.319652e+000
2.811750e+003,9.299212e+000
2.813678e+003,9.278493e+000
2.815606e+003,9.258004e+000
2.817535e+003,9.237485e+000
2.819464e+003,9.216602e+000
2.821392e+003,9.196030e+000
2.823321e+003,9.174682e+000
2.825249e+003,9.153885e+000
2.827177e+003,9.132010e+000
2.829106e+003,9.110359e+000
2.831034e+003,9.087721e+000
2.832963e+003,9.065156e+000
2.834892e+003,9.042926e+000
2.836820e+003,9.021029e+000
2.838749e+003,8.997332e+000
2.840677e+003,8.967776e+000
2.842605e+003,8.938979e+000
2.844534e+003,8.909403e+000
2.846462e+003,8.878731e+000
2.848391e+003,8.849070e+000
2.850320e+003,8.822656e+000
2.852248e+003,8.799603e+000
2.854177e+003,8.777722e+000
2.856105e+003,8.756543e+000
2.858033e+003,8.737480e+000
2.859962e+003,8.718466e+000
2.861890e+003,8.697885e+000
2.863819e+003,8.677878e+000
2.865748e+003,8.656878e+000
2.867676e+003,8.634379e+000
2.869604e+003,8.611729e+000
2.871533e+003,8.591809e+000
2.873461e+003,8.571129e+000
2.875390e+003,8.547009e+000
2.877319e+003,8.524322e+000
2.879247e+003,8.502425e+000
2.881176e+003,8.481679e+000
2.883104e+003,8.460644e+000
2.885032e+003,8.438190e+000
2.886961e+003,8.415886e+000
2.888889e+003,8.393312e+000
2.890818e+003,8.370151e+000
2.892747e+003,8.346346e+000
2.894675e+003,8.321534e+000
2.896604e+003,8.297474e+000
2.898532e+003,8.273069e+000
2.900460e+003,8.248279e+000
2.902389e+003,8.223637e+000
2.904317e+003,8.197653e+000
2.906246e+003,8.170737e+000
2.908175e+003,8.145314e+000
2.910103e+003,8.118573e+000
2.912031e+003,8.092558e+000
2.913960e+003,8.063530e+000
2.915888e+003,8.029343e+000
2.917817e+003,8.001720e+000
2.919745e+003,7.977710e+000
2.921674e+003,7.953416e+000
2.923603e+003,7.929399e+000
2.925531e+003,7.905307e+000
2.927459e+003,7.885354e+000
2.929388e+003,7.872506e+000
2.931316e+003,7.856836e+000
2.933245e+003,7.841014e+000
2.935173e+003,7.823666e+000
2.937102e+003,7.803386e+000
2.939031e+003,7.791097e+000
2.940959e+003,7.781412e+000
2.942887e+003,7.768051e+000
2.944816e+003,7.750879e+000
2.946744e+003,7.726182e+000
2.948673e+003,7.703446e+000
2.950601e+003,7.685231e+000
2.952530e+003,7.663272e+000
2.954458e+003,7.637301e+000
2.956387e+003,7.607630e+000
2.958315e+003,7.578686e+000
2.960244e+003,7.560820e+000
2.962172e+003,7.541002e+000
2.964101e+003,7.520652e+000
2.966029e+003,7.502772e+000
2.967958e+003,7.488772e+000
2.969886e+003,7.483103e+000
2.971815e+003,7.478004e+000
2.973743e+003,7.468548e+000
2.975672e+003,7.456613e+000
2.977600e+003,7.440207e+000
2.979529e+003,7.427968e+000
2.981457e+003,7.416713e+000
2.983386e+003,7.401190e+000
2.985314e+003,7.384429e+000
2.987243e+003,7.364741e+000
2.989171e+003,7.346687e+000
2.991100e+003,7.335829e+000
2.993028e+003,7.318069e+000
2.994957e+003,7.296344e+000
2.996885e+003,7.276964e+000
2.998814e+003,7.257253e+000
3.000742e+003,7.238122e+000
3.002671e+003,7.219385e+000
3.004599e+003,7.198593e+000
3.006528e+003,7.178534e+000
3.008456e+003,7.158977e+000
3.010385e+003,7.141148e+000
3.012313e+003,7.117309e+000
3.014242e+003,7.085386e+000
3.016170e+003,7.045988e+000
3.018099e+003,7.033530e+000
3.020027e+003,7.038794e+000
3.021956e+003,7.025835e+000
3.023884e+003,7.008245e+000
3.025813e+003,6.988144e+000
3.027741e+003,6.967994e+000
3.029670e+003,6.949652e+000
3.031598e+003,6.932714e+000
3.033527e+003,6.916251e+000
3.035455e+003,6.897462e+000
3.037384e+003,6.877268e+000
3.039312e+003,6.860939e+000
3.041241e+003,6.848042e+000
3.043169e+003,6.830848e+000
3.045098e+003,6.810257e+000
3.047026e+003,6.788495e+000
3.048955e+003,6.771633e+000
3.050883e+003,6.757897e+000
3.052812e+003,6.739876e+000
3.054740e+003,6.721445e+000
3.056669e+003,6.697553e+000
3.058597e+003,6.681865e+000
3.060526e+003,6.670829e+000
3.062454e+003,6.654969e+000
3.064383e+003,6.636389e+000
3.066311e+003,6.613849e+000
3.068240e+003,6.599062e+000
3.070168e+003,6.586679e+000
3.072097e+003,6.569920e+000
3.074025e+003,6.551957e+000
3.075954e+003,6.531804e+000
3.077882e+003,6.522103e+000
3.079811e+003,6.508264e+000
3.081739e+003,6.489620e+000
3.083668e+003,6.468093e+000
3.085596e+003,6.441731e+000
3.087525e+003,6.430469e+000
3.089453e+003,6.419524e+000
3.091382e+003,6.401731e+000
3.093310e+003,6.378699e+000
3.095239e+003,6.356821e+000
3.097167e+003,6.347393e+000
3.099096e+003,6.333024e+000
3.101024e+003,6.315229e+000
3.102953e+003,6.293113e+000
3.104881e+003,6.275706e+000
3.106810e+003,6.266258e+000
3.108738e+003,6.251674e+000
3.110667e+003,6.232246e+000
3.112595e+003,6.211330e+000
3.114524e+003,6.199623e+000
3.116452e+003,6.190493e+000
3.118381e+003,6.174120e+000
3.120309e+003,6.153660e+000
3.122238e+003,6.124809e+000
3.124166e+003,6.108991e+000
3.126095e+003,6.101081e+000
3.128023e+003,6.090960e+000
3.129952e+003,6.074858e+000
3.131880e+003,6.057952e+000
3.133809e+003,6.044555e+000
3.135737e+003,6.031004e+000
3.137666e+003,6.016728e+000
3.139594e+003,6.000353e+000
3.141523e+003,5.983878e+000
3.143451e+003,5.969634e+000
3.145380e+003,5.954278e+000
3.147308e+003,5.938205e+000
3.149237e+003,5.923577e+000
3.151165e+003,5.914566e+000
3.153094e+003,5.901011e+000
3.155022e+003,5.884341e+000
3.156951e+003,5.868908e+000
3.158879e+003,5.855087e+000
3.160808e+003,5.841842e+000
3.162736e+003,5.828525e+000
3.164665e+003,5.815536e+000
3.166593e+003,5.802788e+000
3.168522e+003,5.789979e+000
3.170450e+003,5.776236e+000
3.172379e+003,5.762517e+000
3.174307e+003,5.749460e+000
3.176236e+003,5.736653e+000
3.178164e+003,5.724246e+000
3.180093e+003,5.712554e+000
3.182021e+003,5.699910e+000
3.183950e+003,5.687073e+000
3.185878e+003,5.676030e+000
3.187807e+003,5.665137e+000
3.189735e+003,5.653959e+000
3.191664e+003,5.642531e+000
3.193592e+003,5.631793e+000
3.195521e+003,5.621239e+000
3.197449e+003,5.610254e+000
3.199378e+003,5.599875e+000
3.201306e+003,5.589833e+000
3.203235e+003,5.579619e+000
3.205163e+003,5.570650e+000
3.207092e+003,5.562250e+000
3.209020e+003,5.553798e+000
3.210948e+003,5.546275e+000
3.212877e+003,5.539152e+000
3.214806e+003,5.532550e+000
3.216734e+003,5.526221e+000
3.218663e+003,5.519073e+000
3.220591e+003,5.514064e+000
3.222520e+003,5.508247e+000
3.224448e+003,5.502554e+000
3.226376e+003,5.497027e+000
3.228305e+003,5.491233e+000
3.230234e+003,5.486865e+000
3.232162e+003,5.485465e+000
3.234091e+003,5.480284e+000
3.236019e+003,5.472629e+000
3.237948e+003,5.467609e+000
3.239876e+003,5.463855e+000
3.241804e+003,5.459695e+000
3.243733e+003,5.455475e+000
3.245662e+003,5.453752e+000
3.247590e+003,5.452215e+000
3.249519e+003,5.448853e+000
3.251447e+003,5.446210e+000
3.253375e+003,5.444380e+000
3.255304e+003,5.444133e+000
3.257232e+003,5.442976e+000
3.259161e+003,5.441968e+000
3.261090e+003,5.441174e+000
3.263018e+003,5.441836e+000
3.264947e+003,5.442596e+000
3.266875e+003,5.443960e+000
3.268803e+003,5.447007e+000
3.270732e+003,5.449762e+000
3.272660e+003,5.448567e+000
3.274589e+003,5.448596e+000
3.276518e+003,5.448984e+000
3.278446e+003,5.449781e+000
3.280375e+003,5.451025e+000
3.282303e+003,5.452003e+000
3.284231e+003,5.452251e+000
3.286160e+003,5.453076e+000
3.288088e+003,5.453410e+000
3.290017e+003,5.455469e+000
3.291946e+003,5.456591e+000
3.293874e+003,5.455935e+000
3.295802e+003,5.454446e+000
3.297731e+003,5.453095e+000
3.299659e+003,5.452009e+000
3.301588e+003,5.452018e+000
3.303516e+003,5.455272e+000
3.305445e+003,5.457763e+000
3.307374e+003,5.453698e+000
3.309302e+003,5.449633e+000
3.311230e+003,5.447381e+000
3.313159e+003,5.446068e+000
3.315087e+003,5.445920e+000
3.317016e+003,5.445015e+000
3.318944e+003,5.442347e+000
3.320873e+003,5.439551e+000
3.322802e+003,5.437454e+000
3.324730e+003,5.437646e+000
3.326658e+003,5.436582e+000
3.328587e+003,5.434828e+000
3.330515e+003,5.433188e+000
3.332444e+003,5.430781e+000
3.334372e+003,5.427644e+000
3.336301e+003,5.425958e+000
3.338229e+003,5.424593e+000
3.340158e+003,5.421112e+000
3.342086e+003,5.418216e+000
3.344015e+003,5.415070e+000
3.345943e+003,5.411679e+000
3.347872e+003,5.409609e+000
3.349800e+003,5.407997e+000
3.351729e+003,5.403422e+000
3.353657e+003,5.398023e+000
3.355586e+003,5.394427e+000
3.357514e+003,5.390853e+000
3.359443e+003,5.387817e+000
3.361371e+003,5.383336e+000
3.363300e+003,5.379449e+000
3.365229e+003,5.376006e+000
3.367157e+003,5.373002e+000
3.369085e+003,5.369384e+000
3.371014e+003,5.361660e+000
3.372942e+003,5.353938e+000
3.374871e+003,5.348622e+000
3.376799e+003,5.342482e+000
3.378728e+003,5.336556e+000
3.380656e+003,5.329409e+000
3.382585e+003,5.322248e+000
3.384513e+003,5.313910e+000
3.386442e+003,5.306297e+000
3.388370e+003,5.299259e+000
3.390299e+003,5.293906e+000
3.392227e+003,5.284290e+000
3.394156e+003,5.272964e+000
3.396084e+003,5.262803e+000
3.398013e+003,5.255476e+000
3.399941e+003,5.248902e+000
3.401870e+003,5.237223e+000
3.403798e+003,5.223875e+000
3.405727e+003,5.213490e+000
3.407655e+003,5.202975e+000
3.409584e+003,5.191644e+000
3.411512e+003,5.180039e+000
3.413441e+003,5.167984e+000
3.415369e+003,5.155301e+000
3.417298e+003,5.143167e+000
3.419226e+003,5.128223e+000
3.421155e+003,5.114429e+000
3.423083e+003,5.100949e+000
3.425012e+003,5.087019e+000
3.426940e+003,5.072736e+000
3.428869e+003,5.058347e+000
3.430797e+003,5.042195e+000
3.432726e+003,5.028436e+000
3.434654e+003,5.015409e+000
3.436583e+003,5.000669e+000
3.438511e+003,4.986586e+000
3.440440e+003,4.974201e+000
3.442368e+003,4.962704e+000
3.444297e+003,4.953345e+000
3.446225e+003,4.942749e+000
3.448154e+003,4.935266e+000
3.450082e+003,4.928573e+000
3.452011e+003,4.919867e+000
3.453939e+003,4.910381e+000
3.455868e+003,4.901670e+000
3.457796e+003,4.892963e+000
3.459725e+003,4.883883e+000
3.461653e+003,4.872847e+000
3.463582e+003,4.863438e+000
3.465510e+003,4.855129e+000
3.467439e+003,4.848179e+000
3.469367e+003,4.839061e+000
3.471296e+003,4.828132e+000
3.473224e+003,4.819064e+000
3.475153e+003,4.812217e+000
3.477081e+003,4.805197e+000
3.479010e+003,4.797212e+000
3.480938e+003,4.788076e+000
3.482867e+003,4.782141e+000
3.484795e+003,4.777718e+000
3.486724e+003,4.771553e+000
3.488652e+003,4.765491e+000
3.490581e+003,4.762030e+000
3.492509e+003,4.757790e+000
3.494438e+003,4.752513e+000
3.496366e+003,4.746506e+000
3.498295e+003,4.742691e+000
3.500223e+003,4.737182e+000
3.502152e+003,4.729743e+000
3.504080e+003,4.724307e+000
3.506009e+003,4.722632e+000
3.507937e+003,4.716406e+000
3.509866e+003,4.710607e+000
3.511794e+003,4.707205e+000
3.513723e+003,4.702657e+000
3.515651e+003,4.696809e+000
3.517580e+003,4.690542e+000
3.519508e+003,4.683550e+000
3.521437e+003,4.675571e+000
3.523365e+003,4.666729e+000
3.525294e+003,4.660236e+000
3.527222e+003,4.651742e+000
3.529151e+003,4.644806e+000
3.531079e+003,4.638072e+000
3.533008e+003,4.630027e+000
3.534936e+003,4.618079e+000
3.536865e+003,4.608006e+000
3.538793e+003,4.598472e+000
3.540722e+003,4.588389e+000
3.542650e+003,4.573625e+000
3.544579e+003,4.557016e+000
3.546507e+003,4.543342e+000
3.548436e+003,4.535490e+000
3.550364e+003,4.521485e+000
3.552293e+003,4.504902e+000
3.554221e+003,4.493619e+000
3.556150e+003,4.480126e+000
3.558078e+003,4.462366e+000
3.560007e+003,4.444635e+000
3.561935e+003,4.426271e+000
3.563864e+003,4.403493e+000
3.565792e+003,4.371460e+000
3.567721e+003,4.351398e+000
3.569649e+003,4.349110e+000
3.571578e+003,4.337344e+000
3.573506e+003,4.316926e+000
3.575435e+003,4.296736e+000
3.577363e+003,4.274899e+000
3.579292e+003,4.250925e+000
3.581220e+003,4.225141e+000
3.583149e+003,4.195921e+000
3.585077e+003,4.154150e+000
3.587006e+003,4.109162e+000
3.588934e+003,4.086987e+000
3.590863e+003,4.075056e+000
3.592791e+003,4.046311e+000
3.594720e+003,4.020248e+000
3.596648e+003,4.003428e+000
3.598577e+003,3.991001e+000
3.600505e+003,3.979003e+000
3.602434e+003,3.979225e+000
3.604362e+003,3.982044e+000
3.606291e+003,3.981991e+000
3.608219e+003,3.983308e+000
3.610148e+003,4.012762e+000
3.612076e+003,4.030701e+000
3.614005e+003,4.012450e+000
3.615933e+003,3.966941e+000
3.617862e+003,3.906783e+000
3.619790e+003,3.864761e+000
3.621719e+003,3.851999e+000
3.623647e+003,3.835776e+000
3.625576e+003,3.815214e+000
3.627504e+003,3.770861e+000
3.629433e+003,3.768095e+000
3.631361e+003,3.823893e+000
3.633290e+003,3.850542e+000
3.635218e+003,3.872785e+000
3.637146e+003,3.892635e+000
3.639075e+003,3.907899e+000
3.641004e+003,3.917550e+000
3.642932e+003,3.922852e+000
3.644861e+003,3.918072e+000
3.646789e+003,3.889561e+000
3.648718e+003,3.863500e+000
3.650646e+003,3.879410e+000
3.652574e+003,3.915380e+000
3.654503e+003,3.906704e+000
3.656432e+003,3.894300e+000
3.658360e+003,3.913226e+000
3.660289e+003,3.917498e+000
3.662217e+003,3.914041e+000
3.664146e+003,3.911426e+000
3.666074e+003,3.902081e+000
3.668002e+003,3.870581e+000
3.669931e+003,3.832951e+000
3.671860e+003,3.848532e+000
3.673788e+003,3.822784e+000
3.675717e+003,3.786612e+000
3.677645e+003,3.833764e+000
3.679573e+003,3.853551e+000
3.681502e+003,3.857047e+000
3.683430e+003,3.846840e+000
3.685359e+003,3.827963e+000
3.687288e+003,3.770091e+000
3.689216e+003,3.751260e+000
3.691145e+003,3.766463e+000
3.693073e+003,3.771277e+000
3.695001e+003,3.764946e+000
3.696930e+003,3.752591e+000
3.698858e+003,3.743442e+000
3.700787e+003,3.728426e+000
3.702716e+003,3.736478e+000
3.704644e+003,3.758729e+000
3.706573e+003,3.778637e+000
3.708501e+003,3.797214e+000
3.710429e+003,3.823881e+000
3.712358e+003,3.880025e+000
3.714286e+003,3.955323e+000
3.716215e+003,3.950397e+000
3.718144e+003,3.903317e+000
3.720072e+003,3.856300e+000
3.722000e+003,3.820794e+000
3.723929e+003,3.798116e+000
3.725857e+003,3.786224e+000
3.727786e+003,3.796016e+000
3.729714e+003,3.812715e+000
3.731643e+003,3.817128e+000
3.733572e+003,3.858403e+000
3.735500e+003,3.894871e+000
3.737428e+003,3.973258e+000
3.739357e+003,4.054060e+000
3.741285e+003,4.103135e+000
3.743214e+003,4.074351e+000
3.745142e+003,4.115182e+000
3.747071e+003,4.205273e+000
3.749000e+003,4.196955e+000
3.750928e+003,4.212950e+000
3.752856e+003,4.266503e+000
3.754785e+003,4.341563e+000
3.756713e+003,4.359270e+000
3.758642e+003,4.375586e+000
3.760570e+003,4.395160e+000
3.762499e+003,4.429056e+000
3.764427e+003,4.433412e+000
3.766356e+003,4.452758e+000
3.768284e+003,4.459934e+000
3.770213e+003,4.474830e+000
3.772141e+003,4.507483e+000
3.774070e+003,4.530462e+000
3.775998e+003,4.542395e+000
3.777927e+003,4.548106e+000
3.779855e+003,4.557443e+000
3.781784e+003,4.584550e+000
3.783712e+003,4.594822e+000
3.785641e+003,4.611562e+000
3.787569e+003,4.626323e+000
3.789498e+003,4.641862e+000
3.791426e+003,4.652301e+000
3.793355e+003,4.662203e+000
3.795283e+003,4.656871e+000
3.797212e+003,4.669534e+000
3.799140e+003,4.658349e+000
3.801069e+003,4.624012e+000
3.802997e+003,4.675518e+000
3.804926e+003,4.697430e+000
3.806854e+003,4.680253e+000
3.808783e+003,4.727050e+000
3.810711e+003,4.751525e+000
3.812640e+003,4.756277e+000
3.814568e+003,4.711340e+000
3.816497e+003,4.709397e+000
3.818425e+003,4.754023e+000
3.820354e+003,4.731561e+000
3.822282e+003,4.755332e+000
3.824211e+003,4.797509e+000
3.826139e+003,4.801116e+000
3.828068e+003,4.814290e+000
3.829996e+003,4.812668e+000
3.831925e+003,4.810113e+000
3.833853e+003,4.811782e+000
3.835782e+003,4.785910e+000
3.837710e+003,4.761063e+000
3.839639e+003,4.807291e+000
3.841567e+003,4.834914e+000
3.843496e+003,4.846382e+000
3.845424e+003,4.860260e+000
3.847353e+003,4.871480e+000
3.849281e+003,4.853944e+000
3.851210e+003,4.786978e+000
3.853138e+003,4.711477e+000
3.855067e+003,4.778127e+000
3.856995e+003,4.864590e+000
3.858924e+003,4.878413e+000
3.860852e+003,4.868751e+000
3.862781e+003,4.858342e+000
3.864709e+003,4.849174e+000
3.866638e+003,4.865467e+000
3.868566e+003,4.836540e+000
3.870495e+003,4.832791e+000
3.872423e+003,4.867179e+000
3.874352e+003,4.867918e+000
3.876280e+003,4.885022e+000
3.878209e+003,4.875561e+000
3.880137e+003,4.861733e+000
3.882066e+003,4.872432e+000
3.883994e+003,4.857352e+000
3.885923e+003,4.844122e+000
3.887851e+003,4.877252e+000
3.889780e+003,4.861983e+000
3.891708e+003,4.854789e+000
3.893637e+003,4.874742e+000
3.895565e+003,4.880529e+000
3.897494e+003,4.862315e+000
3.899422e+003,4.842344e+000
3.901351e+003,4.835605e+000
3.903279e+003,4.831140e+000
3.905208e+003,4.845931e+000
3.907136e+003,4.866709e+000
3.909065e+003,4.870197e+000
3.910993e+003,4.868031e+000
3.912922e+003,4.864278e+000
3.914850e+003,4.854590e+000
3.916779e+003,4.841113e+000
3.918707e+003,4.842449e+000
3.920636e+003,4.844723e+000
3.922564e+003,4.844147e+000
3.924493e+003,4.836357e+000
3.926421e+003,4.837593e+000
3.928350e+003,4.834152e+000
3.930278e+003,4.825684e+000
3.932207e+003,4.818586e+000
3.934135e+003,4.822254e+000
3.936064e+003,4.821146e+000
3.937992e+003,4.816930e+000
3.939921e+003,4.810552e+000
3.941849e+003,4.800601e+000
3.943778e+003,4.797509e+000
3.945706e+003,4.795536e+000
3.947635e+003,4.786829e+000
3.949563e+003,4.782988e+000
3.951492e+003,4.780400e+000
3.953420e+003,4.776574e+000
3.955349e+003,4.770026e+000
3.957277e+003,4.764451e+000
3.959206e+003,4.758187e+000
3.961134e+003,4.751488e+000
3.963063e+003,4.745464e+000
3.964991e+003,4.740802e+000
3.966920e+003,4.733584e+000
3.968848e+003,4.726678e+000
3.970777e+003,4.719214e+000
3.972705e+003,4.712932e+000
3.974634e+003,4.705568e+000
3.976562e+003,4.699662e+000
3.978491e+003,4.693357e+000
3.980419e+003,4.686329e+000
3.982348e+003,4.678644e+000
3.984276e+003,4.671907e+000
3.986205e+003,4.664723e+000
3.988133e+003,4.657064e+000
3.990062e+003,4.648321e+000
3.991990e+003,4.641090e+000
3.993919e+003,4.633080e+000
3.995847e+003,4.625861e+000
3.997776e+003,4.617878e+000
3.999704e+003,4.610482e+000
4.001633e+003,0.000000e+000
