3.991989e+002,9.116829e-001
4.011274e+002,9.837601e-001
4.030559e+002,1.062946e+000
4.049844e+002,1.132272e+000
4.069129e+002,1.205702e+000
4.088414e+002,1.281237e+000
4.107699e+002,1.356793e+000
4.126984e+002,1.441782e+000
4.146269e+002,1.527873e+000
4.165554e+002,1.601614e+000
4.184839e+002,1.665796e+000
4.204124e+002,1.759061e+000
4.223409e+002,1.860015e+000
4.242694e+002,1.953563e+000
4.261979e+002,2.049512e+000
4.281264e+002,2.133085e+000
4.300549e+002,2.224013e+000
4.319834e+002,2.308840e+000
4.339119e+002,2.391566e+000
4.358404e+002,2.472120e+000
4.377689e+002,2.554389e+000
4.396974e+002,2.629412e+000
4.416259e+002,2.704639e+000
4.435544e+002,2.770868e+000
4.454829e+002,2.838902e+000
4.474114e+002,2.907869e+000
4.493399e+002,2.977795e+000
4.512684e+002,3.031748e+000
4.531969e+002,3.093078e+000
4.551254e+002,3.150774e+000
4.570539e+002,3.201037e+000
4.589824e+002,3.268714e+000
4.609109e+002,3.340229e+000
4.628394e+002,3.395138e+000
4.647679e+002,3.460978e+000
4.666964e+002,3.509306e+000
4.686249e+002,3.570406e+000
4.705533e+002,3.625107e+000
4.724819e+002,3.677434e+000
4.744103e+002,3.748432e+000
4.763389e+002,3.820533e+000
4.782673e+002,3.880026e+000
4.801959e+002,3.963601e+000
4.821243e+002,4.042128e+000
4.840529e+002,4.115785e+000
4.859813e+002,4.189808e+000
4.879099e+002,4.264360e+000
4.898383e+002,4.317034e+000
4.917668e+002,4.377474e+000
4.936953e+002,4.426128e+000
4.956238e+002,4.471027e+000
4.975523e+002,4.512386e+000
4.994808e+002,4.556773e+000
5.014093e+002,4.591147e+000
5.033378e+002,4.653820e+000
5.052663e+002,4.707767e+000
5.071948e+002,4.761332e+000
5.091233e+002,4.817915e+000
5.110518e+002,4.876204e+000
5.129803e+002,4.921861e+000
5.149088e+002,4.972612e+000
5.168373e+002,5.006255e+000
5.187658e+002,5.061531e+000
5.206943e+002,5.121822e+000
5.226228e+002,5.183727e+000
5.245513e+002,5.234499e+000
5.264798e+002,5.298517e+000
5.284083e+002,5.360610e+000
5.303368e+002,5.433820e+000
5.322653e+002,5.497873e+000
5.341938e+002,5.559366e+000
5.361223e+002,5.608878e+000
5.380508e+002,5.665149e+000
5.399792e+002,5.704865e+000
5.419078e+002,5.758770e+000
5.438363e+002,5.800603e+000
5.457648e+002,5.841720e+000
5.476932e+002,5.882958e+000
5.496218e+002,5.936622e+000
5.515503e+002,5.970818e+000
5.534788e+002,6.018228e+000
5.554072e+002,6.054867e+000
5.573358e+002,6.102251e+000
5.592643e+002,6.149163e+000
5.611927e+002,6.210719e+000
5.631212e+002,6.257091e+000
5.650497e+002,6.319671e+000
5.669783e+002,6.360837e+000
5.689067e+002,6.414166e+000
5.708352e+002,6.456977e+000
5.727637e+002,6.506196e+000
5.746923e+002,6.534753e+000
5.766207e+002,6.578031e+000
5.785492e+002,6.602668e+000
5.804777e+002,6.643111e+000
5.824063e+002,6.673687e+000
5.843347e+002,6.715421e+000
5.862632e+002,6.740466e+000
5.881917e+002,6.788376e+000
5.901202e+002,6.833216e+000
5.920487e+002,6.907713e+000
5.939772e+002,6.966926e+000
5.959057e+002,7.038022e+000
5.978342e+002,7.099070e+000
5.997627e+002,7.191919e+000
6.016912e+002,7.253082e+000
6.036197e+002,7.340514e+000
6.055482e+002,7.394428e+000
6.074767e+002,7.475615e+000
6.094052e+002,7.533500e+000
6.113337e+002,7.633184e+000
6.132622e+002,7.713140e+000
6.151907e+002,7.754354e+000
6.171192e+002,7.607393e+000
6.190477e+002,7.795377e+000
6.209762e+002,8.014741e+000
6.229047e+002,8.097466e+000
6.248332e+002,8.147275e+000
6.267617e+002,8.222923e+000
6.286902e+002,8.267031e+000
6.306187e+002,8.332405e+000
6.325472e+002,8.355697e+000
6.344756e+002,8.396058e+000
6.364042e+002,8.377707e+000
6.383326e+002,8.386349e+000
6.402612e+002,8.329369e+000
6.421896e+002,8.298495e+000
6.441182e+002,8.201706e+000
6.460466e+002,8.115002e+000
6.479752e+002,7.877475e+000
6.499036e+002,7.885394e+000
6.518322e+002,7.934324e+000
6.537606e+002,7.988194e+000
6.556891e+002,7.975852e+000
6.576177e+002,8.102550e+000
6.595461e+002,8.181050e+000
6.614746e+002,8.400287e+000
6.634031e+002,8.613359e+000
6.653317e+002,8.142358e+000
6.672601e+002,4.894320e+000
6.691886e+002,4.918904e+000
6.711171e+002,7.774701e+000
6.730457e+002,8.255329e+000
6.749741e+002,8.198421e+000
6.769026e+002,8.064846e+000
6.788311e+002,8.122342e+000
6.807596e+002,8.106667e+000
6.826881e+002,8.256889e+000
6.846166e+002,8.340648e+000
6.865451e+002,8.550095e+000
6.884736e+002,8.677028e+000
6.904021e+002,8.921624e+000
6.923306e+002,9.115037e+000
6.942591e+002,9.367198e+000
6.961876e+002,9.546394e+000
6.981161e+002,9.779515e+000
7.000446e+002,9.935547e+000
7.019731e+002,1.012706e+001
7.039016e+002,1.023781e+001
7.058301e+002,1.039082e+001
7.077585e+002,1.047338e+001
7.096871e+002,1.059344e+001
7.116156e+002,1.064553e+001
7.135441e+002,1.074402e+001
7.154725e+002,1.077668e+001
7.174011e+002,1.078416e+001
7.193296e+002,1.050243e+001
7.212581e+002,1.059029e+001
7.231865e+002,1.090924e+001
7.251151e+002,1.097406e+001
7.270436e+002,1.098016e+001
7.289720e+002,1.099877e+001
7.309005e+002,1.101004e+001
7.328290e+002,1.102904e+001
7.347576e+002,1.103874e+001
7.366860e+002,1.106399e+001
7.386145e+002,1.107031e+001
7.405430e+002,1.108062e+001
7.424716e+002,1.109742e+001
7.444000e+002,1.113799e+001
7.463285e+002,1.115441e+001
7.482570e+002,1.118609e+001
7.501855e+002,1.120322e+001
7.521140e+002,1.123534e+001
7.540425e+002,1.125325e+001
7.559710e+002,1.128694e+001
7.578995e+002,1.130828e+001
7.598280e+002,1.134563e+001
7.617565e+002,1.137178e+001
7.636850e+002,1.141265e+001
7.656135e+002,1.143981e+001
7.675420e+002,1.148014e+001
7.694705e+002,1.150655e+001
7.713990e+002,1.154744e+001
7.733275e+002,1.157399e+001
7.752560e+002,1.161137e+001
7.771844e+002,1.162971e+001
7.791130e+002,1.166249e+001
7.810415e+002,1.168264e+001
7.829700e+002,1.170695e+001
7.848984e+002,1.171112e+001
7.868270e+002,1.172204e+001
7.887555e+002,1.171305e+001
7.906840e+002,1.170720e+001
7.926124e+002,1.168474e+001
7.945410e+002,1.167698e+001
7.964695e+002,1.165895e+001
7.983979e+002,1.164996e+001
8.003264e+002,1.163292e+001
8.022549e+002,1.163589e+001
8.041835e+002,1.162882e+001
8.061119e+002,1.163652e+001
8.080404e+002,1.163706e+001
8.099689e+002,1.164981e+001
8.118975e+002,1.165506e+001
8.138259e+002,1.166874e+001
8.157545e+002,1.166766e+001
8.176830e+002,1.167351e+001
8.196115e+002,1.166953e+001
8.215399e+002,1.167715e+001
8.234684e+002,1.168128e+001
8.253970e+002,1.170621e+001
8.273254e+002,1.172410e+001
8.292539e+002,1.175569e+001
8.311824e+002,1.177432e+001
8.331110e+002,1.179605e+001
8.350394e+002,1.180999e+001
8.369679e+002,1.183368e+001
8.388964e+002,1.184574e+001
8.408250e+002,1.187187e+001
8.427534e+002,1.189105e+001
8.446819e+002,1.191804e+001
8.466104e+002,1.194161e+001
8.485389e+002,1.197607e+001
8.504674e+002,1.199760e+001
8.523959e+002,1.203089e+001
8.543244e+002,1.205611e+001
8.562529e+002,1.208832e+001
8.581814e+002,1.211314e+001
8.601099e+002,1.214355e+001
8.620384e+002,1.216640e+001
8.639669e+002,1.220388e+001
8.658954e+002,1.223156e+001
8.678239e+002,1.226507e+001
8.697524e+002,1.229147e+001
8.716809e+002,1.232585e+001
8.736094e+002,1.235563e+001
8.755378e+002,1.239662e+001
8.774664e+002,1.242857e+001
8.793949e+002,1.247132e+001
8.813234e+002,1.250824e+001
8.832518e+002,1.255132e+001
8.851804e+002,1.258752e+001
8.871089e+002,1.262893e+001
8.890374e+002,1.266148e+001
8.909658e+002,1.270570e+001
8.928943e+002,1.274251e+001
8.948229e+002,1.278773e+001
8.967513e+002,1.282858e+001
8.986798e+002,1.288015e+001
9.006083e+002,1.292505e+001
9.025369e+002,1.298000e+001
9.044653e+002,1.302858e+001
9.063938e+002,1.308234e+001
9.083223e+002,1.313183e+001
9.102509e+002,1.318930e+001
9.121793e+002,1.323882e+001
9.141078e+002,1.329717e+001
9.160364e+002,1.334833e+001
9.179648e+002,1.341023e+001
9.198933e+002,1.347202e+001
9.218218e+002,1.353922e+001
9.237504e+002,1.359773e+001
9.256788e+002,1.366788e+001
9.276073e+002,1.372842e+001
9.295358e+002,1.379417e+001
9.314644e+002,1.385426e+001
9.333928e+002,1.391810e+001
9.353213e+002,1.397473e+001
9.372498e+002,1.403885e+001
9.391783e+002,1.409228e+001
9.411068e+002,1.415272e+001
9.430353e+002,1.420441e+001
9.449637e+002,1.425928e+001
9.468923e+002,1.430864e+001
9.488208e+002,1.436494e+001
9.507493e+002,1.441466e+001
9.526777e+002,1.447263e+001
9.546063e+002,1.452301e+001
9.565348e+002,1.457681e+001
9.584633e+002,1.462723e+001
9.603917e+002,1.468640e+001
9.623203e+002,1.474104e+001
9.642488e+002,1.480920e+001
9.661772e+002,1.487374e+001
9.681057e+002,1.494580e+001
9.700343e+002,1.501322e+001
9.719628e+002,1.508231e+001
9.738912e+002,1.514891e+001
9.758197e+002,1.523081e+001
9.777483e+002,1.530164e+001
9.796768e+002,1.536929e+001
9.816052e+002,1.542780e+001
9.835337e+002,1.548857e+001
9.854623e+002,1.554301e+001
9.873907e+002,1.560785e+001
9.893192e+002,1.566389e+001
9.912477e+002,1.572568e+001
9.931763e+002,1.578385e+001
9.951047e+002,1.584689e+001
9.970332e+002,1.590376e+001
9.989617e+002,1.596272e+001
1.000890e+003,1.600737e+001
1.002819e+003,1.605138e+001
1.004747e+003,1.608347e+001
1.006676e+003,1.611155e+001
1.008604e+003,1.612866e+001
1.010533e+003,1.614779e+001
1.012461e+003,1.615697e+001
1.014390e+003,1.617365e+001
1.016318e+003,1.618649e+001
1.018247e+003,1.620600e+001
1.020175e+003,1.622799e+001
1.022104e+003,1.625789e+001
1.024032e+003,1.628138e+001
1.025961e+003,1.631738e+001
1.027889e+003,1.634947e+001
1.029818e+003,1.638706e+001
1.031746e+003,1.642422e+001
1.033675e+003,1.646728e+001
1.035603e+003,1.650337e+001
1.037532e+003,1.654382e+001
1.039460e+003,1.657111e+001
1.041389e+003,1.659393e+001
1.043317e+003,1.660486e+001
1.045246e+003,1.661640e+001
1.047174e+003,1.662293e+001
1.049103e+003,1.663816e+001
1.051031e+003,1.664893e+001
1.052960e+003,1.666946e+001
1.054888e+003,1.668902e+001
1.056817e+003,1.671172e+001
1.058745e+003,1.673246e+001
1.060674e+003,1.676445e+001
1.062602e+003,1.679150e+001
1.064531e+003,1.682335e+001
1.066459e+003,1.684752e+001
1.068388e+003,1.686919e+001
1.070316e+003,1.688476e+001
1.072245e+003,1.689907e+001
1.074173e+003,1.689675e+001
1.076102e+003,1.692167e+001
1.078030e+003,1.696553e+001
1.079959e+003,1.701411e+001
1.081887e+003,1.707771e+001
1.083816e+003,1.715320e+001
1.085744e+003,1.720153e+001
1.087673e+003,1.724037e+001
1.089601e+003,1.726443e+001
1.091530e+003,1.728808e+001
1.093458e+003,1.730508e+001
1.095387e+003,1.732978e+001
1.097315e+003,1.735594e+001
1.099244e+003,1.739315e+001
1.101172e+003,1.742684e+001
1.103101e+003,1.746992e+001
1.105029e+003,1.751441e+001
1.106958e+003,1.756853e+001
1.108886e+003,1.762410e+001
1.110815e+003,1.769583e+001
1.112743e+003,1.776864e+001
1.114672e+003,1.785476e+001
1.116600e+003,1.794092e+001
1.118529e+003,1.802619e+001
1.120457e+003,1.810561e+001
1.122386e+003,1.819351e+001
1.124314e+003,1.827499e+001
1.126243e+003,1.836166e+001
1.128171e+003,1.843780e+001
1.130100e+003,1.850525e+001
1.132028e+003,1.855984e+001
1.133957e+003,1.861085e+001
1.135885e+003,1.864288e+001
1.137814e+003,1.866535e+001
1.139742e+003,1.865963e+001
1.141671e+003,1.865527e+001
1.143599e+003,1.868934e+001
1.145528e+003,1.874775e+001
1.147456e+003,1.878688e+001
1.149385e+003,1.882485e+001
1.151313e+003,1.888035e+001
1.153242e+003,1.897248e+001
1.155170e+003,1.905903e+001
1.157099e+003,1.913740e+001
1.159027e+003,1.920624e+001
1.160956e+003,1.928636e+001
1.162884e+003,1.936250e+001
1.164813e+003,1.945138e+001
1.166741e+003,1.954614e+001
1.168670e+003,1.963966e+001
1.170598e+003,1.971567e+001
1.172526e+003,1.978069e+001
1.174455e+003,1.982070e+001
1.176384e+003,1.983207e+001
1.178312e+003,1.977172e+001
1.180240e+003,1.971077e+001
1.182169e+003,1.982666e+001
1.184098e+003,2.000083e+001
1.186026e+003,2.006963e+001
1.187954e+003,2.010910e+001
1.189883e+003,2.013238e+001
1.191812e+003,2.015820e+001
1.193740e+003,2.018116e+001
1.195668e+003,2.021548e+001
1.197597e+003,2.024422e+001
1.199526e+003,2.028947e+001
1.201454e+003,2.033271e+001
1.203382e+003,2.038211e+001
1.205311e+003,2.042872e+001
1.207240e+003,2.047998e+001
1.209168e+003,2.052020e+001
1.211096e+003,2.056259e+001
1.213025e+003,2.059344e+001
1.214953e+003,2.062977e+001
1.216882e+003,2.065782e+001
1.218810e+003,2.069043e+001
1.220739e+003,2.071813e+001
1.222667e+003,2.075544e+001
1.224596e+003,2.078369e+001
1.226524e+003,2.082116e+001
1.228453e+003,2.085260e+001
1.230381e+003,2.088840e+001
1.232310e+003,2.091939e+001
1.234238e+003,2.095817e+001
1.236167e+003,2.098400e+001
1.238095e+003,2.101723e+001
1.240024e+003,2.104365e+001
1.241952e+003,2.107038e+001
1.243881e+003,2.109057e+001
1.245809e+003,2.111605e+001
1.247738e+003,2.113321e+001
1.249666e+003,2.116204e+001
1.251595e+003,2.117561e+001
1.253523e+003,2.117990e+001
1.255452e+003,2.116747e+001
1.257380e+003,2.114655e+001
1.259309e+003,2.110290e+001
1.261237e+003,2.107885e+001
1.263166e+003,2.107740e+001
1.265094e+003,2.112048e+001
1.267023e+003,2.120695e+001
1.268951e+003,2.132578e+001
1.270880e+003,2.142107e+001
1.272808e+003,2.150447e+001
1.274737e+003,2.155854e+001
1.276665e+003,2.160718e+001
1.278594e+003,2.164810e+001
1.280522e+003,2.168236e+001
1.282451e+003,2.170304e+001
1.284379e+003,2.173331e+001
1.286308e+003,2.174206e+001
1.288236e+003,2.174985e+001
1.290165e+003,2.176292e+001
1.292093e+003,2.177584e+001
1.294022e+003,2.177817e+001
1.295950e+003,2.178741e+001
1.297879e+003,2.178916e+001
1.299807e+003,2.179637e+001
1.301736e+003,2.178920e+001
1.303664e+003,2.178042e+001
1.305593e+003,2.178234e+001
1.307521e+003,2.182924e+001
1.309450e+003,2.185395e+001
1.311378e+003,2.186350e+001
1.313307e+003,2.186985e+001
1.315235e+003,2.188809e+001
1.317164e+003,2.189066e+001
1.319092e+003,2.190388e+001
1.321021e+003,2.191939e+001
1.322949e+003,2.194024e+001
1.324878e+003,2.194299e+001
1.326806e+003,2.194138e+001
1.328735e+003,2.194466e+001
1.330663e+003,2.193290e+001
1.332592e+003,2.192173e+001
1.334520e+003,2.197924e+001
1.336449e+003,2.197796e+001
1.338377e+003,2.195127e+001
1.340306e+003,2.194651e+001
1.342234e+003,2.198561e+001
1.344163e+003,2.199151e+001
1.346091e+003,2.198788e+001
1.348020e+003,2.197257e+001
1.349948e+003,2.197250e+001
1.351877e+003,2.195946e+001
1.353805e+003,2.195522e+001
1.355734e+003,2.195121e+001
1.357662e+003,2.196267e+001
1.359591e+003,2.192035e+001
1.361519e+003,2.185303e+001
1.363448e+003,2.185344e+001
1.365376e+003,2.193776e+001
1.367305e+003,2.193449e+001
1.369233e+003,2.193275e+001
1.371162e+003,2.192066e+001
1.373090e+003,2.185322e+001
1.375019e+003,2.182777e+001
1.376947e+003,2.187934e+001
1.378876e+003,2.185668e+001
1.380804e+003,2.181210e+001
1.382733e+003,2.167992e+001
1.384661e+003,2.162149e+001
1.386590e+003,2.158962e+001
1.388518e+003,2.171505e+001
1.390447e+003,2.184830e+001
1.392375e+003,2.180558e+001
1.394304e+003,2.166099e+001
1.396232e+003,2.171119e+001
1.398161e+003,2.170087e+001
1.400089e+003,2.173216e+001
1.402018e+003,2.181586e+001
1.403946e+003,2.176677e+001
1.405875e+003,2.176805e+001
1.407803e+003,2.182576e+001
1.409732e+003,2.182347e+001
1.411660e+003,2.182948e+001
1.413589e+003,2.183669e+001
1.415517e+003,2.181141e+001
1.417446e+003,2.160382e+001
1.419374e+003,2.143923e+001
1.421303e+003,2.171146e+001
1.423231e+003,2.181370e+001
1.425160e+003,2.183166e+001
1.427088e+003,2.186683e+001
1.429017e+003,2.179453e+001
1.430945e+003,2.180613e+001
1.432874e+003,2.184381e+001
1.434802e+003,2.166106e+001
1.436731e+003,2.141556e+001
1.438659e+003,2.169324e+001
1.440588e+003,2.181044e+001
1.442516e+003,2.179569e+001
1.444445e+003,2.174751e+001
1.446373e+003,2.167003e+001
1.448302e+003,2.158718e+001
1.450230e+003,2.165637e+001
1.452159e+003,2.161010e+001
1.454087e+003,2.146132e+001
1.456016e+003,2.089672e+001
1.457944e+003,2.095151e+001
1.459873e+003,2.142385e+001
1.461801e+003,2.155525e+001
1.463730e+003,2.138954e+001
1.465658e+003,2.137394e+001
1.467587e+003,2.153568e+001
1.469515e+003,2.148397e+001
1.471444e+003,2.115332e+001
1.473372e+003,2.106721e+001
1.475301e+003,2.128478e+001
1.477229e+003,2.139827e+001
1.479158e+003,2.149670e+001
1.481086e+003,2.146418e+001
1.483015e+003,2.147792e+001
1.484943e+003,2.141939e+001
1.486872e+003,2.128986e+001
1.488800e+003,2.116424e+001
1.490729e+003,2.117045e+001
1.492657e+003,2.133399e+001
1.494586e+003,2.116896e+001
1.496514e+003,2.093477e+001
1.498443e+003,2.107247e+001
1.500371e+003,2.121287e+001
1.502300e+003,2.126816e+001
1.504228e+003,2.085151e+001
1.506157e+003,2.028043e+001
1.508085e+003,2.057357e+001
1.510014e+003,2.100125e+001
1.511942e+003,2.102707e+001
1.513871e+003,2.104527e+001
1.515799e+003,2.089537e+001
1.517728e+003,2.082839e+001
1.519656e+003,2.061240e+001
1.521585e+003,2.037903e+001
1.523513e+003,2.067479e+001
1.525442e+003,2.070330e+001
1.527370e+003,2.076371e+001
1.529299e+003,2.082361e+001
1.531227e+003,2.075494e+001
1.533156e+003,2.051521e+001
1.535084e+003,2.063016e+001
1.537013e+003,2.046163e+001
1.538941e+003,1.980111e+001
1.540870e+003,1.978481e+001
1.542798e+003,2.015226e+001
1.544727e+003,2.031826e+001
1.546655e+003,2.046926e+001
1.548584e+003,2.045825e+001
1.550512e+003,2.039587e+001
1.552441e+003,2.029008e+001
1.554369e+003,2.008683e+001
1.556298e+003,1.987153e+001
1.558226e+003,1.921078e+001
1.560155e+003,1.933850e+001
1.562083e+003,2.003390e+001
1.564012e+003,2.014652e+001
1.565940e+003,2.011168e+001
1.567869e+003,1.996229e+001
1.569797e+003,1.979687e+001
1.571726e+003,1.994773e+001
1.573654e+003,1.984049e+001
1.575583e+003,1.935048e+001
1.577511e+003,1.951039e+001
1.579440e+003,1.981255e+001
1.581368e+003,1.976320e+001
1.583297e+003,1.972240e+001
1.585225e+003,1.965578e+001
1.587154e+003,1.961182e+001
1.589082e+003,1.953800e+001
1.591010e+003,1.948594e+001
1.592939e+003,1.940762e+001
1.594868e+003,1.934491e+001
1.596796e+003,1.928186e+001
1.598724e+003,1.923112e+001
1.600653e+003,1.914634e+001
1.602582e+003,1.907617e+001
1.604510e+003,1.899961e+001
1.606438e+003,1.892150e+001
1.608367e+003,1.881399e+001
1.610296e+003,1.874496e+001
1.612224e+003,1.867421e+001
1.614152e+003,1.847177e+001
1.616081e+003,1.799246e+001
1.618010e+003,1.804054e+001
1.619938e+003,1.823287e+001
1.621866e+003,1.807634e+001
1.623795e+003,1.798770e+001
1.625724e+003,1.804538e+001
1.627652e+003,1.798588e+001
1.629580e+003,1.796622e+001
1.631509e+003,1.794128e+001
1.633438e+003,1.764965e+001
1.635366e+003,1.726416e+001
1.637294e+003,1.743962e+001
1.639223e+003,1.761444e+001
1.641151e+003,1.756783e+001
1.643080e+003,1.746459e+001
1.645008e+003,1.711006e+001
1.646937e+003,1.695534e+001
1.648865e+003,1.713473e+001
1.650794e+003,1.678762e+001
1.652722e+003,1.606709e+001
1.654651e+003,1.648249e+001
1.656579e+003,1.695520e+001
1.658508e+003,1.695356e+001
1.660436e+003,1.682829e+001
1.662365e+003,1.664584e+001
1.664293e+003,1.665311e+001
1.666222e+003,1.663687e+001
1.668150e+003,1.637257e+001
1.670079e+003,1.624549e+001
1.672007e+003,1.630732e+001
1.673936e+003,1.614368e+001
1.675864e+003,1.601892e+001
1.677793e+003,1.615536e+001
1.679721e+003,1.606042e+001
1.681650e+003,1.587229e+001
1.683578e+003,1.532506e+001
1.685507e+003,1.535010e+001
1.687435e+003,1.569011e+001
1.689364e+003,1.566464e+001
1.691292e+003,1.561117e+001
1.693221e+003,1.544128e+001
1.695149e+003,1.494469e+001
1.697078e+003,1.494457e+001
1.699006e+003,1.478515e+001
1.700935e+003,1.463467e+001
1.702863e+003,1.497202e+001
1.704792e+003,1.486502e+001
1.706720e+003,1.483922e+001
1.708649e+003,1.480174e+001
1.710577e+003,1.475903e+001
1.712506e+003,1.460456e+001
1.714434e+003,1.439480e+001
1.716363e+003,1.405030e+001
1.718291e+003,1.398994e+001
1.720220e+003,1.419902e+001
1.722148e+003,1.419176e+001
1.724077e+003,1.408816e+001
1.726005e+003,1.401731e+001
1.727934e+003,1.389819e+001
1.729862e+003,1.377289e+001
1.731791e+003,1.352180e+001
1.733719e+003,1.316468e+001
1.735648e+003,1.330352e+001
1.737576e+003,1.341564e+001
1.739505e+003,1.324245e+001
1.741433e+003,1.323202e+001
1.743362e+003,1.318394e+001
1.745290e+003,1.312176e+001
1.747219e+003,1.299928e+001
1.749147e+003,1.285508e+001
1.751076e+003,1.269828e+001
1.753004e+003,1.273916e+001
1.754933e+003,1.268767e+001
1.756861e+003,1.255541e+001
1.758790e+003,1.249070e+001
1.760718e+003,1.233642e+001
1.762647e+003,1.223056e+001
1.764575e+003,1.221143e+001
1.766504e+003,1.205074e+001
1.768432e+003,1.189445e+001
1.770361e+003,1.172760e+001
1.772289e+003,1.149748e+001
1.774218e+003,1.148164e+001
1.776146e+003,1.141977e+001
1.778075e+003,1.127504e+001
1.780003e+003,1.114691e+001
1.781932e+003,1.105887e+001
1.783860e+003,1.095588e+001
1.785789e+003,1.085942e+001
1.787717e+003,1.079373e+001
1.789646e+003,1.064975e+001
1.791574e+003,1.045400e+001
1.793503e+003,1.036989e+001
1.795431e+003,1.035202e+001
1.797360e+003,1.023119e+001
1.799288e+003,1.009187e+001
1.801217e+003,9.949827e+000
1.803145e+003,9.847630e+000
1.805074e+003,9.708722e+000
1.807002e+003,9.554297e+000
1.808931e+003,9.354677e+000
1.810859e+003,9.152497e+000
1.812788e+003,8.924509e+000
1.814716e+003,8.634409e+000
1.816645e+003,8.209574e+000
1.818573e+003,7.865423e+000
1.820502e+003,7.673693e+000
1.822430e+003,7.554047e+000
1.824359e+003,7.413610e+000
1.826287e+003,7.307619e+000
1.828216e+003,7.173857e+000
1.830144e+003,7.034803e+000
1.832073e+003,6.941381e+000
1.834001e+003,6.822809e+000
1.835930e+003,6.676848e+000
1.837858e+003,6.543354e+000
1.839787e+003,6.411927e+000
1.841715e+003,6.264591e+000
1.843644e+003,6.078898e+000
1.845572e+003,5.988384e+000
1.847501e+003,5.907407e+000
1.849429e+003,5.799654e+000
1.851358e+003,5.689484e+000
1.853286e+003,5.582743e+000
1.855215e+003,5.475799e+000
1.857143e+003,5.375922e+000
1.859072e+003,5.276959e+000
1.861000e+003,5.183581e+000
1.862929e+003,5.089082e+000
1.864857e+003,4.996765e+000
1.866786e+003,4.887541e+000
1.868714e+003,4.781560e+000
1.870643e+003,4.708086e+000
1.872571e+003,4.638095e+000
1.874500e+003,4.547197e+000
1.876428e+003,4.460781e+000
1.878357e+003,4.369648e+000
1.880285e+003,4.284115e+000
1.882214e+003,4.193433e+000
1.884142e+003,4.107263e+000
1.886071e+003,4.018204e+000
1.887999e+003,3.929553e+000
1.889928e+003,3.838743e+000
1.891856e+003,3.766205e+000
1.893785e+003,3.680320e+000
1.895713e+003,3.600323e+000
1.897642e+003,3.519527e+000
1.899570e+003,3.444379e+000
1.901499e+003,3.363183e+000
1.903427e+003,3.288311e+000
1.905356e+003,3.208226e+000
1.907284e+003,3.134285e+000
1.909213e+003,3.054621e+000
1.911141e+003,2.984313e+000
1.913070e+003,2.910911e+000
1.914998e+003,2.839660e+000
1.916927e+003,2.755007e+000
1.918855e+003,2.690521e+000
1.920784e+003,2.630023e+000
1.922712e+003,2.544807e+000
1.924641e+003,2.445960e+000
1.926569e+003,2.350774e+000
1.928498e+003,2.253569e+000
1.930426e+003,2.164756e+000
1.932355e+003,2.074393e+000
1.934283e+003,1.990936e+000
1.936212e+003,1.906607e+000
1.938140e+003,1.827921e+000
1.940069e+003,1.747197e+000
1.941997e+003,1.671454e+000
1.943926e+003,1.598506e+000
1.945854e+003,1.532414e+000
1.947783e+003,1.462187e+000
1.949711e+003,1.397954e+000
1.951640e+003,1.332639e+000
1.953568e+003,1.272837e+000
1.955497e+003,1.202902e+000
1.957425e+003,1.112387e+000
1.959354e+003,1.019007e+000
1.961282e+003,9.639899e-001
1.963211e+003,9.178327e-001
1.965139e+003,8.777204e-001
1.967068e+003,8.357875e-001
1.968996e+003,7.999134e-001
1.970925e+003,7.612967e-001
1.972853e+003,7.279263e-001
1.974782e+003,6.919203e-001
1.976710e+003,6.690561e-001
1.978639e+003,6.912268e-001
1.980567e+003,7.704055e-001
1.982496e+003,8.306916e-001
1.984424e+003,8.707039e-001
1.986353e+003,8.932437e-001
1.988281e+003,9.127561e-001
1.990210e+003,9.207335e-001
1.992138e+003,9.288340e-001
1.994067e+003,9.290019e-001
1.995995e+003,9.276886e-001
1.997924e+003,9.133773e-001
1.999852e+003,8.920004e-001
2.001781e+003,8.552197e-001
2.003709e+003,8.085155e-001
2.005638e+003,7.457291e-001
2.007566e+003,7.069653e-001
2.009495e+003,6.979956e-001
2.011423e+003,6.968830e-001
2.013352e+003,6.864371e-001
2.015280e+003,6.781093e-001
2.017208e+003,6.665605e-001
2.019137e+003,6.589671e-001
2.021066e+003,6.488718e-001
2.022994e+003,6.428266e-001
2.024922e+003,6.340027e-001
2.026851e+003,6.297618e-001
2.028780e+003,6.238334e-001
2.030708e+003,6.257416e-001
2.032636e+003,6.267926e-001
2.034565e+003,6.448201e-001
2.036494e+003,6.807915e-001
2.038422e+003,7.272259e-001
2.040350e+003,7.656525e-001
2.042279e+003,8.043942e-001
2.044208e+003,8.380644e-001
2.046136e+003,8.756906e-001
2.048064e+003,9.202354e-001
2.049993e+003,1.021242e+000
2.051921e+003,1.150212e+000
2.053850e+003,1.213069e+000
2.055778e+003,1.259092e+000
2.057707e+003,1.308481e+000
2.059635e+003,1.340758e+000
2.061564e+003,1.373595e+000
2.063492e+003,1.402522e+000
2.065421e+003,1.436008e+000
2.067349e+003,1.469676e+000
2.069278e+003,1.509115e+000
2.071206e+003,1.547885e+000
2.073135e+003,1.592741e+000
2.075063e+003,1.638041e+000
2.076992e+003,1.689114e+000
2.078920e+003,1.740479e+000
2.080849e+003,1.794727e+000
2.082777e+003,1.841140e+000
2.084706e+003,1.882558e+000
2.086634e+003,1.911342e+000
2.088563e+003,1.931934e+000
2.090491e+003,1.933480e+000
2.092420e+003,1.914290e+000
2.094348e+003,1.866634e+000
2.096277e+003,1.843613e+000
2.098205e+003,1.853177e+000
2.100134e+003,1.874932e+000
2.102062e+003,1.894173e+000
2.103991e+003,1.913684e+000
2.105919e+003,1.928917e+000
2.107848e+003,1.946587e+000
2.109776e+003,1.963064e+000
2.111705e+003,1.984043e+000
2.113633e+003,2.004653e+000
2.115562e+003,2.019687e+000
2.117490e+003,2.010110e+000
2.119419e+003,1.982775e+000
2.121347e+003,1.939975e+000
2.123276e+003,1.885455e+000
2.125204e+003,1.814288e+000
2.127133e+003,1.730316e+000
2.129061e+003,1.628250e+000
2.130990e+003,1.510028e+000
2.132918e+003,1.369624e+000
2.134847e+003,1.245195e+000
2.136775e+003,1.159345e+000
2.138704e+003,1.094095e+000
2.140632e+003,1.030236e+000
2.142561e+003,9.680046e-001
2.144489e+003,9.030672e-001
2.146418e+003,8.421851e-001
2.148346e+003,7.862707e-001
2.150275e+003,7.376664e-001
2.152203e+003,6.817678e-001
2.154132e+003,6.171712e-001
2.156060e+003,5.374652e-001
2.157989e+003,4.589499e-001
2.159917e+003,4.416806e-001
2.161846e+003,4.941269e-001
2.163774e+003,5.441866e-001
2.165703e+003,5.914768e-001
2.167631e+003,6.372861e-001
2.169560e+003,6.773661e-001
2.171488e+003,6.975207e-001
2.173417e+003,7.053568e-001
2.175345e+003,7.035578e-001
2.177274e+003,7.164522e-001
2.179202e+003,7.268123e-001
2.181131e+003,7.289127e-001
2.183059e+003,7.405376e-001
2.184988e+003,7.709228e-001
2.186916e+003,8.019022e-001
2.188845e+003,8.356247e-001
2.190773e+003,8.631780e-001
2.192702e+003,8.908032e-001
2.194630e+003,9.149231e-001
2.196559e+003,9.408503e-001
2.198487e+003,9.628091e-001
2.200416e+003,9.861903e-001
2.202344e+003,1.006437e+000
2.204273e+003,1.029255e+000
2.206201e+003,1.049198e+000
2.208130e+003,1.071622e+000
2.210058e+003,1.091600e+000
2.211987e+003,1.114795e+000
2.213915e+003,1.135834e+000
2.215844e+003,1.159861e+000
2.217772e+003,1.182277e+000
2.219701e+003,1.209911e+000
2.221629e+003,1.236403e+000
2.223558e+003,1.265923e+000
2.225486e+003,1.293635e+000
2.227415e+003,1.326154e+000
2.229343e+003,1.358395e+000
2.231272e+003,1.393752e+000
2.233200e+003,1.427821e+000
2.235129e+003,1.465669e+000
2.237057e+003,1.502429e+000
2.238986e+003,1.542561e+000
2.240914e+003,1.580328e+000
2.242843e+003,1.620515e+000
2.244771e+003,1.658464e+000
2.246700e+003,1.697427e+000
2.248628e+003,1.732853e+000
2.250557e+003,1.768691e+000
2.252485e+003,1.796647e+000
2.254414e+003,1.826245e+000
2.256342e+003,1.870023e+000
2.258271e+003,1.929313e+000
2.260199e+003,1.981626e+000
2.262128e+003,2.030203e+000
2.264056e+003,2.073545e+000
2.265985e+003,2.124195e+000
2.267913e+003,2.186896e+000
2.269842e+003,2.263272e+000
2.271770e+003,2.342474e+000
2.273699e+003,2.431292e+000
2.275627e+003,2.527283e+000
2.277556e+003,2.638535e+000
2.279484e+003,2.765252e+000
2.281413e+003,2.912479e+000
2.283341e+003,3.064499e+000
2.285270e+003,3.212046e+000
2.287198e+003,3.348927e+000
2.289127e+003,3.477964e+000
2.291055e+003,3.592200e+000
2.292984e+003,3.686560e+000
2.294912e+003,3.759667e+000
2.296841e+003,3.816792e+000
2.298769e+003,3.851929e+000
2.300698e+003,3.869109e+000
2.302626e+003,3.874710e+000
2.304555e+003,3.842836e+000
2.306483e+003,3.753134e+000
2.308412e+003,3.647013e+000
2.310340e+003,3.535765e+000
2.312269e+003,3.448055e+000
2.314197e+003,3.407248e+000
2.316125e+003,3.339172e+000
2.318054e+003,3.164736e+000
2.319983e+003,2.973072e+000
2.321911e+003,2.874174e+000
2.323840e+003,2.935787e+000
2.325768e+003,3.017355e+000
2.327697e+003,2.879115e+000
2.329625e+003,2.665482e+000
2.331553e+003,2.555964e+000
2.333482e+003,2.539437e+000
2.335411e+003,2.464939e+000
2.337339e+003,2.373473e+000
2.339268e+003,2.309784e+000
2.341196e+003,2.263574e+000
2.343125e+003,2.319490e+000
2.345053e+003,2.586956e+000
2.346981e+003,3.409826e+000
2.348910e+003,3.915509e+000
2.350839e+003,3.154460e+000
2.352767e+003,2.314261e+000
2.354696e+003,1.808081e+000
2.356624e+003,1.511119e+000
2.358552e+003,1.350712e+000
2.360481e+003,1.304100e+000
2.362409e+003,1.322644e+000
2.364338e+003,1.404931e+000
2.366267e+003,1.557162e+000
2.368195e+003,1.781091e+000
2.370124e+003,2.084060e+000
2.372052e+003,2.470018e+000
2.373980e+003,2.929844e+000
2.375909e+003,3.452818e+000
2.377838e+003,4.021600e+000
2.379766e+003,4.602975e+000
2.381695e+003,5.122643e+000
2.383623e+003,5.496327e+000
2.385552e+003,5.690103e+000
2.387480e+003,5.737357e+000
2.389408e+003,5.699966e+000
2.391337e+003,5.624395e+000
2.393266e+003,5.536800e+000
2.395194e+003,5.446599e+000
2.397123e+003,5.359021e+000
2.399051e+003,5.273459e+000
2.400979e+003,5.190243e+000
2.402908e+003,5.106717e+000
2.404836e+003,5.020454e+000
2.406765e+003,4.940535e+000
2.408694e+003,4.889499e+000
2.410622e+003,4.849804e+000
2.412551e+003,4.808759e+000
2.414479e+003,4.765223e+000
2.416407e+003,4.720305e+000
2.418336e+003,4.673891e+000
2.420264e+003,4.631394e+000
2.422193e+003,4.591356e+000
2.424122e+003,4.553764e+000
2.426050e+003,4.517869e+000
2.427979e+003,4.485685e+000
2.429907e+003,4.455146e+000
2.431835e+003,4.428673e+000
2.433764e+003,4.405036e+000
2.435692e+003,4.384677e+000
2.437621e+003,4.367270e+000
2.439550e+003,4.354328e+000
2.441478e+003,4.343649e+000
2.443406e+003,4.338139e+000
2.445335e+003,4.335104e+000
2.447263e+003,4.336495e+000
2.449192e+003,4.341005e+000
2.451121e+003,4.350853e+000
2.453049e+003,4.363705e+000
2.454978e+003,4.380326e+000
2.456906e+003,4.394254e+000
2.458834e+003,4.401637e+000
2.460763e+003,4.399964e+000
2.462691e+003,4.394054e+000
2.464620e+003,4.385345e+000
2.466549e+003,4.374128e+000
2.468477e+003,4.360645e+000
2.470406e+003,4.347820e+000
2.472334e+003,4.333786e+000
2.474262e+003,4.319625e+000
2.476191e+003,4.303946e+000
2.478119e+003,4.289524e+000
2.480048e+003,4.275353e+000
2.481977e+003,4.263388e+000
2.483905e+003,4.251727e+000
2.485833e+003,4.241701e+000
2.487762e+003,4.231528e+000
2.489690e+003,4.223349e+000
2.491619e+003,4.217495e+000
2.493547e+003,4.214508e+000
2.495476e+003,4.210784e+000
2.497405e+003,4.206874e+000
2.499333e+003,4.200827e+000
2.501261e+003,4.195068e+000
2.503190e+003,4.188635e+000
2.505118e+003,4.183402e+000
2.507047e+003,4.178292e+000
2.508975e+003,4.173943e+000
2.510904e+003,4.168758e+000
2.512833e+003,4.165250e+000
2.514761e+003,4.161419e+000
2.516689e+003,4.159137e+000
2.518618e+003,4.156489e+000
2.520546e+003,4.156101e+000
2.522475e+003,4.155251e+000
2.524403e+003,4.155898e+000
2.526332e+003,4.155988e+000
2.528260e+003,4.158615e+000
2.530189e+003,4.161661e+000
2.532117e+003,4.166294e+000
2.534046e+003,4.170262e+000
2.535974e+003,4.176601e+000
2.537903e+003,4.183640e+000
2.539831e+003,4.192271e+000
2.541760e+003,4.201893e+000
2.543688e+003,4.213523e+000
2.545617e+003,4.225080e+000
2.547545e+003,4.239399e+000
2.549474e+003,4.254511e+000
2.551402e+003,4.271924e+000
2.553331e+003,4.289204e+000
2.555259e+003,4.309147e+000
2.557188e+003,4.330529e+000
2.559116e+003,4.354581e+000
2.561045e+003,4.379576e+000
2.562973e+003,4.407643e+000
2.564902e+003,4.437015e+000
2.566830e+003,4.469298e+000
2.568759e+003,4.501626e+000
2.570687e+003,4.537665e+000
2.572616e+003,4.575932e+000
2.574544e+003,4.616954e+000
2.576473e+003,4.659465e+000
2.578401e+003,4.705146e+000
2.580330e+003,4.752088e+000
2.582258e+003,4.803501e+000
2.584187e+003,4.856644e+000
2.586115e+003,4.912578e+000
2.588044e+003,4.971949e+000
2.589972e+003,5.035297e+000
2.591901e+003,5.101937e+000
2.593829e+003,5.172565e+000
2.595758e+003,5.244481e+000
2.597686e+003,5.321391e+000
2.599615e+003,5.402026e+000
2.601543e+003,5.487002e+000
2.603472e+003,5.575762e+000
2.605400e+003,5.669923e+000
2.607329e+003,5.767759e+000
2.609257e+003,5.871344e+000
2.611186e+003,5.979538e+000
2.613114e+003,6.092874e+000
2.615043e+003,6.211007e+000
2.616971e+003,6.335825e+000
2.618900e+003,6.465636e+000
2.620828e+003,6.601954e+000
2.622757e+003,6.743691e+000
2.624685e+003,6.892746e+000
2.626614e+003,7.047758e+000
2.628542e+003,7.209946e+000
2.630471e+003,7.377964e+000
2.632399e+003,7.553112e+000
2.634328e+003,7.734520e+000
2.636256e+003,7.922680e+000
2.638185e+003,8.116467e+000
2.640113e+003,8.316759e+000
2.642042e+003,8.523055e+000
2.643970e+003,8.733228e+000
2.645899e+003,8.946759e+000
2.647827e+003,9.164392e+000
2.649756e+003,9.383138e+000
2.651684e+003,9.600627e+000
2.653613e+003,9.813554e+000
2.655541e+003,1.001951e+001
2.657470e+003,1.021229e+001
2.659398e+003,1.038628e+001
2.661327e+003,1.053098e+001
2.663255e+003,1.063317e+001
2.665184e+003,1.068420e+001
2.667112e+003,1.069949e+001
2.669041e+003,1.069865e+001
2.670969e+003,1.069173e+001
2.672898e+003,1.067987e+001
2.674826e+003,1.066696e+001
2.676755e+003,1.065156e+001
2.678683e+003,1.063531e+001
2.680612e+003,1.061808e+001
2.682540e+003,1.060079e+001
2.684469e+003,1.058306e+001
2.686397e+003,1.056471e+001
2.688326e+003,1.054547e+001
2.690254e+003,1.052765e+001
2.692183e+003,1.050897e+001
2.694111e+003,1.048993e+001
2.696040e+003,1.047073e+001
2.697968e+003,1.045190e+001
2.699897e+003,1.043270e+001
2.701825e+003,1.041505e+001
2.703754e+003,1.039604e+001
2.705682e+003,1.037696e+001
2.707611e+003,1.035760e+001
2.709539e+003,1.033891e+001
2.711468e+003,1.032009e+001
2.713396e+003,1.030130e+001
2.715325e+003,1.028268e+001
2.717253e+003,1.026486e+001
2.719182e+003,1.024607e+001
2.721110e+003,1.022845e+001
2.723039e+003,1.021025e+001
2.724967e+003,1.019266e+001
2.726896e+003,1.017324e+001
2.728824e+003,1.015448e+001
2.730753e+003,1.013629e+001
2.732681e+003,1.011864e+001
2.734610e+003,1.010089e+001
2.736538e+003,1.008330e+001
2.738467e+003,1.006404e+001
2.740395e+003,1.004494e+001
2.742324e+003,1.002626e+001
2.744252e+003,1.000823e+001
2.746181e+003,9.990270e+000
2.748109e+003,9.972691e+000
2.750038e+003,9.953118e+000
2.751966e+003,9.934217e+000
2.753895e+003,9.914019e+000
2.755823e+003,9.894683e+000
2.757752e+003,9.875550e+000
2.759680e+003,9.857105e+000
2.761609e+003,9.837599e+000
2.763537e+003,9.818753e+000
2.765466e+003,9.800002e+000
2.767394e+003,9.781672e+000
2.769323e+003,9.762517e+000
2.771251e+003,9.743508e+000
2.773180e+003,9.724697e+000
2.775108e+003,9.705559e+000
2.777037e+003,9.683764e+000
2.778965e+003,9.663861e+000
2.780894e+003,9.644524e+000
2.782822e+003,9.625052e+000
2.784750e+003,9.604984e+000
2.786679e+003,9.587207e+000
2.788608e+003,9.569817e+000
2.790536e+003,9.549479e+000
2.792465e+003,9.528608e+000
2.794393e+003,9.509166e+000
2.796322e+003,9.490456e+000
2.798250e+003,9.472276e+000
2.800178e+003,9.451161e+000
2.802107e+003,9.430935e+000
2.804036e+003,9.410650e+000
2.805964e+003,9.389946e+000
2.807893e+003,9.369864e+000
2.809821e+003,9.350957e+000
2.811750e+003,9.330502e+000
2.813678e+003,9.309634e+000
2.815606e+003,9.289351e+000
2.817535e+003,9.269650e+000
2.819464e+003,9.248230e+000
2.821392e+003,9.227141e+000
2.823321e+003,9.206305e+000
2.825249e+003,9.185613e+000
2.827177e+003,9.163824e+000
2.829106e+003,9.142387e+000
2.831034e+003,9.120208e+000
2.832963e+003,9.098479e+000
2.834892e+003,9.075395e+000
2.836820e+003,9.053985e+000
2.838749e+003,9.031591e+000
2.840677e+003,9.000539e+000
2.842605e+003,8.970418e+000
2.844534e+003,8.942163e+000
2.846462e+003,8.912997e+000
2.848391e+003,8.883059e+000
2.850320e+003,8.855263e+000
2.852248e+003,8.832102e+000
2.854177e+003,8.810740e+000
2.856105e+003,8.790728e+000
2.858033e+003,8.771577e+000
2.859962e+003,8.752997e+000
2.861890e+003,8.732388e+000
2.863819e+003,8.711197e+000
2.865748e+003,8.690265e+000
2.867676e+003,8.668467e+000
2.869604e+003,8.645325e+000
2.871533e+003,8.625798e+000
2.873461e+003,8.605783e+000
2.875390e+003,8.580635e+000
2.877319e+003,8.558192e+000
2.879247e+003,8.537717e+000
2.881176e+003,8.516982e+000
2.883104e+003,8.494533e+000
2.885032e+003,8.472479e+000
2.886961e+003,8.450711e+000
2.888889e+003,8.428552e+000
2.890818e+003,8.405449e+000
2.892747e+003,8.381420e+000
2.894675e+003,8.356843e+000
2.896604e+003,8.332527e+000
2.898532e+003,8.307878e+000
2.900460e+003,8.282853e+000
2.902389e+003,8.257669e+000
2.904317e+003,8.232146e+000
2.906246e+003,8.204973e+000
2.908175e+003,8.179800e+000
2.910103e+003,8.153548e+000
2.912031e+003,8.130660e+000
2.913960e+003,8.102644e+000
2.915888e+003,8.066528e+000
2.917817e+003,8.038295e+000
2.919745e+003,8.014837e+000
2.921674e+003,7.990738e+000
2.923603e+003,7.966706e+000
2.925531e+003,7.942406e+000
2.927459e+003,7.922542e+000
2.929388e+003,7.910287e+000
2.931316e+003,7.892882e+000
2.933245e+003,7.876037e+000
2.935173e+003,7.858918e+000
2.937102e+003,7.839227e+000
2.939031e+003,7.827036e+000
2.940959e+003,7.818171e+000
2.942887e+003,7.805296e+000
2.944816e+003,7.788091e+000
2.946744e+003,7.763273e+000
2.948673e+003,7.738999e+000
2.950601e+003,7.720659e+000
2.952530e+003,7.699088e+000
2.954458e+003,7.672737e+000
2.956387e+003,7.643295e+000
2.958315e+003,7.614282e+000
2.960244e+003,7.596445e+000
2.962172e+003,7.576277e+000
2.964101e+003,7.555633e+000
2.966029e+003,7.536808e+000
2.967958e+003,7.522395e+000
2.969886e+003,7.516954e+000
2.971815e+003,7.513151e+000
2.973743e+003,7.504426e+000
2.975672e+003,7.492533e+000
2.977600e+003,7.475924e+000
2.979529e+003,7.464493e+000
2.981457e+003,7.453821e+000
2.983386e+003,7.437652e+000
2.985314e+003,7.420077e+000
2.987243e+003,7.400780e+000
2.989171e+003,7.383262e+000
2.991100e+003,7.372781e+000
2.993028e+003,7.354242e+000
2.994957e+003,7.332244e+000
2.996885e+003,7.314689e+000
2.998814e+003,7.294070e+000
3.000742e+003,7.273844e+000
3.002671e+003,7.254704e+000
3.004599e+003,7.233707e+000
3.006528e+003,7.213867e+000
3.008456e+003,7.195705e+000
3.010385e+003,7.179800e+000
3.012313e+003,7.156861e+000
3.014242e+003,7.124184e+000
3.016170e+003,7.083325e+000
3.018099e+003,7.070805e+000
3.020027e+003,7.075595e+000
3.021956e+003,7.061675e+000
3.023884e+003,7.044190e+000
3.025813e+003,7.024506e+000
3.027741e+003,7.003944e+000
3.029670e+003,6.985723e+000
3.031598e+003,6.968761e+000
3.033527e+003,6.952982e+000
3.035455e+003,6.934384e+000
3.037384e+003,6.914308e+000
3.039312e+003,6.898886e+000
3.041241e+003,6.886474e+000
3.043169e+003,6.868841e+000
3.045098e+003,6.847920e+000
3.047026e+003,6.825718e+000
3.048955e+003,6.808610e+000
3.050883e+003,6.795285e+000
3.052812e+003,6.776178e+000
3.054740e+003,6.757668e+000
3.056669e+003,6.734467e+000
3.058597e+003,6.718389e+000
3.060526e+003,6.706563e+000
3.062454e+003,6.690645e+000
3.064383e+003,6.672636e+000
3.066311e+003,6.652426e+000
3.068240e+003,6.638169e+000
3.070168e+003,6.624831e+000
3.072097e+003,6.607403e+000
3.074025e+003,6.589487e+000
3.075954e+003,6.571081e+000
3.077882e+003,6.562079e+000
3.079811e+003,6.547843e+000
3.081739e+003,6.528366e+000
3.083668e+003,6.507313e+000
3.085596e+003,6.480704e+000
3.087525e+003,6.468637e+000
3.089453e+003,6.457845e+000
3.091382e+003,6.438752e+000
3.093310e+003,6.414941e+000
3.095239e+003,6.393542e+000
3.097167e+003,6.384365e+000
3.099096e+003,6.371017e+000
3.101024e+003,6.353051e+000
3.102953e+003,6.330940e+000
3.104881e+003,6.314413e+000
3.106810e+003,6.305323e+000
3.108738e+003,6.291759e+000
3.110667e+003,6.270505e+000
3.112595e+003,6.249753e+000
3.114524e+003,6.240282e+000
3.116452e+003,6.231997e+000
3.118381e+003,6.214786e+000
3.120309e+003,6.194431e+000
3.122238e+003,6.162482e+000
3.124166e+003,6.146427e+000
3.126095e+003,6.138613e+000
3.128023e+003,6.128233e+000
3.129952e+003,6.112723e+000
3.131880e+003,6.096000e+000
3.133809e+003,6.082270e+000
3.135737e+003,6.069236e+000
3.137666e+003,6.055132e+000
3.139594e+003,6.039141e+000
3.141523e+003,6.022902e+000
3.143451e+003,6.008461e+000
3.145380e+003,5.992984e+000
3.147308e+003,5.977888e+000
3.149237e+003,5.963832e+000
3.151165e+003,5.956227e+000
3.153094e+003,5.941705e+000
3.155022e+003,5.922019e+000
3.156951e+003,5.906732e+000
3.158879e+003,5.893651e+000
3.160808e+003,5.880199e+000
3.162736e+003,5.867422e+000
3.164665e+003,5.854658e+000
3.166593e+003,5.841486e+000
3.168522e+003,5.828246e+000
3.170450e+003,5.815162e+000
3.172379e+003,5.801723e+000
3.174307e+003,5.788997e+000
3.176236e+003,5.775197e+000
3.178164e+003,5.761926e+000
3.180093e+003,5.750237e+000
3.182021e+003,5.738371e+000
3.183950e+003,5.725575e+000
3.185878e+003,5.714257e+000
3.187807e+003,5.703285e+000
3.189735e+003,5.691891e+000
3.191664e+003,5.680966e+000
3.193592e+003,5.670124e+000
3.195521e+003,5.658529e+000
3.197449e+003,5.647524e+000
3.199378e+003,5.638042e+000
3.201306e+003,5.628880e+000
3.203235e+003,5.618761e+000
3.205163e+003,5.609864e+000
3.207092e+003,5.600586e+000
3.209020e+003,5.591476e+000
3.210948e+003,5.584647e+000
3.212877e+003,5.577606e+000
3.214806e+003,5.570268e+000
3.216734e+003,5.564489e+000
3.218663e+003,5.557323e+000
3.220591e+003,5.551971e+000
3.222520e+003,5.546894e+000
3.224448e+003,5.541290e+000
3.226376e+003,5.534778e+000
3.228305e+003,5.529262e+000
3.230234e+003,5.525315e+000
3.232162e+003,5.525682e+000
3.234091e+003,5.520830e+000
3.236019e+003,5.511725e+000
3.237948e+003,5.507122e+000
3.239876e+003,5.503293e+000
3.241804e+003,5.499158e+000
3.243733e+003,5.495287e+000
3.245662e+003,5.494297e+000
3.247590e+003,5.492599e+000
3.249519e+003,5.488576e+000
3.251447e+003,5.486507e+000
3.253375e+003,5.484439e+000
3.255304e+003,5.484090e+000
3.257232e+003,5.482277e+000
3.259161e+003,5.480770e+000
3.261090e+003,5.480552e+000
3.263018e+003,5.481471e+000
3.264947e+003,5.482157e+000
3.266875e+003,5.483922e+000
3.268803e+003,5.487985e+000
3.270732e+003,5.492260e+000
3.272660e+003,5.489469e+000
3.274589e+003,5.489082e+000
3.276518e+003,5.489816e+000
3.278446e+003,5.490866e+000
3.280375e+003,5.491564e+000
3.282303e+003,5.492858e+000
3.284231e+003,5.493710e+000
3.286160e+003,5.494792e+000
3.288088e+003,5.494273e+000
3.290017e+003,5.496583e+000
3.291946e+003,5.498225e+000
3.293874e+003,5.497845e+000
3.295802e+003,5.497458e+000
3.297731e+003,5.495715e+000
3.299659e+003,5.494170e+000
3.301588e+003,5.493959e+000
3.303516e+003,5.499016e+000
3.305445e+003,5.503949e+000
3.307374e+003,5.498624e+000
3.309302e+003,5.492887e+000
3.311230e+003,5.489681e+000
3.313159e+003,5.489073e+000
3.315087e+003,5.488405e+000
3.317016e+003,5.487065e+000
3.318944e+003,5.484838e+000
3.320873e+003,5.482916e+000
3.322802e+003,5.480703e+000
3.324730e+003,5.480476e+000
3.326658e+003,5.479226e+000
3.328587e+003,5.477720e+000
3.330515e+003,5.475891e+000
3.332444e+003,5.473594e+000
3.334372e+003,5.470309e+000
3.336301e+003,5.468810e+000
3.338229e+003,5.468645e+000
3.340158e+003,5.465747e+000
3.342086e+003,5.462170e+000
3.344015e+003,5.458642e+000
3.345943e+003,5.454995e+000
3.347872e+003,5.453779e+000
3.349800e+003,5.452398e+000
3.351729e+003,5.447711e+000
3.353657e+003,5.441774e+000
3.355586e+003,5.438454e+000
3.357514e+003,5.434803e+000
3.359443e+003,5.431894e+000
3.361371e+003,5.427161e+000
3.363300e+003,5.423118e+000
3.365229e+003,5.419242e+000
3.367157e+003,5.418403e+000
3.369085e+003,5.416919e+000
3.371014e+003,5.408202e+000
3.372942e+003,5.398743e+000
3.374871e+003,5.393255e+000
3.376799e+003,5.387034e+000
3.378728e+003,5.381078e+000
3.380656e+003,5.374279e+000
3.382585e+003,5.367007e+000
3.384513e+003,5.358345e+000
3.386442e+003,5.352107e+000
3.388370e+003,5.345298e+000
3.390299e+003,5.340953e+000
3.392227e+003,5.331284e+000
3.394156e+003,5.319366e+000
3.396084e+003,5.308514e+000
3.398013e+003,5.302076e+000
3.399941e+003,5.296854e+000
3.401870e+003,5.283857e+000
3.403798e+003,5.269795e+000
3.405727e+003,5.259126e+000
3.407655e+003,5.248910e+000
3.409584e+003,5.238386e+000
3.411512e+003,5.226345e+000
3.413441e+003,5.214656e+000
3.415369e+003,5.202053e+000
3.417298e+003,5.188720e+000
3.419226e+003,5.173048e+000
3.421155e+003,5.159319e+000
3.423083e+003,5.146772e+000
3.425012e+003,5.133513e+000
3.426940e+003,5.118494e+000
3.428869e+003,5.104513e+000
3.430797e+003,5.088618e+000
3.432726e+003,5.075111e+000
3.434654e+003,5.062761e+000
3.436583e+003,5.047908e+000
3.438511e+003,5.032633e+000
3.440440e+003,5.019906e+000
3.442368e+003,5.008233e+000
3.444297e+003,4.998672e+000
3.446225e+003,4.986704e+000
3.448154e+003,4.980028e+000
3.450082e+003,4.974589e+000
3.452011e+003,4.966389e+000
3.453939e+003,4.956919e+000
3.455868e+003,4.947709e+000
3.457796e+003,4.938183e+000
3.459725e+003,4.928760e+000
3.461653e+003,4.917636e+000
3.463582e+003,4.909578e+000
3.465510e+003,4.902102e+000
3.467439e+003,4.895056e+000
3.469367e+003,4.885812e+000
3.471296e+003,4.874848e+000
3.473224e+003,4.865581e+000
3.475153e+003,4.858145e+000
3.477081e+003,4.851390e+000
3.479010e+003,4.844084e+000
3.480938e+003,4.833323e+000
3.482867e+003,4.827460e+000
3.484795e+003,4.823774e+000
3.486724e+003,4.816978e+000
3.488652e+003,4.810805e+000
3.490581e+003,4.807250e+000
3.492509e+003,4.802751e+000
3.494438e+003,4.797594e+000
3.496366e+003,4.792346e+000
3.498295e+003,4.789062e+000
3.500223e+003,4.782764e+000
3.502152e+003,4.774646e+000
3.504080e+003,4.769210e+000
3.506009e+003,4.768766e+000
3.507937e+003,4.761422e+000
3.509866e+003,4.754977e+000
3.511794e+003,4.752179e+000
3.513723e+003,4.748970e+000
3.515651e+003,4.743551e+000
3.517580e+003,4.737264e+000
3.519508e+003,4.729881e+000
3.521437e+003,4.721541e+000
3.523365e+003,4.711325e+000
3.525294e+003,4.704564e+000
3.527222e+003,4.694784e+000
3.529151e+003,4.688838e+000
3.531079e+003,4.683502e+000
3.533008e+003,4.677453e+000
3.534936e+003,4.664774e+000
3.536865e+003,4.654762e+000
3.538793e+003,4.645561e+000
3.540722e+003,4.635133e+000
3.542650e+003,4.618898e+000
3.544579e+003,4.599938e+000
3.546507e+003,4.584282e+000
3.548436e+003,4.578941e+000
3.550364e+003,4.566102e+000
3.552293e+003,4.549011e+000
3.554221e+003,4.538745e+000
3.556150e+003,4.527069e+000
3.558078e+003,4.508057e+000
3.560007e+003,4.488787e+000
3.561935e+003,4.470114e+000
3.563864e+003,4.444537e+000
3.565792e+003,4.403053e+000
3.567721e+003,4.382280e+000
3.569649e+003,4.390383e+000
3.571578e+003,4.383582e+000
3.573506e+003,4.362515e+000
3.575435e+003,4.340934e+000
3.577363e+003,4.319257e+000
3.579292e+003,4.295794e+000
3.581220e+003,4.270740e+000
3.583149e+003,4.240646e+000
3.585077e+003,4.191505e+000
3.587006e+003,4.137490e+000
3.588934e+003,4.118931e+000
3.590863e+003,4.115134e+000
3.592791e+003,4.084395e+000
3.594720e+003,4.056795e+000
3.596648e+003,4.041784e+000
3.598577e+003,4.030353e+000
3.600505e+003,4.017638e+000
3.602434e+003,4.021409e+000
3.604362e+003,4.024195e+000
3.606291e+003,4.018580e+000
3.608219e+003,4.010137e+000
3.610148e+003,4.043043e+000
3.612076e+003,4.062165e+000
3.614005e+003,4.046558e+000
3.615933e+003,4.002477e+000
3.617862e+003,3.933645e+000
3.619790e+003,3.891197e+000
3.621719e+003,3.889720e+000
3.623647e+003,3.876146e+000
3.625576e+003,3.849987e+000
3.627504e+003,3.782513e+000
3.629433e+003,3.774540e+000
3.631361e+003,3.854691e+000
3.633290e+003,3.887461e+000
3.635218e+003,3.912803e+000
3.637146e+003,3.933526e+000
3.639075e+003,3.949005e+000
3.641004e+003,3.959072e+000
3.642932e+003,3.964978e+000
3.644861e+003,3.954909e+000
3.646789e+003,3.908753e+000
3.648718e+003,3.867932e+000
3.650646e+003,3.893869e+000
3.652574e+003,3.951515e+000
3.654503e+003,3.939901e+000
3.656432e+003,3.922499e+000
3.658360e+003,3.953537e+000
3.660289e+003,3.962456e+000
3.662217e+003,3.958308e+000
3.664146e+003,3.955577e+000
3.666074e+003,3.943318e+000
3.668002e+003,3.896173e+000
3.669931e+003,3.841790e+000
3.671860e+003,3.871755e+000
3.673788e+003,3.837956e+000
3.675717e+003,3.787490e+000
3.677645e+003,3.861485e+000
3.679573e+003,3.892036e+000
3.681502e+003,3.900811e+000
3.683430e+003,3.890321e+000
3.685359e+003,3.867257e+000
3.687288e+003,3.784078e+000
3.689216e+003,3.762534e+000
3.691145e+003,3.794083e+000
3.693073e+003,3.809714e+000
3.695001e+003,3.807223e+000
3.696930e+003,3.794674e+000
3.698858e+003,3.784458e+000
3.700787e+003,3.762379e+000
3.702716e+003,3.772225e+000
3.704644e+003,3.800283e+000
3.706573e+003,3.819004e+000
3.708501e+003,3.828442e+000
3.710429e+003,3.842796e+000
3.712358e+003,3.898744e+000
3.714286e+003,3.993235e+000
3.716215e+003,3.992725e+000
3.718144e+003,3.943314e+000
3.720072e+003,3.893293e+000
3.722000e+003,3.854885e+000
3.723929e+003,3.830894e+000
3.725857e+003,3.817273e+000
3.727786e+003,3.830725e+000
3.729714e+003,3.846546e+000
3.731643e+003,3.836298e+000
3.733572e+003,3.874575e+000
3.735500e+003,3.901937e+000
3.737428e+003,3.993850e+000
3.739357e+003,4.089062e+000
3.741285e+003,4.135150e+000
3.743214e+003,4.063903e+000
3.745142e+003,4.104225e+000
3.747071e+003,4.223851e+000
3.749000e+003,4.193806e+000
3.750928e+003,4.205870e+000
3.752856e+003,4.276299e+000
3.754785e+003,4.381761e+000
3.756713e+003,4.397752e+000
3.758642e+003,4.412626e+000
3.760570e+003,4.434277e+000
3.762499e+003,4.478523e+000
3.764427e+003,4.475025e+000
3.766356e+003,4.496187e+000
3.768284e+003,4.498043e+000
3.770213e+003,4.512644e+000
3.772141e+003,4.555904e+000
3.774070e+003,4.583823e+000
3.775998e+003,4.593782e+000
3.777927e+003,4.593719e+000
3.779855e+003,4.600758e+000
3.781784e+003,4.636663e+000
3.783712e+003,4.645444e+000
3.785641e+003,4.663869e+000
3.787569e+003,4.679599e+000
3.789498e+003,4.697566e+000
3.791426e+003,4.706296e+000
3.793355e+003,4.716679e+000
3.795283e+003,4.702444e+000
3.797212e+003,4.715250e+000
3.799140e+003,4.693227e+000
3.801069e+003,4.634939e+000
3.802997e+003,4.709053e+000
3.804926e+003,4.737799e+000
3.806854e+003,4.707070e+000
3.808783e+003,4.775278e+000
3.810711e+003,4.808519e+000
3.812640e+003,4.811337e+000
3.814568e+003,4.737448e+000
3.816497e+003,4.730373e+000
3.818425e+003,4.794372e+000
3.820354e+003,4.754289e+000
3.822282e+003,4.788321e+000
3.824211e+003,4.850731e+000
3.826139e+003,4.851870e+000
3.828068e+003,4.867989e+000
3.829996e+003,4.861185e+000
3.831925e+003,4.853503e+000
3.833853e+003,4.854157e+000
3.835782e+003,4.812820e+000
3.837710e+003,4.771752e+000
3.839639e+003,4.839013e+000
3.841567e+003,4.878715e+000
3.843496e+003,4.894643e+000
3.845424e+003,4.915733e+000
3.847353e+003,4.931303e+000
3.849281e+003,4.902665e+000
3.851210e+003,4.797891e+000
3.853138e+003,4.680012e+000
3.855067e+003,4.782816e+000
3.856995e+003,4.915504e+000
3.858924e+003,4.936509e+000
3.860852e+003,4.920727e+000
3.862781e+003,4.902802e+000
3.864709e+003,4.888107e+000
3.866638e+003,4.913148e+000
3.868566e+003,4.867799e+000
3.870495e+003,4.862782e+000
3.872423e+003,4.917004e+000
3.874352e+003,4.918174e+000
3.876280e+003,4.945808e+000
3.878209e+003,4.930523e+000
3.880137e+003,4.908274e+000
3.882066e+003,4.925150e+000
3.883994e+003,4.901434e+000
3.885923e+003,4.880824e+000
3.887851e+003,4.933264e+000
3.889780e+003,4.910667e+000
3.891708e+003,4.901974e+000
3.893637e+003,4.934781e+000
3.895565e+003,4.943514e+000
3.897494e+003,4.915603e+000
3.899422e+003,4.885005e+000
3.901351e+003,4.874291e+000
3.903279e+003,4.867957e+000
3.905208e+003,4.894218e+000
3.907136e+003,4.928311e+000
3.909065e+003,4.934308e+000
3.910993e+003,4.932652e+000
3.912922e+003,4.929484e+000
3.914850e+003,4.915665e+000
3.916779e+003,4.894989e+000
3.918707e+003,4.898584e+000
3.920636e+003,4.904655e+000
3.922564e+003,4.905623e+000
3.924493e+003,4.895973e+000
3.926421e+003,4.901578e+000
3.928350e+003,4.898224e+000
3.930278e+003,4.886178e+000
3.932207e+003,4.876617e+000
3.934135e+003,4.885080e+000
3.936064e+003,4.887434e+000
3.937992e+003,4.883276e+000
3.939921e+003,4.874986e+000
3.941849e+003,4.861957e+000
3.943778e+003,4.859975e+000
3.945706e+003,4.860091e+000
3.947635e+003,4.849492e+000
3.949563e+003,4.845592e+000
3.951492e+003,4.844430e+000
3.953420e+003,4.842483e+000
3.955349e+003,4.836258e+000
3.957277e+003,4.831080e+000
3.959206e+003,4.823973e+000
3.961134e+003,4.816855e+000
3.963063e+003,4.811661e+000
3.964991e+003,4.807533e+000
3.966920e+003,4.799366e+000
3.968848e+003,4.792309e+000
3.970777e+003,4.785398e+000
3.972705e+003,4.778744e+000
3.974634e+003,4.771931e+000
3.976562e+003,4.766213e+000
3.978491e+003,4.759519e+000
3.980419e+003,4.752208e+000
3.982348e+003,4.744414e+000
3.984276e+003,4.738468e+000
3.986205e+003,4.730800e+000
3.988133e+003,4.723168e+000
3.990062e+003,4.714157e+000
3.991990e+003,4.707226e+000
3.993919e+003,4.699243e+000
3.995847e+003,4.692463e+000
3.997776e+003,4.684666e+000
3.999704e+003,4.677031e+000
4.001633e+003,0.000000e+000
